SPECTRUM DATA FILE
SpectrumCount:	1
PixelCount:	3648
UserName:	ToughBook User
SampleName:	
LightSource:	
Comments:	
DeviceName:	Qwave
DeviceManufacturer:	Broadcom
DeviceSerialNo:	11311

Name:	last spectrum
Date:	2024-05-02T15:23:31.5632464+02:00
ExposureTime:	0.02
TemporalAvg:	1
IntensityUnit:	normalizedCounts
CCDLoadLevel:	0.07285842
Temperature:	29.98056
DiagramColor:	200
ProcessingSteps:	335

Wavelength [nm]	Intensity1
334.421	11.86926
334.5891	19.63802
334.7573	18.42299
334.9254	17.45999
335.0935	17.11507
335.2616	16.1421
335.4297	17.74431
335.5978	11.64965
335.7659	15.46926
335.934	18.34569
336.1021	15.05206
336.2701	12.77162
336.4382	16.62581
336.6063	15.41141
336.7744	16.56457
336.9424	13.01981
337.1105	11.64737
337.2785	12.02515
337.4466	15.89918
337.6146	17.15708
337.7827	18.52477
337.9507	16.92372
338.1187	17.48727
338.2867	19.94913
338.4548	12.33403
338.6228	21.13134
338.7908	20.31092
338.9588	15.10231
339.1268	18.58865
339.2948	13.64754
339.4628	19.10243
339.6308	15.70991
339.7988	12.02819
339.9667	17.63603
340.1347	18.64274
340.3027	21.75297
340.4707	21.22749
340.6386	20.30965
340.8066	20.56164
340.9745	15.35376
341.1425	17.36827
341.3104	16.37813
341.4784	12.25015
341.6463	19.51222
341.8142	17.84795
341.9821	17.68602
342.1501	20.22616
342.318	20.94041
342.4859	19.18086
342.6538	18.32564
342.8217	19.089
342.9896	22.6407
343.1575	21.27489
343.3254	22.53297
343.4933	16.94651
343.6612	16.5511
343.829	18.8724
343.9969	18.08299
344.1648	17.93588
344.3326	18.10875
344.5005	16.06873
344.6683	19.47725
344.8362	20.5519
345.004	19.70092
345.1719	17.75691
345.3397	16.55842
345.5075	21.63994
345.6754	23.95877
345.8432	20.57368
346.011	20.91229
346.1788	20.53017
346.3466	20.44237
346.5144	16.94672
346.6822	19.5549
346.85	20.64658
347.0178	21.19334
347.1856	22.95152
347.3534	19.11331
347.5211	18.66448
347.6889	14.73771
347.8567	14.72197
348.0244	18.93121
348.1922	23.2759
348.3599	24.30106
348.5277	22.46641
348.6954	21.8442
348.8632	18.75309
349.0309	22.45422
349.1986	18.33212
349.3663	16.88131
349.5341	21.44825
349.7018	20.01719
349.8695	21.7429
350.0372	25.8868
350.2049	22.60914
350.3726	24.73041
350.5403	25.83834
350.7079	24.84233
350.8756	22.38898
351.0433	20.36918
351.211	23.67732
351.3786	23.11136
351.5463	21.04911
351.714	21.46347
351.8816	21.18801
352.0493	23.52324
352.2169	22.01169
352.3846	24.40583
352.5522	22.42488
352.7198	22.70677
352.8875	21.71846
353.0551	16.87119
353.2227	19.95219
353.3903	25.75487
353.5579	27.93784
353.7255	27.50751
353.8931	26.26343
354.0607	21.72029
354.2283	21.28228
354.3958	26.51389
354.5634	27.12072
354.731	27.91898
354.8986	31.68122
355.0661	33.50442
355.2337	25.44049
355.4012	23.01477
355.5688	26.4622
355.7363	28.25046
355.9039	29.93873
356.0714	27.75818
356.239	24.70941
356.4065	22.54353
356.574	20.08957
356.7415	23.84371
356.909	20.95108
357.0765	23.12345
357.244	20.30805
357.4115	22.20528
357.579	22.6575
357.7465	21.78205
357.914	22.55208
358.0815	19.15599
358.249	20.08143
358.4164	22.59637
358.5839	21.42096
358.7513	17.167
358.9188	21.59974
359.0862	26.57289
359.2537	23.61712
359.4211	29.43036
359.5886	28.62045
359.756	26.60173
359.9234	29.81469
360.0909	28.69931
360.2583	22.45925
360.4257	23.43487
360.5931	24.549
360.7605	25.05214
360.9279	24.36264
361.0953	26.2938
361.2627	27.33051
361.4301	25.47922
361.5974	28.58583
361.7648	25.24739
361.9322	26.86376
362.0995	24.92956
362.2669	29.06482
362.4343	31.56552
362.6016	33.7869
362.769	33.50104
362.9363	32.7723
363.1036	32.86671
363.271	30.16082
363.4383	29.18283
363.6056	31.69655
363.7729	30.92508
363.9402	33.63205
364.1075	32.9424
364.2748	32.99247
364.4421	30.03464
364.6094	25.97567
364.7767	25.78351
364.944	34.24789
365.1113	31.33252
365.2786	28.72827
365.4458	33.9448
365.6131	35.29377
365.7803	36.39332
365.9476	39.05376
366.1148	38.7367
366.2821	37.50174
366.4493	34.1525
366.6166	33.4821
366.7838	38.57573
366.951	38.23525
367.1182	37.69822
367.2855	38.40599
367.4527	34.71868
367.6199	36.68992
367.7871	36.59321
367.9543	32.65041
368.1215	31.96936
368.2886	35.75682
368.4558	32.30716
368.623	35.72477
368.7902	33.46897
368.9573	33.97707
369.1245	35.54041
369.2917	39.60004
369.4588	41.39144
369.6259	40.44507
369.7931	39.12167
369.9602	42.47449
370.1274	47.93926
370.2945	40.42556
370.4616	31.16635
370.6287	38.27441
370.7958	38.71239
370.963	37.42109
371.1301	40.14151
371.2971	41.58707
371.4643	42.45481
371.6313	42.54292
371.7984	40.7038
371.9655	35.73785
372.1326	30.9188
372.2997	29.07133
372.4667	40.19588
372.6338	43.73968
372.8008	42.35971
372.9679	40.92145
373.1349	39.45129
373.3019	36.487
373.469	29.21141
373.636	29.13736
373.803	34.56329
373.9701	42.03136
374.1371	44.55603
374.3041	43.1025
374.4711	36.01329
374.6381	33.50991
374.8051	32.24509
374.9721	33.95531
375.1391	37.98117
375.3061	48.05612
375.473	46.54097
375.64	46.59425
375.8069	39.40253
375.9739	39.77138
376.1409	37.63295
376.3078	42.00855
376.4748	43.63858
376.6417	45.33457
376.8087	38.51449
376.9756	41.15986
377.1425	43.50813
377.3094	45.25223
377.4763	45.27296
377.6432	49.43491
377.8102	52.59595
377.9771	51.68649
378.144	57.30949
378.3109	58.26544
378.4777	58.02675
378.6446	51.23016
378.8115	49.79781
378.9784	46.88748
379.1452	50.06205
379.3121	43.33334
379.4789	42.96004
379.6458	40.24121
379.8127	40.94832
379.9795	43.00084
380.1463	49.498
380.3131	56.97527
380.48	58.44423
380.6468	57.51611
380.8136	54.72092
380.9804	52.03728
381.1472	50.97013
381.314	47.36097
381.4808	43.86911
381.6476	47.16884
381.8144	47.81954
381.9812	43.72416
382.148	39.80355
382.3147	38.85331
382.4815	38.86154
382.6483	36.93695
382.815	38.35514
382.9818	36.75038
383.1485	37.24746
383.3153	31.53214
383.482	32.86123
383.6487	35.43288
383.8155	32.88558
383.9822	37.09782
384.1489	41.20591
384.3156	48.38358
384.4823	53.85059
384.649	52.91841
384.8157	49.33308
384.9824	49.36908
385.1491	49.95333
385.3158	53.16045
385.4825	53.32477
385.6491	45.42227
385.8158	44.62862
385.9825	38.85367
386.1491	41.9664
386.3157	48.51218
386.4824	52.41737
386.649	57.82934
386.8157	50.78369
386.9823	46.40299
387.1489	45.38687
387.3156	53.9053
387.4821	57.86497
387.6488	52.77518
387.8154	54.55145
387.982	48.48372
388.1486	52.58212
388.3152	48.10432
388.4818	49.92826
388.6483	48.5927
388.8149	47.74627
388.9815	55.16468
389.148	58.25888
389.3146	60.49408
389.4811	64.06706
389.6477	61.47553
389.8142	64.13438
389.9808	59.34879
390.1473	62.85804
390.3138	66.00805
390.4804	60.86396
390.6469	64.53886
390.8134	59.32171
390.9799	66.76052
391.1464	73.21654
391.3129	73.29948
391.4794	72.41432
391.6459	65.16174
391.8124	65.04607
391.9789	63.65117
392.1453	60.45007
392.3118	60.00281
392.4782	57.69225
392.6447	49.13243
392.8112	43.20161
392.9776	36.54554
393.144	28.1052
393.3105	28.91005
393.4769	31.82127
393.6433	35.40667
393.8098	39.21136
393.9762	48.84569
394.1426	54.63674
394.309	53.62419
394.4754	55.3553
394.6418	58.43825
394.8082	69.55932
394.9746	71.3586
395.141	72.88454
395.3073	75.74688
395.4737	74.77698
395.64	76.78235
395.8064	73.92546
395.9728	72.67683
396.1391	63.7663
396.3055	53.49529
396.4718	45.00762
396.6381	39.47626
396.8045	30.16747
396.9708	35.43429
397.1371	42.68844
397.3034	51.02903
397.4697	64.86753
397.636	67.86888
397.8023	81.08965
397.9686	84.21842
398.1349	88.19743
398.3012	88.91148
398.4675	85.56178
398.6337	84.92704
398.8	94.45329
398.9662	98.1618
399.1325	101.3338
399.2988	95.58012
399.465	93.93896
399.6313	92.54831
399.7975	97.62414
399.9637	100.8377
400.1299	100.5092
400.2961	101.5398
400.4624	101.6881
400.6286	101.9525
400.7948	101.4352
400.961	105.51
401.1272	107.443
401.2934	105.192
401.4595	106.7224
401.6257	112.9764
401.7919	115.296
401.9581	110.9926
402.1242	110.4915
402.2904	102.728
402.4565	105.3609
402.6227	110.3213
402.7888	113.3147
402.955	108.8989
403.1211	99.27596
403.2872	97.41859
403.4533	99.27731
403.6194	109.7238
403.7856	111.1638
403.9517	112.8381
404.1177	111.7254
404.2838	109.2178
404.4499	102.7884
404.616	100.5365
404.7821	99.74492
404.9482	115.0429
405.1142	117.3251
405.2803	117.1921
405.4464	113.182
405.6124	104.9768
405.7784	100.3384
405.9445	104.8362
406.1105	107.8614
406.2766	105.7002
406.4426	100.9598
406.6086	104.028
406.7746	112.1579
406.9406	118.6192
407.1066	121.3303
407.2726	115.8555
407.4386	113.1455
407.6046	116.8452
407.7706	109.4118
407.9366	117.8027
408.1025	124.8721
408.2685	119.7469
408.4344	122.7208
408.6004	127.3411
408.7664	136.9029
408.9323	133.2548
409.0983	132.7936
409.2642	138.0339
409.4301	127.4291
409.596	121.7586
409.762	125.1057
409.9279	112.2346
410.0938	109.2604
410.2597	103.5652
410.4256	104.9325
410.5915	121.1603
410.7574	133.4547
410.9232	132.5035
411.0891	131.3136
411.255	135.1024
411.4209	140.9523
411.5867	139.1278
411.7526	144.6041
411.9184	134.6316
412.0843	132.4861
412.2501	132.169
412.4159	133.3198
412.5818	133.0471
412.7476	135.9219
412.9134	127.129
413.0792	124.722
413.245	126.7821
413.4108	133.3614
413.5766	136.249
413.7424	146.4546
413.9082	146.4426
414.074	145.7634
414.2397	131.7219
414.4055	128.6198
414.5713	131.8294
414.737	138.7514
414.9028	140.1231
415.0685	135.2189
415.2343	137.0331
415.4	140.9116
415.5658	137.1574
415.7315	141.5879
415.8972	140.5213
416.0629	142.2424
416.2286	147.9644
416.3943	154.1603
416.56	146.0705
416.7257	141.6148
416.8914	144.2064
417.0571	145.8853
417.2228	132.9899
417.3884	135.7816
417.5541	131.245
417.7198	137.5778
417.8854	137.88
418.0511	138.6201
418.2167	137.817
418.3824	143.4344
418.548	143.4205
418.7136	143.3016
418.8792	134.35
419.0449	142.3061
419.2105	148.3055
419.3761	152.7631
419.5417	151.4821
419.7073	140.7799
419.8729	136.5735
420.0385	134.2288
420.204	137.2606
420.3696	148.438
420.5352	150.176
420.7007	157.6261
420.8663	159.8961
421.0319	161.3294
421.1974	165.6433
421.3629	171.1734
421.5285	161.5368
421.694	153.4567
421.8595	153.744
422.0251	162.4587
422.1906	158.5448
422.3561	152.4682
422.5216	138.6646
422.6871	134.3372
422.8526	134.6784
423.0181	152.4692
423.1835	161.0379
423.349	160.9952
423.5145	157.4972
423.68	153.0848
423.8454	153.3898
424.0109	158.5476
424.1763	157.6609
424.3418	160.9415
424.5072	164.4106
424.6726	160.8602
424.838	152.5329
425.0035	151.8186
425.1689	151.9975
425.3343	158.7312
425.4997	159.0611
425.6651	165.7752
425.8305	156.9121
425.9959	151.2696
426.1613	151.8853
426.3267	159.1395
426.492	175.1091
426.6574	171.4236
426.8228	158.059
426.9881	149.2624
427.1534	138.4231
427.3188	136.8106
427.4841	143.4331
427.6495	150.9253
427.8148	164.9947
427.9801	166.9683
428.1454	161.9719
428.3107	163.5036
428.476	162.5177
428.6414	159.8073
428.8066	144.9865
428.9719	145.1485
429.1372	147.8509
429.3025	153.5432
429.4678	157.7898
429.633	153.6498
429.7983	135.4061
429.9636	118.3228
430.1288	115.4926
430.294	116.1689
430.4593	121.7127
430.6245	117.6966
430.7897	110.2627
430.955	112.4055
431.1202	118.9288
431.2854	138.7858
431.4506	156.9783
431.6158	180.3341
431.781	186.6201
431.9462	189.3169
432.1114	185.1253
432.2766	166.8244
432.4417	150.4623
432.6069	148.3932
432.772	165.3494
432.9372	183.4382
433.1024	185.0463
433.2675	192.333
433.4326	188.7505
433.5977	180.1673
433.7629	162.4607
433.928	154.3872
434.0931	145.1529
434.2582	150.8973
434.4233	164.3185
434.5884	187.1115
434.7535	198.173
434.9186	196.4366
435.0837	182.1693
435.2488	175.0794
435.4138	180.7171
435.5789	188.2301
435.744	193.4218
435.909	193.7414
436.0741	204.9763
436.2391	208.8734
436.4042	206.259
436.5692	209.7475
436.7342	208.017
436.8992	196.2753
437.0643	196.914
437.2293	196.7558
437.3943	189.7024
437.5593	192.0188
437.7243	195.4266
437.8893	198.4496
438.0542	195.4408
438.2192	183.9603
438.3842	163.913
438.5491	159.6214
438.7141	179.4416
438.8791	190.4727
439.044	195.3831
439.209	194.924
439.3739	193.4056
439.5388	200.1821
439.7037	207.9291
439.8687	211.2935
440.0336	208.1252
440.1985	202.0095
440.3634	192.8191
440.5283	190.791
440.6932	192.8116
440.8581	203.4651
441.0229	203.7749
441.1878	218.4976
441.3527	226.4413
441.5175	213.4505
441.6824	208.2335
441.8472	213.8588
442.0121	223.1775
442.1769	225.1454
442.3418	220.8219
442.5066	222.3865
442.6714	220.1832
442.8362	220.1836
443.001	222.6534
443.1659	214.8561
443.3307	213.0995
443.4955	214.1333
443.6602	218.9155
443.825	223.9719
443.9898	229.0443
444.1546	217.4768
444.3193	213.4303
444.4841	226.7304
444.6488	220.516
444.8136	224.0127
444.9783	232.9078
445.1431	234.0074
445.3078	224.7352
445.4725	210.8689
445.6372	206.6606
445.802	207.7795
445.9667	205.7184
446.1314	217.239
446.2961	216.1003
446.4608	227.8107
446.6255	236.1231
446.7901	235.029
446.9548	227.2071
447.1195	242.4187
447.2841	246.0339
447.4488	257.0721
447.6134	250.4843
447.7781	249.4143
447.9427	242.681
448.1074	233.7644
448.272	232.4445
448.4366	244.2742
448.6012	251.5319
448.7658	252.1948
448.9305	252.6527
449.095	240.4867
449.2596	245.2595
449.4242	245.1826
449.5888	246.5712
449.7534	253.2414
449.9179	254.1807
450.0825	253.607
450.2471	263.8497
450.4116	271.4394
450.5762	275.1399
450.7407	274.3199
450.9052	275.5536
451.0698	279.121
451.2343	266.6333
451.3988	269.5788
451.5633	270.0158
451.7278	264.0992
451.8923	264.5446
452.0568	268.6009
452.2213	266.5495
452.3858	267.6529
452.5503	257.7074
452.7148	246.7644
452.8792	237.8592
453.0437	232.7577
453.2081	240.9423
453.3726	240.5174
453.537	243.0989
453.7015	248.7164
453.8659	259.2295
454.0303	267.4495
454.1947	267.5938
454.3592	260.9062
454.5236	265.968
454.688	270.6622
454.8524	263.0667
455.0168	252.3704
455.1811	254.882
455.3455	254.6239
455.5099	250.3667
455.6743	258.9315
455.8386	273.6165
456.003	277.6601
456.1673	282.2803
456.3317	277.2634
456.496	269.0506
456.6603	263.6327
456.8246	271.0581
456.989	277.7584
457.1533	274.3068
457.3176	270.2899
457.4819	279.2727
457.6462	278.2593
457.8105	272.8729
457.9748	265.4243
458.1391	261.0508
458.3033	259.9698
458.4676	256.7657
458.6319	260.4652
458.7961	271.1668
458.9604	271.9305
459.1246	259.8863
459.2888	254.8809
459.4531	255.6445
459.6173	256.7098
459.7815	263.5926
459.9457	263.4403
460.11	262.3487
460.2741	265.2798
460.4384	264.8106
460.6025	269.9012
460.7667	278.0918
460.9309	284.8211
461.0951	278.7207
461.2592	281.6301
461.4234	274.8042
461.5876	274.893
461.7517	276.4516
461.9159	276.1182
462.08	269.8862
462.2441	282.9352
462.4082	278.7535
462.5724	278.2076
462.7365	277.8526
462.9006	282.1949
463.0647	285.5584
463.2288	289.7258
463.3929	284.1173
463.557	279.949
463.721	280.0901
463.8851	281.4026
464.0492	278.2665
464.2132	277.1895
464.3773	283.5125
464.5414	272.6646
464.7054	266.336
464.8694	267.0609
465.0334	275.8258
465.1975	277.0293
465.3615	282.1594
465.5255	284.5285
465.6895	282.3235
465.8535	292.7542
466.0175	298.0775
466.1815	298.5489
466.3455	287.534
466.5095	280.443
466.6734	264.2624
466.8374	256.8572
467.0014	264.1104
467.1653	271.3673
467.3293	278.8476
467.4932	284.8126
467.6571	294.5007
467.8211	291.0757
467.985	286.8126
468.1489	287.5974
468.3128	279.4333
468.4767	285.8062
468.6406	292.1983
468.8045	295.3908
468.9684	294.6636
469.1323	293.437
469.2962	288.2835
469.46	294.8329
469.6239	301.7093
469.7878	295.4166
469.9516	284.8311
470.1154	273.8807
470.2793	275.7453
470.4431	277.7686
470.607	277.2609
470.7708	289.7314
470.9346	281.8825
471.0984	286.2521
471.2622	298.2613
471.426	289.972
471.5898	289.1706
471.7536	293.6877
471.9174	307.3871
472.0811	307.1405
472.2449	302.2861
472.4087	311.0794
472.5724	304.2137
472.7362	303.0884
472.8999	291.1781
473.0637	294.7722
473.2274	294.9203
473.3911	289.1143
473.5548	289.7562
473.7185	295.5045
473.8822	301.5135
474.0459	299.4843
474.2096	305.7069
474.3733	292.8314
474.537	298.769
474.7007	305.9138
474.8643	305.0008
475.028	304.8805
475.1917	306.0911
475.3553	294.6755
475.519	289.2975
475.6826	295.5476
475.8463	289.8381
476.0099	295.4907
476.1735	295.4233
476.3371	285.114
476.5007	287.201
476.6643	281.9118
476.8279	286.7398
476.9915	294.1541
477.1551	297.0865
477.3187	303.7718
477.4823	301.8671
477.6458	311.1355
477.8094	303.1924
477.9729	298.8586
478.1365	307.9981
478.3	298.2149
478.4636	297.3282
478.6271	298.4123
478.7906	292.8531
478.9541	294.7639
479.1176	291.302
479.2812	302.9567
479.4447	309.7186
479.6082	306.55
479.7716	309.3174
479.9351	295.4051
480.0986	297.2046
480.2621	300.1628
480.4255	305.6691
480.589	307.6659
480.7524	302.742
480.9159	302.903
481.0793	296.9211
481.2428	301.6064
481.4062	309.8809
481.5696	313.9908
481.733	316.0529
481.8964	315.4534
482.0598	312.0026
482.2232	305.3837
482.3866	302.0857
482.55	301.5951
482.7134	306.1038
482.8768	312.9027
483.0401	305.399
483.2035	297.8307
483.3668	302.972
483.5302	309.0963
483.6935	313.3849
483.8568	302.8411
484.0202	293.191
484.1835	293.3129
484.3468	301.9461
484.5101	302.1612
484.6734	302.527
484.8367	306.5131
485	305.2644
485.1633	303.7753
485.3266	300.0224
485.4899	286.0418
485.6531	280.1326
485.8164	259.3196
485.9796	244.6958
486.1429	227.9552
486.3061	225.2419
486.4694	250.2597
486.6326	269.7047
486.7958	283.7961
486.959	276.6583
487.1223	275.0264
487.2855	271.9493
487.4486	275.5314
487.6118	288.4195
487.775	295.0111
487.9382	300.7919
488.1014	307.5696
488.2646	304.3938
488.4277	300.8735
488.5909	298.6439
488.754	292.6311
488.9171	289.1773
489.0803	278.9735
489.2434	283.5875
489.4066	298.4653
489.5697	310.1884
489.7328	316.7161
489.8959	315.0279
490.059	309.7082
490.2221	313.1969
490.3852	302.9806
490.5482	306.1551
490.7113	309.4869
490.8744	307.9899
491.0374	300.0687
491.2005	292.4606
491.3636	298.2844
491.5266	307.331
491.6896	306.3712
491.8527	283.6243
492.0157	268.7393
492.1787	275.4147
492.3417	283.9295
492.5047	301.9957
492.6677	310.9619
492.8307	318.5306
492.9937	313.2281
493.1567	313.2867
493.3196	310.0778
493.4826	302.5785
493.6456	291.0804
493.8085	288.5405
493.9715	294.8705
494.1344	301.9852
494.2974	313.7965
494.4603	318.4885
494.6232	314.8558
494.7861	314.158
494.949	311.1257
495.1119	317.8929
495.2748	326.1917
495.4377	320.9568
495.6006	306.5725
495.7635	287.6206
495.9264	295.9771
496.0892	318.149
496.2521	323.9317
496.4149	320.069
496.5778	314.772
496.7407	310.5246
496.9035	305.1819
497.0663	312.6055
497.2291	310.6798
497.3919	309.3764
497.5547	315.4583
497.7176	318.1794
497.8804	315.4739
498.0432	309.2227
498.2059	292.269
498.3687	284.2749
498.5315	294.0165
498.6942	308.2853
498.857	322.5997
499.0198	320.8001
499.1825	316.5997
499.3452	320.857
499.508	312.3267
499.6707	317.9705
499.8334	310.8431
499.9962	304.6277
500.1589	301.7216
500.3216	299.0078
500.4843	292.197
500.6469	296.8891
500.8096	299.7397
500.9723	305.0369
501.135	303.8504
501.2976	297.0128
501.4603	297.1513
501.623	293.5086
501.7856	293.3186
501.9482	300.2065
502.1109	307.7422
502.2735	301.204
502.4361	311.1129
502.5987	312.0291
502.7614	309.186
502.924	314.7575
503.0865	318.9542
503.2491	323.5567
503.4117	323.8824
503.5743	322.2002
503.7368	316.6729
503.8994	303.9994
504.062	289.321
504.2245	291.1573
504.3871	305.2137
504.5496	326.1066
504.7121	323.4314
504.8746	317.9839
505.0372	308.9492
505.1997	312.3988
505.3622	316.5819
505.5247	325.6594
505.6872	327.2744
505.8497	331.864
506.0121	337.0509
506.1746	336.0331
506.3371	328.2977
506.4995	325.8878
506.662	316.9953
506.8244	319.6935
506.9869	316.3991
507.1493	314.5848
507.3117	317.5601
507.4742	315.3053
507.6366	319.5423
507.799	309.5987
507.9614	305.5305
508.1238	295.4413
508.2862	302.66
508.4485	313.1548
508.6109	329.6089
508.7733	331.1963
508.9357	331.2881
509.098	331.5047
509.2604	331.6003
509.4227	335.3122
509.5851	327.6573
509.7474	314.3242
509.9097	308.4316
510.072	301.6584
510.2343	313.0992
510.3966	325.0233
510.5589	326.9736
510.7212	313.3896
510.8835	311.4068
511.0458	301.8382
511.2081	319.4805
511.3703	324.0622
511.5326	326.4763
511.6949	319.0574
511.8571	317.7844
512.0193	321.4796
512.1816	308.4073
512.3438	300.1971
512.506	304.1096
512.6682	298.4766
512.8304	302.4256
512.9926	306.368
513.1548	301.1365
513.317	306.0259
513.4792	314.2902
513.6414	309.5714
513.8035	301.7487
513.9657	295.7902
514.1279	290.3189
514.29	295.3872
514.4521	303.2686
514.6143	299.8781
514.7764	298.4286
514.9385	302.1818
515.1006	312.7993
515.2628	300.9812
515.4249	306.9649
515.587	309.714
515.7491	304.1858
515.9111	304.7508
516.0732	308.1095
516.2353	303.6895
516.3973	295.3994
516.5594	276.4604
516.7214	256.3659
516.8835	244.2192
517.0455	248.8922
517.2076	243.4333
517.3696	247.0837
517.5316	271.1501
517.6937	296.7755
517.8557	307.61
518.0176	296.234
518.1796	275.6785
518.3416	248.8735
518.5036	248.797
518.6656	267.984
518.8275	288.5704
518.9895	296.1648
519.1514	293.825
519.3134	292.7753
519.4753	292.3934
519.6373	295.2473
519.7992	295.8389
519.9611	303.5775
520.123	310.2898
520.2849	304.664
520.4468	300.4644
520.6087	294.3125
520.7706	288.234
520.9325	297.8547
521.0944	301.354
521.2562	309.5241
521.4181	311.4523
521.58	299.3815
521.7418	306.4445
521.9036	311.903
522.0655	310.1042
522.2273	316.5534
522.3891	312.5583
522.551	299.3255
522.7128	288.4801
522.8746	290.7978
523.0363	298.3735
523.1981	307.1789
523.3599	303.9151
523.5217	299.6554
523.6835	310.9347
523.8452	314.4724
524.007	323.2686
524.1687	324.3086
524.3304	320.8351
524.4922	326.034
524.6539	315.4811
524.8157	318.6488
524.9774	324.5735
525.1391	315.9176
525.3008	312.016
525.4625	308.2895
525.6241	308.773
525.7858	314.0751
525.9475	319.1341
526.1092	320.0634
526.2709	295.1791
526.4325	287.5735
526.5942	277.878
526.7558	275.3286
526.9174	275.9401
527.079	278.4412
527.2407	282.1507
527.4023	294.9725
527.5639	308.4755
527.7255	315.9178
527.8871	321.9635
528.0487	308.338
528.2103	308.8403
528.3718	310.1902
528.5334	309.6468
528.695	315.9255
528.8565	334.945
529.0181	340.6998
529.1796	338.5424
529.3412	333.7958
529.5027	332.1316
529.6642	321.5348
529.8257	322.9168
529.9872	309.1804
530.1487	310.5602
530.3102	318.7339
530.4717	325.2684
530.6332	328.2573
530.7947	339.2253
530.9562	336.0329
531.1176	332.8677
531.2791	332.5463
531.4405	324.5944
531.6019	324.766
531.7634	319.1169
531.9248	314.1447
532.0862	326.2338
532.2477	324.6682
532.4091	308.7425
532.5704	297.2932
532.7319	289.9186
532.8932	289.8536
533.0546	293.4254
533.216	303.4787
533.3774	318.1948
533.5388	319.7878
533.7001	317.855
533.8615	315.6043
534.0228	310.9037
534.1841	298.0984
534.3455	302.8648
534.5068	317.3637
534.6681	320.513
534.8293	305.0856
534.9907	303.5451
535.152	310.0167
535.3132	307.2105
535.4745	312.4121
535.6358	316.892
535.7971	327.6101
535.9583	306.7416
536.1196	317.328
536.2808	309.3489
536.4421	312.2513
536.6033	302.9086
536.7645	298.1293
536.9258	293.709
537.087	299.2778
537.2482	295.6994
537.4094	290.0004
537.5706	300.6839
537.7318	310.9317
537.8929	309.4343
538.0541	302.8316
538.2153	302.3496
538.3764	298.2088
538.5376	301.6571
538.6987	307.3784
538.8599	309.1236
539.021	304.3904
539.1821	300.5517
539.3432	293.6836
539.5043	291.8636
539.6655	288.5536
539.8265	284.8153
539.9876	290.3186
540.1487	301.2618
540.3098	287.9928
540.4708	284.6094
540.6319	286.338
540.793	279.3236
540.954	288.8734
541.1151	298.6222
541.2761	291.9128
541.4371	286.4551
541.5981	284.7889
541.7592	291.258
541.9202	297.1896
542.0812	298.052
542.2422	295.4793
542.4031	291.3888
542.5641	292.7536
542.7251	289.7611
542.886	283.4892
543.0471	287.0792
543.208	285.3775
543.369	287.8423
543.5298	298.251
543.6908	297.8423
543.8517	304.762
544.0126	303.4163
544.1736	307.4269
544.3345	299.9078
544.4954	292.805
544.6563	288.4899
544.8171	297.9263
544.978	293.3526
545.1389	297.9105
545.2997	299.1219
545.4606	292.2536
545.6215	288.9125
545.7823	292.0252
545.9432	299.1948
546.104	297.9546
546.2648	292.0121
546.4256	292.8474
546.5864	292.1916
546.7473	306.688
546.908	302.707
547.0688	295.0817
547.2296	297.5334
547.3904	292.1837
547.5511	289.4113
547.7119	283.9268
547.8727	280.5953
548.0334	289.4424
548.1942	294.8762
548.3549	289.4939
548.5156	298.683
548.6763	305.5064
548.837	297.3297
548.9977	300.7248
549.1584	303.2777
549.3192	301.7904
549.4798	304.7405
549.6405	294.7212
549.8011	286.0298
549.9619	292.2122
550.1225	299.9872
550.2831	300.8802
550.4438	293.3141
550.6044	299.203
550.765	299.5111
550.9257	290.6281
551.0863	295.7614
551.2469	292.7596
551.4075	291.1956
551.5681	293.8434
551.7287	292.7345
551.8893	296.8107
552.0498	301.5189
552.2104	304.3833
552.371	300.6136
552.5315	305.0305
552.6921	296.9116
552.8526	289.6419
553.0131	277.8622
553.1736	285.3951
553.3342	290.4944
553.4947	288.7455
553.6552	294.0038
553.8157	293.0892
553.9762	297.8522
554.1367	294.868
554.2971	297.4618
554.4576	292.4805
554.618	288.982
554.7785	289.01
554.939	291.4381
555.0994	293.831
555.2598	289.546
555.4203	288.9424
555.5807	287.536
555.7411	286.1165
555.9015	288.8972
556.0619	288.8387
556.2223	284.5769
556.3827	282.219
556.5431	285.0282
556.7034	281.8911
556.8638	278.1091
557.0242	278.9299
557.1845	280.4272
557.3448	273.1
557.5052	271.5293
557.6655	282.7596
557.8259	279.6656
557.9861	278.0942
558.1465	276.657
558.3068	282.4017
558.467	276.9572
558.6274	266.7596
558.7877	261.6906
558.9479	264.0512
559.1082	268.9219
559.2684	268.8109
559.4287	259.4903
559.5889	262.7239
559.7491	267.0167
559.9094	269.7987
560.0696	265.412
560.2299	257.1227
560.3901	258.1178
560.5502	268.7713
560.7104	280.0866
560.8707	281.8338
561.0308	282.3315
561.191	276.4745
561.3511	272.754
561.5114	264.2551
561.6714	262.027
561.8316	257.3268
561.9918	272.0036
562.1519	266.7602
562.312	261.0599
562.4722	268.1633
562.6323	261.8736
562.7924	262.4248
562.9525	278.7086
563.1125	281.0366
563.2726	280.8208
563.4327	270.0166
563.5928	267.3088
563.7528	262.8553
563.9129	265.0457
564.0729	265.4757
564.233	262.9861
564.393	262.5598
564.553	270.2604
564.7131	277.6168
564.873	282.5411
565.0331	271.9169
565.1931	271.0211
565.353	278.7876
565.5131	275.0283
565.673	267.7887
565.833	264.6991
565.9929	244.9335
566.1529	251.8647
566.3129	248.1785
566.4728	257.3232
566.6328	264.4581
566.7927	265.8669
566.9526	269.3001
567.1125	268.919
567.2724	271.3751
567.4323	270.6541
567.5922	267.5106
567.7521	263.3544
567.9119	263.9768
568.0718	263.4062
568.2317	260.0335
568.3915	256.0613
568.5514	259.5463
568.7112	261.7755
568.871	252.6241
569.0309	254.4484
569.1907	260.3426
569.3505	259.6328
569.5103	256.9337
569.6701	259.0384
569.8299	257.2563
569.9897	263.593
570.1495	256.2685
570.3092	249.1709
570.469	254.1425
570.6287	253.9859
570.7885	246.0981
570.9482	242.9458
571.108	238.7281
571.2677	245.274
571.4274	249.5919
571.5871	255.8082
571.7468	260.6986
571.9066	250.9729
572.0662	261.0146
572.2259	266.5543
572.3856	263.2652
572.5452	269.0405
572.7049	269.9262
572.8646	261.3154
573.0242	261.2126
573.1838	260.3093
573.3435	263.1799
573.5031	264.2322
573.6627	260.6833
573.8223	257.6881
573.9819	257.9614
574.1415	261.7907
574.3011	258.8936
574.4607	254.5938
574.6203	257.0833
574.7798	261.7596
574.9394	253.6546
575.099	254.2558
575.2585	250.8899
575.418	253.1896
575.5776	249.5687
575.7371	252.7548
575.8966	253.0218
576.0562	257.83
576.2156	252.3503
576.3751	250.7303
576.5346	253.2007
576.6941	261.0981
576.8536	257.9449
577.0131	260.0056
577.1725	252.3373
577.332	256.2351
577.4914	245.3235
577.6508	248.9791
577.8103	252.4997
577.9697	253.2047
578.1291	249.7668
578.2885	241.732
578.4479	245.0365
578.6073	239.6115
578.7667	242.3833
578.9261	250.6144
579.0854	251.4752
579.2448	246.0641
579.4042	246.132
579.5635	246.6792
579.7229	242.1161
579.8822	244.2281
580.0416	250.9829
580.2009	252.315
580.3602	250.5268
580.5195	247.3271
580.6788	246.4994
580.8381	247.6769
580.9974	250.7568
581.1566	253.6394
581.3159	251.0396
581.4752	245.2914
581.6345	250.4866
581.7937	245.438
581.9529	247.4532
582.1122	249.5459
582.2714	249.1846
582.4306	248.9476
582.5898	242.5555
582.749	239.6749
582.9082	242.5723
583.0674	242.4253
583.2266	247.3557
583.3857	246.8105
583.5449	244.3345
583.7041	243.2827
583.8633	246.8946
584.0224	249.2532
584.1815	243.503
584.3407	240.4603
584.4998	236.9504
584.6589	238.0013
584.818	235.7737
584.9771	235.6565
585.1362	239.5726
585.2953	238.0725
585.4544	227.4677
585.6135	227.1654
585.7725	225.4015
585.9316	225.2752
586.0906	227.1318
586.2497	230.843
586.4087	228.5794
586.5677	227.2688
586.7267	228.1394
586.8858	230.7067
587.0448	236.1037
587.2038	241.578
587.3628	231.4095
587.5218	224.5189
587.6807	226.4525
587.8397	227.5702
587.9987	213.7722
588.1577	212.8106
588.3166	227.445
588.4755	222.041
588.6345	210.3601
588.7934	212.5473
588.9523	207.3092
589.1112	194.3519
589.2701	192.6635
589.429	198.936
589.5879	197.0965
589.7468	197.4172
589.9056	207.1041
590.0645	211.5042
590.2234	211.4122
590.3822	205.7442
590.5411	211.1995
590.6999	212.2658
590.8588	211.0816
591.0176	218.31
591.1764	223.7928
591.3352	221.2225
591.494	209.408
591.6528	208.6548
591.8116	216.3189
591.9703	215.1526
592.1291	219.9546
592.2878	212.5539
592.4467	211.5321
592.6053	205.2632
592.7641	211.4174
592.9229	217.7345
593.0816	212.8392
593.2403	212.1926
593.399	215.127
593.5577	217.064
593.7164	213.6709
593.8751	215.3369
594.0338	212.7573
594.1924	215.6493
594.3511	217.4421
594.5098	210.914
594.6684	203.4981
594.8271	210.7078
594.9857	212.028
595.1443	206.9769
595.303	209.6698
595.4615	208.7178
595.6202	209.5479
595.7787	213.3766
595.9374	212.7139
596.0959	215.2228
596.2545	218.3116
596.4131	211.8849
596.5717	207.159
596.7302	210.342
596.8887	214.6518
597.0473	219.0309
597.2058	218.1742
597.3644	216.8378
597.5229	211.2567
597.6814	204.8154
597.8399	214.8785
597.9984	214.254
598.1569	209.2128
598.3154	209.2194
598.4738	213.4313
598.6323	212.0184
598.7908	207.1627
598.9492	208.5543
599.1076	212.6102
599.2661	210.2085
599.4245	213.134
599.5829	217.7682
599.7413	214.391
599.8997	215.2088
600.0581	212.2779
600.2165	208.9142
600.3749	203.5237
600.5333	215.3138
600.6917	214.8295
600.85	210.6
601.0084	204.1434
601.1667	203.0018
601.325	210.4526
601.4833	209.4089
601.6417	205.2205
601.8	206.4904
601.9583	202.9754
602.1166	209.2581
602.2749	208.1962
602.4332	202.6031
602.5914	201.8407
602.7498	211.3475
602.908	210.8278
603.0662	216.3014
603.2245	215.1533
603.3828	210.9984
603.541	212.1617
603.6992	212.0136
603.8574	204.8102
604.0156	206.4458
604.1738	213.8842
604.332	216.2561
604.4902	210.922
604.6484	205.6282
604.8065	206.3875
604.9647	201.7668
605.1229	209.3128
605.281	209.9159
605.4391	212.0285
605.5973	209.8998
605.7554	210.5783
605.9135	207.7495
606.0717	212.1749
606.2297	213.8556
606.3878	207.3307
606.5459	200.1667
606.704	205.5017
606.8621	211.3094
607.0201	209.9897
607.1782	211.5414
607.3362	208.9133
607.4943	212.8714
607.6523	213.7984
607.8104	211.3648
607.9684	208.0684
608.1264	204.3486
608.2844	205.9107
608.4424	203.1427
608.6003	204.1183
608.7584	203.2785
608.9163	200.7545
609.0743	201.1703
609.2322	202.8968
609.3902	200.4202
609.5482	200.6686
609.7061	203.9308
609.864	203.6535
610.0219	198.2389
610.1798	200.6242
610.3377	195.8036
610.4956	199.7659
610.6535	198.9055
610.8114	199.4475
610.9693	193.0641
611.1271	194.1596
611.285	199.7605
611.4429	198.8673
611.6007	197.931
611.7585	199.899
611.9164	195.439
612.0742	194.6481
612.232	189.7401
612.3898	188.6269
612.5476	192.3468
612.7054	194.4619
612.8632	195.1298
613.0209	206.57
613.1787	204.8327
613.3365	202.6335
613.4942	197.2531
613.652	193.3402
613.8097	190.3096
613.9674	191.1718
614.1252	191.0506
614.2829	188.6072
614.4406	192.144
614.5983	198.9229
614.756	191.017
614.9136	196.3272
615.0714	199.0554
615.229	193.1101
615.3867	192.08
615.5443	189.1249
615.702	192.8328
615.8596	187.0495
616.0172	188.7194
616.1748	184.9436
616.3325	185.4361
616.4901	188.5758
616.6476	182.2038
616.8052	183.574
616.9628	180.9068
617.1204	184.8857
617.278	181.3532
617.4355	182.187
617.5931	183.1296
617.7506	188.3521
617.9081	194.6246
618.0657	186.6135
618.2232	187.7193
618.3807	192.5732
618.5382	185.3699
618.6957	180.1026
618.8532	179.0215
619.0107	179.8577
619.1682	181.8644
619.3256	182.9882
619.4831	185.8481
619.6406	186.2532
619.798	183.018
619.9554	188.5185
620.1129	193.7163
620.2703	185.0362
620.4277	190.8696
620.5851	189.126
620.7425	181.6628
620.8998	180.1525
621.0573	186.7682
621.2146	194.9787
621.372	188.1739
621.5294	177.5579
621.6867	180.7231
621.8441	181.9182
622.0013	182.9391
622.1587	181.8583
622.316	176.4673
622.4733	181.6562
622.6306	179.1415
622.7879	181.4201
622.9452	176.869
623.1025	177.2205
623.2598	176.3544
623.4171	183.0396
623.5743	182.8049
623.7316	182.9816
623.8888	176.6869
624.046	177.4545
624.2032	179.5497
624.3605	178.8937
624.5176	171.851
624.6749	173.4761
624.8321	183.526
624.9893	181.0175
625.1464	176.0675
625.3036	175.659
625.4608	169.68
625.6179	175.0621
625.7751	179.1548
625.9322	176.2897
626.0894	174.8197
626.2465	178.2578
626.4036	178.7858
626.5607	174.3288
626.7178	172.3708
626.8749	174.5767
627.032	177.5924
627.189	180.956
627.3461	171.0485
627.5032	167.0228
627.6602	170.836
627.8173	173.9561
627.9743	167.8768
628.1313	168.8565
628.2884	171.7731
628.4454	171.4572
628.6024	174.7772
628.7594	179.6329
628.9164	176.3194
629.0734	172.9774
629.2303	174.992
629.3873	163.3299
629.5443	170.7074
629.7012	173.8663
629.8582	170.0383
630.0151	163.7946
630.172	165.2557
630.3289	166.7088
630.4858	168.031
630.6428	166.208
630.7996	169.0901
630.9565	173.6089
631.1134	173.6587
631.2703	170.0863
631.4272	169.5033
631.584	162.5314
631.7408	166.2963
631.8977	165.6858
632.0546	170.8542
632.2114	168.1243
632.3682	170.5611
632.525	176.1013
632.6818	165.4768
632.8386	166.3024
632.9954	171.0724
633.1522	176.7335
633.3089	174.2583
633.4657	174.0689
633.6224	164.4826
633.7792	160.4371
633.9359	168.1421
634.0927	170.3001
634.2494	163.8456
634.4061	168.8922
634.5628	164.6819
634.7195	163.6778
634.8762	171.9763
635.0329	173.7976
635.1895	172.1039
635.3462	173.5809
635.5029	172.1925
635.6595	176.1046
635.8162	167.0149
635.9728	166.4489
636.1295	164.2862
636.2861	167.3731
636.4427	166.2937
636.5992	164.847
636.7559	165.2047
636.9124	172.5592
637.069	168.9448
637.2256	172.8865
637.3821	169.3706
637.5387	168.8786
637.6953	167.2294
637.8518	174.5446
638.0084	166.4512
638.1649	161.8432
638.3214	159.0228
638.4779	167.996
638.6344	163.9385
638.7909	171.066
638.9474	161.2809
639.1038	162.1665
639.2603	167.323
639.4167	163.4869
639.5732	156.2109
639.7297	162.9435
639.8861	156.3678
640.0425	160.0443
640.199	157.164
640.3553	157.1918
640.5118	163.6116
640.6682	165.0509
640.8245	156.3228
640.981	158.7981
641.1373	159.4091
641.2936	161.4583
641.45	158.5263
641.6064	157.3828
641.7627	163.4271
641.9191	156.7577
642.0754	153.3456
642.2317	157.9817
642.388	159.7558
642.5443	162.9244
642.7006	162.7452
642.8569	161.4555
643.0131	159.6266
643.1694	157.9296
643.3257	158.8352
643.4819	160.2976
643.6382	156.842
643.7944	157.8978
643.9506	155.2613
644.1069	156.0901
644.2631	158.5795
644.4193	159.2112
644.5754	155.82
644.7316	156.7798
644.8878	158.015
645.044	158.6384
645.2002	153.3699
645.3563	158.5884
645.5125	155.2039
645.6686	147.7476
645.8248	146.5228
645.9809	148.2627
646.137	144.141
646.2931	147.8533
646.4492	145.7032
646.6053	140.8946
646.7614	145.7976
646.9174	149.0877
647.0735	146.1973
647.2296	147.5153
647.3856	150.9232
647.5417	146.4863
647.6977	145.5659
647.8537	146.904
648.0098	146.3798
648.1658	145.1459
648.3218	148.5414
648.4777	145.6667
648.6337	150.8924
648.7897	143.0219
648.9457	148.6574
649.1016	139.9461
649.2576	134.9232
649.4135	137.9656
649.5695	144.4475
649.7254	142.166
649.8813	138.5476
650.0372	141.839
650.1932	146.4697
650.3491	147.5314
650.5049	151.3406
650.6608	147.8351
650.8167	148.7306
650.9725	146.7721
651.1284	148.5812
651.2842	146.6128
651.4401	144.3106
651.5959	141.7414
651.7518	138.212
651.9076	140.4382
652.0634	141.0726
652.2192	141.3983
652.3749	148.5864
652.5308	145.8316
652.6865	144.4452
652.8423	145.4182
652.998	148.8047
653.1538	147.1689
653.3096	141.0638
653.4653	139.4348
653.621	141.9114
653.7767	146.0754
653.9324	147.5824
654.0881	141.9476
654.2438	143.5387
654.3995	143.1289
654.5552	137.6417
654.7109	140.1978
654.8665	146.7825
655.0222	141.8403
655.1778	137.2311
655.3334	130.9882
655.4891	134.5674
655.6447	132.3483
655.8003	133.483
655.9559	129.123
656.1115	113.4323
656.2671	109.0955
656.4227	112.0759
656.5782	115.0145
656.7338	125.8329
656.8893	126.264
657.0449	136.4871
657.2004	138.1033
657.356	132.0525
657.5115	132.6513
657.667	136.6678
657.8225	141.5468
657.978	144.6883
658.1335	145.6736
658.289	140.9621
658.4445	137.8209
658.5999	140.6418
658.7554	135.2193
658.9108	139.7086
659.0663	136.915
659.2217	138.7861
659.3771	137.0184
659.5325	138.0902
659.6879	142.0379
659.8433	139.841
659.9987	136.558
660.1541	139.8836
660.3095	140.8046
660.4648	138.3945
660.6202	136.0693
660.7756	141.0574
660.9309	146.1513
661.0862	135.2991
661.2416	139.9319
661.3969	139.6131
661.5522	138.5464
661.7075	146.4064
661.8628	144.0238
662.0181	140.8579
662.1733	140.2118
662.3286	138.5569
662.4839	136.3548
662.6391	137.9811
662.7944	139.2645
662.9496	143.2454
663.1048	139.8568
663.26	128.8005
663.4152	137.9379
663.5704	137.4847
663.7256	136.5439
663.8808	135.5271
664.036	142.9148
664.1912	145.669
664.3463	142.0959
664.5015	137.9386
664.6566	135.9182
664.8118	138.6575
664.9669	137.9678
665.122	144.2864
665.2771	150.2227
665.4322	140.8452
665.5873	139.9837
665.7424	140.1434
665.8975	138.1079
666.0526	141.1992
666.2076	140.6207
666.3627	132.6006
666.5177	130.6005
666.6727	132.0021
666.8278	130.7861
666.9828	136.181
667.1378	142.0023
667.2928	137.2771
667.4478	139.2774
667.6028	134.1627
667.7578	124.2508
667.9127	127.7926
668.0677	131.5934
668.2226	141.6921
668.3776	137.7723
668.5325	135.8242
668.6874	139.3327
668.8423	137.9542
668.9973	137.5151
669.1522	136.1198
669.3071	137.0444
669.4619	139.8638
669.6168	141.6099
669.7717	132.5329
669.9265	127.683
670.0814	135.4118
670.2362	138.3549
670.3911	128.5564
670.5459	136.3922
670.7007	135.8906
670.8555	129.3192
671.0103	133.8819
671.1651	135.3353
671.3199	129.364
671.4747	127.2411
671.6295	125.9353
671.7842	127.6828
671.939	128.7481
672.0937	126.2732
672.2484	128.3493
672.4031	126.487
672.5579	127.6715
672.7126	128.5388
672.8673	124.8219
673.022	131.0956
673.1767	128.5251
673.3314	132.1205
673.486	131.6939
673.6407	131.7198
673.7953	130.3061
673.95	128.6855
674.1046	136.1783
674.2592	135.6805
674.4138	129.126
674.5684	122.2648
674.723	123.0297
674.8776	122.3634
675.0322	125.9172
675.1868	131.2038
675.3414	126.4622
675.4959	126.3372
675.6505	125.7858
675.805	122.744
675.9595	129.2076
676.1141	126.5836
676.2686	129.0538
676.4231	123.7409
676.5776	121.0883
676.7321	132.7816
676.8866	122.6909
677.041	126.4475
677.1955	127.4265
677.35	122.6074
677.5044	123.0747
677.6589	123.8785
677.8133	130.1881
677.9677	132.0443
678.1221	127.8178
678.2766	126.1917
678.4309	128.9547
678.5853	119.5974
678.7397	123.0897
678.8941	121.8271
679.0485	120.5432
679.2028	124.1758
679.3571	123.5074
679.5115	124.3213
679.6658	127.367
679.8201	121.4146
679.9744	122.2397
680.1288	114.9652
680.2831	115.7191
680.4373	119.2391
680.5916	120.1191
680.7459	117.176
680.9001	120.0522
681.0544	116.2656
681.2087	112.2903
681.3629	123.3598
681.5171	119.2203
681.6713	118.8081
681.8256	116.096
681.9797	114.0208
682.134	125.6235
682.2881	120.1521
682.4423	115.9085
682.5965	116.8217
682.7507	117.1466
682.9048	111.525
683.059	112.4431
683.2131	116.173
683.3672	119.7188
683.5213	115.1204
683.6754	115.8214
683.8295	111.7004
683.9836	115.3754
684.1377	113.4513
684.2918	106.333
684.4459	110.152
684.5999	111.8486
684.754	110.7145
684.908	109.6386
685.062	111.0443
685.2161	110.671
685.3701	106.2976
685.5241	109.87
685.6781	113.1762
685.8321	109.3631
685.9861	116.7065
686.14	116.7481
686.294	113.6957
686.4479	110.747
686.6019	105.1186
686.7559	96.82641
686.9098	87.60047
687.0637	78.57922
687.2176	81.58572
687.3715	84.18195
687.5254	81.75724
687.6793	85.092
687.8332	95.30518
687.9871	90.43359
688.1409	95.88786
688.2947	102.1113
688.4486	95.55524
688.6024	97.44938
688.7563	97.58732
688.9101	93.67381
689.0639	95.52647
689.2177	93.44054
689.3715	89.31264
689.5253	90.79962
689.6791	93.07135
689.8328	92.6197
689.9866	92.6205
690.1403	97.42509
690.2941	92.84725
690.4478	91.60588
690.6015	92.85783
690.7552	98.68684
690.9089	98.9143
691.0626	95.40445
691.2164	96.78764
691.37	93.31133
691.5237	95.67407
691.6774	96.30924
691.831	98.50275
691.9847	102.383
692.1383	98.72053
692.2919	93.70987
692.4456	98.36349
692.5992	96.82419
692.7527	96.98844
692.9064	99.27789
693.0599	97.77573
693.2136	92.16123
693.3671	98.17684
693.5207	101.1348
693.6742	94.6296
693.8278	93.94823
693.9813	93.58328
694.1348	94.56013
694.2883	89.5919
694.4418	90.77184
694.5953	93.29102
694.7488	100.4988
694.9023	92.30074
695.0558	94.61345
695.2093	94.49817
695.3627	93.46122
695.5162	97.7549
695.6696	94.76927
695.8231	92.44473
695.9764	93.40222
696.1299	98.87695
696.2833	101.2735
696.4367	101.3963
696.5901	99.07227
696.7435	101.2918
696.8968	93.65673
697.0502	97.27622
697.2036	96.42858
697.3569	96.65862
697.5102	96.83902
697.6635	92.96109
697.8168	93.31872
697.9702	91.97756
698.1235	101.2835
698.2768	91.3056
698.4301	90.09443
698.5833	88.0268
698.7366	90.54144
698.8898	95.82828
699.0431	96.05114
699.1964	92.28008
699.3495	94.25876
699.5028	96.91313
699.656	98.39316
699.8092	98.34964
699.9624	96.74646
700.1156	94.04433
700.2688	90.71266
700.4219	89.93678
700.5751	87.66694
700.7283	90.79587
700.8814	94.34824
701.0345	88.59716
701.1877	92.94598
701.3408	97.74709
701.4939	91.79182
701.647	91.96926
701.8001	94.0181
701.9532	90.4786
702.1063	90.32796
702.2593	89.26443
702.4124	90.97453
702.5654	90.13864
702.7184	90.93778
702.8715	89.10765
703.0245	98.0339
703.1776	100.8972
703.3305	92.04649
703.4835	96.7697
703.6365	93.52733
703.7895	93.2338
703.9424	94.39854
704.0954	94.58261
704.2484	94.33315
704.4013	90.83078
704.5543	90.33954
704.7072	97.41064
704.8601	91.50164
705.013	90.55344
705.1659	89.42201
705.3188	95.3568
705.4717	92.65204
705.6246	97.48672
705.7774	90.93483
705.9303	94.12099
706.0831	91.95168
706.236	93.03536
706.3888	90.06548
706.5416	98.12055
706.6944	97.72246
706.8472	97.2859
707	92.60551
707.1528	90.86123
707.3056	89.16538
707.4583	89.43021
707.6111	89.16101
707.7639	93.55297
707.9166	94.57793
708.0693	93.10341
708.222	88.62034
708.3748	94.90695
708.5275	95.6181
708.6802	95.81552
708.8328	90.80643
708.9855	91.00014
709.1382	88.76536
709.2909	92.0943
709.4435	90.06711
709.5962	92.1963
709.7488	94.28426
709.9014	95.17274
710.054	90.7996
710.2067	89.63126
710.3593	90.36898
710.5118	101.4557
710.6644	97.88964
710.817	95.75764
710.9695	95.73967
711.1221	87.93494
711.2747	87.2598
711.4272	89.31834
711.5797	91.84549
711.7322	87.94781
711.8848	90.07816
712.0373	88.42686
712.1898	89.63017
712.3422	91.30885
712.4948	88.38618
712.6472	92.84942
712.7996	89.10033
712.9521	90.30643
713.1046	88.0834
713.257	84.06631
713.4094	83.15416
713.5618	89.64654
713.7142	87.80615
713.8666	89.72292
714.019	89.68695
714.1714	90.79774
714.3237	86.93759
714.4761	86.19624
714.6285	88.43921
714.7808	83.41716
714.9331	82.99033
715.0854	81.51124
715.2378	83.42332
715.3901	83.62962
715.5424	83.67725
715.6947	88.52583
715.8469	88.54567
715.9992	87.0414
716.1515	89.17465
716.3037	85.24311
716.456	81.3632
716.6082	76.14198
716.7604	72.80054
716.9127	77.07199
717.0649	71.10816
717.2171	72.20969
717.3693	68.50112
717.5214	67.80482
717.6736	74.22878
717.8258	75.29497
717.978	71.44581
718.1301	70.56247
718.2822	69.96008
718.4344	69.38766
718.5865	72.98314
718.7386	68.0413
718.8907	70.06961
719.0428	73.91946
719.1949	73.32462
719.3469	63.0624
719.499	68.15229
719.6511	72.15033
719.8031	76.17349
719.9551	69.85325
720.1072	69.47507
720.2592	65.96966
720.4112	73.07301
720.5632	70.73813
720.7152	63.33078
720.8672	68.35184
721.0192	69.97542
721.1711	76.45785
721.3231	82.42637
721.475	81.13048
721.627	77.99513
721.7789	78.62538
721.9308	83.13925
722.0828	79.91956
722.2347	80.14089
722.3866	81.13422
722.5385	79.37294
722.6903	75.1132
722.8422	77.61659
722.9941	78.02303
723.1459	73.72938
723.2977	71.81978
723.4496	68.12109
723.6014	72.44321
723.7532	67.91724
723.905	69.50812
724.0568	72.24425
724.2086	69.44916
724.3604	66.84955
724.5121	72.95932
724.6639	74.90102
724.8157	73.2379
724.9674	71.41657
725.1191	69.4109
725.2709	69.77721
725.4226	63.56838
725.5743	71.99685
725.726	71.53745
725.8777	71.93373
726.0294	66.58234
726.181	73.4229
726.3327	75.96228
726.4844	67.51393
726.636	60.61777
726.7877	68.95965
726.9393	76.00104
727.0909	74.82407
727.2425	76.88554
727.3941	69.39355
727.5457	66.09457
727.6973	73.09687
727.8488	65.09819
728.0004	74.8252
728.1519	74.07079
728.3035	74.53316
728.455	72.74198
728.6066	73.00497
728.7581	71.58776
728.9095	69.67942
729.0611	63.55995
729.2126	65.60446
729.364	71.18489
729.5155	71.44821
729.667	72.84445
729.8184	80.79874
729.9698	77.75578
730.1213	69.80476
730.2727	70.75214
730.4241	71.55189
730.5756	72.74358
730.7269	64.79729
730.8784	67.70138
731.0297	70.57835
731.1811	68.94746
731.3325	69.71629
731.4838	71.00941
731.6351	74.04861
731.7865	72.58917
731.9378	71.56161
732.0891	70.63945
732.2404	71.99724
732.3917	69.34724
732.543	77.18623
732.6943	76.07741
732.8456	76.7943
732.9968	74.21092
733.1481	76.75036
733.2993	78.79588
733.4506	82.39503
733.6018	74.60879
733.753	78.3309
733.9042	76.5094
734.0554	77.23392
734.2066	82.25641
734.3578	78.76029
734.509	77.04617
734.6602	77.03307
734.8113	78.99929
734.9624	78.64085
735.1136	69.27412
735.2647	73.21009
735.4158	76.77754
735.5669	76.56881
735.718	74.50648
735.8691	71.42606
736.0201	78.85647
736.1713	76.33482
736.3223	74.70541
736.4733	75.34308
736.6244	77.60119
736.7755	76.92943
736.9265	72.69338
737.0775	75.24117
737.2285	74.56313
737.3795	75.01819
737.5305	74.31163
737.6815	74.04961
737.8324	73.52148
737.9834	76.22005
738.1343	73.71165
738.2853	70.30515
738.4362	73.26342
738.5871	68.62933
738.738	74.00523
738.8889	82.84068
739.0399	72.35144
739.1907	68.94462
739.3416	70.00088
739.4925	66.93631
739.6433	70.09193
739.7942	74.41673
739.945	75.62692
740.0958	74.03345
740.2467	76.83286
740.3975	77.47357
740.5483	75.53945
740.6991	71.76482
740.8499	72.40794
741.0007	73.16068
741.1514	68.38612
741.3022	72.72403
741.4529	73.42391
741.6036	73.10373
741.7544	76.13385
741.9051	72.66543
742.0558	79.22771
742.2065	74.00259
742.3572	65.55511
742.5079	68.98657
742.6586	71.77802
742.8093	72.09858
742.9599	76.14691
743.1105	76.2491
743.2612	69.87791
743.4118	71.8727
743.5624	75.4467
743.7131	77.3475
743.8636	71.35388
744.0142	73.9171
744.1648	73.83472
744.3154	67.2043
744.4659	70.57121
744.6165	71.4651
744.767	75.3854
744.9176	73.34451
745.0681	73.47762
745.2186	69.94308
745.3691	68.79462
745.5197	70.10774
745.6702	71.1704
745.8206	72.53291
745.9711	74.98773
746.1215	73.60182
746.272	74.92605
746.4224	67.76533
746.5729	63.11026
746.7233	63.73909
746.8737	66.28222
747.0241	70.5303
747.1745	70.88492
747.3249	77.31374
747.4753	68.71094
747.6257	68.30647
747.776	70.84308
747.9264	70.80524
748.0767	73.19073
748.2271	72.58033
748.3774	69.38609
748.5276	69.09975
748.678	70.36929
748.8282	70.68463
748.9786	69.43076
749.1288	68.28606
749.2791	66.06789
749.4294	65.91249
749.5796	72.08948
749.7299	68.0875
749.8801	69.56699
750.0303	65.59187
750.1805	63.22507
750.3307	59.27629
750.4809	65.89548
750.6311	67.15519
750.7813	63.92765
750.9314	61.01152
751.0816	61.41976
751.2318	65.39599
751.3818	68.36395
751.532	66.22092
751.6821	70.30871
751.8322	66.69589
751.9823	68.8415
752.1324	66.31097
752.2825	63.82431
752.4326	61.28913
752.5826	59.66369
752.7327	58.82028
752.8827	66.99015
753.0327	69.03718
753.1827	58.70454
753.3328	62.51057
753.4828	63.03178
753.6328	68.21854
753.7828	67.81923
753.9327	67.17404
754.0827	68.24647
754.2327	59.49562
754.3826	60.30683
754.5325	66.94797
754.6825	70.32624
754.8324	65.40675
754.9823	65.02801
755.1322	60.33478
755.2821	61.64592
755.432	62.62184
755.5818	63.63811
755.7318	65.16235
755.8816	63.00537
756.0314	68.26866
756.1813	66.5499
756.3311	59.42511
756.4809	63.71257
756.6307	59.29501
756.7805	61.06561
756.9303	64.15214
757.0801	64.10032
757.2299	55.16647
757.3796	54.13187
757.5294	60.26097
757.6791	62.14739
757.8289	63.45118
757.9786	60.44885
758.1283	60.22857
758.278	63.58631
758.4277	65.7838
758.5773	59.08268
758.7271	62.04269
758.8767	54.31248
759.0264	53.86613
759.176	56.07475
759.3256	51.33167
759.4753	43.56851
759.6249	34.41867
759.7745	33.28778
759.9241	28.70522
760.0737	30.28804
760.2233	25.90936
760.3729	21.4208
760.5224	21.62805
760.6719	23.26696
760.8215	22.09549
760.971	22.519
761.1205	22.12102
761.2701	25.37727
761.4196	30.14559
761.5691	37.0674
761.7186	43.31345
761.868	39.21484
762.0175	39.1
762.167	42.03313
762.3164	36.94005
762.4659	32.29137
762.6153	38.1556
762.7647	35.09486
762.9141	34.26781
763.0635	31.20992
763.2129	33.12477
763.3623	34.18189
763.5117	30.67851
763.661	32.70115
763.8104	31.72515
763.9597	30.49671
764.1091	32.68192
764.2584	38.06939
764.4077	37.72362
764.557	31.93344
764.7063	33.76579
764.8556	34.35441
765.0049	34.93521
765.1541	38.50118
765.3034	36.60123
765.4526	43.25551
765.6019	46.9846
765.7511	44.78062
765.9003	43.35797
766.0496	43.23299
766.1987	45.66634
766.348	42.82716
766.4971	42.47343
766.6463	45.32113
766.7955	50.04613
766.9446	50.22737
767.0938	48.8845
767.2429	47.46947
767.392	47.16894
767.5411	48.7595
767.6902	53.15968
767.8394	49.78698
767.9884	51.1435
768.1375	54.73516
768.2866	48.20465
768.4356	52.26397
768.5847	48.1138
768.7337	55.88155
768.8828	52.76143
769.0317	55.07228
769.1808	50.42739
769.3298	46.1204
769.4788	47.77621
769.6277	49.43611
769.7767	46.74262
769.9257	48.76221
770.0746	48.55224
770.2236	52.70876
770.3725	54.1242
770.5214	53.57243
770.6703	50.47226
770.8193	55.93319
770.9681	50.03736
771.1171	46.45276
771.2659	50.96595
771.4148	44.0871
771.5637	48.34128
771.7125	52.31137
771.8613	46.71779
772.0101	50.61699
772.159	45.78326
772.3078	48.22629
772.4566	48.01998
772.6054	49.3675
772.7542	49.3545
772.903	47.32676
773.0517	48.66954
773.2004	47.89661
773.3492	46.34999
773.4979	47.08924
773.6467	44.13889
773.7953	44.78577
773.944	48.38691
774.0928	47.88155
774.2415	48.21429
774.3901	45.43633
774.5388	44.21505
774.6874	50.00471
774.8361	49.54902
774.9847	47.07002
775.1334	44.8049
775.282	46.05368
775.4305	44.03584
775.5792	47.48944
775.7277	45.09831
775.8763	49.74324
776.0249	45.73175
776.1735	46.49165
776.322	49.7331
776.4705	50.48916
776.6191	51.13479
776.7676	48.25797
776.9161	47.21948
777.0646	44.85463
777.2131	46.3145
777.3616	41.75764
777.5101	40.35958
777.6585	38.30679
777.8069	47.60555
777.9554	47.59846
778.1038	45.27151
778.2523	47.25742
778.4007	46.15242
778.5491	44.20192
778.6974	43.02394
778.8459	44.04655
778.9942	48.8534
779.1426	45.19161
779.291	46.75222
779.4393	48.58709
779.5876	46.80809
779.736	46.74457
779.8843	46.788
780.0326	44.27496
780.1809	42.52874
780.3292	46.55045
780.4775	45.59895
780.6257	47.29249
780.774	51.02878
780.9222	44.70652
781.0704	41.92637
781.2187	43.68387
781.3669	38.53873
781.5151	43.34454
781.6633	41.29301
781.8115	42.28644
781.9597	44.56046
782.1078	43.42822
782.256	42.01332
782.4042	47.79821
782.5523	43.49625
782.7004	44.90495
782.8486	40.83987
782.9967	43.61906
783.1448	42.14858
783.2929	42.87565
783.441	41.74607
783.5891	43.18169
783.7371	44.26687
783.8851	41.33961
784.0332	43.87259
784.1812	42.5298
784.3293	44.53129
784.4773	48.78698
784.6253	45.23758
784.7733	42.45315
784.9213	44.33704
785.0692	35.02347
785.2172	42.39673
785.3652	43.69112
785.5131	46.99714
785.6611	37.06443
785.809	37.58203
785.9569	42.43205
786.1048	44.59622
786.2527	47.83485
786.4006	44.9592
786.5485	41.65353
786.6964	39.4841
786.8442	42.09984
786.9921	43.57407
787.1399	46.11034
787.2877	39.58602
787.4355	38.66353
787.5833	39.82986
787.7311	41.74985
787.8789	43.72918
788.0267	39.6961
788.1745	45.99268
788.3223	45.75628
788.47	41.10995
788.6177	42.09902
788.7654	42.92996
788.9132	43.70249
789.0609	43.28233
789.2086	38.62331
789.3563	41.15435
789.504	42.58014
789.6517	36.63219
789.7993	42.95029
789.947	38.70464
790.0946	36.11098
790.2422	34.39959
790.3898	42.44534
790.5375	39.9626
790.6851	39.48871
790.8326	40.30228
790.9802	38.4419
791.1278	40.12201
791.2754	43.50079
791.423	41.93671
791.5705	37.98248
791.718	34.96358
791.8655	33.03562
792.0131	36.96043
792.1606	39.37421
792.308	35.15611
792.4556	40.08305
792.603	38.38207
792.7505	39.84892
792.8979	41.41097
793.0454	37.86554
793.1928	36.90894
793.3403	38.27071
793.4877	43.00415
793.6351	38.86926
793.7825	31.90425
793.9299	36.89968
794.0772	40.14452
794.2246	36.75508
794.3719	35.96412
794.5193	32.75893
794.6666	35.55216
794.814	39.43595
794.9613	37.48365
795.1086	34.79063
795.2559	36.38541
795.4032	36.03941
795.5505	36.29167
795.6978	37.95618
795.845	33.36325
795.9922	38.68015
796.1395	40.47446
796.2867	39.10356
796.4339	39.91991
796.5811	40.19901
796.7283	41.59579
796.8755	37.84262
797.0227	39.27482
797.1699	36.8871
797.317	33.75169
797.4642	34.5238
797.6113	37.62655
797.7584	33.85524
797.9056	37.37818
798.0527	37.38807
798.1998	41.27528
798.3469	35.90355
798.494	32.73099
798.641	35.38515
798.7881	33.12772
798.9351	35.16969
799.0822	35.34286
799.2292	35.44152
799.3762	39.58957
799.5232	37.97398
799.6702	34.97822
799.8172	34.53504
799.9642	34.66322
800.1111	35.76263
800.2581	34.59306
800.4051	32.78989
800.552	31.36421
800.6989	35.87132
800.8458	34.31712
800.9927	32.80712
801.1396	39.23025
801.2866	38.37329
801.4334	32.66603
801.5803	31.23408
801.7272	29.9146
801.874	31.43206
802.0209	34.31556
802.1677	33.87151
802.3145	36.60881
802.4613	36.44176
802.6081	31.10386
802.7549	30.03839
802.9017	33.89255
803.0485	29.18172
803.1952	33.75587
803.342	33.11068
803.4887	32.58233
803.6354	31.68719
803.7822	33.51132
803.9289	34.97751
804.0756	31.39283
804.2223	30.63349
804.369	33.3422
804.5156	35.33334
804.6623	31.54122
804.8089	28.92079
804.9556	35.36756
805.1022	35.76793
805.2488	34.84108
805.3954	31.60068
805.542	34.24113
805.6886	30.39589
805.8352	33.84244
805.9818	34.44933
806.1283	30.37024
806.2749	29.30148
806.4214	32.44025
806.5679	36.84252
806.7145	36.88187
806.861	32.45003
807.0074	33.87127
807.154	34.11285
807.3004	33.05126
807.4469	31.96133
807.5934	30.49388
807.7398	34.98889
807.8862	28.92855
808.0327	29.37469
808.1791	31.13154
808.3255	30.44446
808.4719	27.24327
808.6183	23.42534
808.7647	30.15632
808.9111	28.45351
809.0574	28.07818
809.2037	31.73541
809.3501	27.37811
809.4965	26.71302
809.6428	32.27367
809.7891	26.82967
809.9354	32.43223
810.0817	28.80774
810.2279	26.0338
810.3742	26.64725
810.5204	29.37389
810.6667	31.05145
810.8129	29.73895
810.9592	29.88777
811.1054	30.58284
811.2516	29.12995
811.3978	29.92924
811.5439	33.32905
811.6901	30.49478
811.8363	31.35846
811.9825	28.2021
812.1286	29.05477
812.2748	30.06237
812.4209	29.99102
812.567	22.91958
812.7131	24.80424
812.8592	24.88746
813.0053	22.57104
813.1514	26.72571
813.2974	22.76109
813.4435	23.29485
813.5895	19.93252
813.7356	22.23062
813.8816	24.90731
814.0276	23.59704
814.1736	25.1752
814.3196	25.71085
814.4656	24.80053
814.6116	23.87146
814.7576	20.45154
814.9035	25.02156
815.0494	25.07985
815.1954	22.19662
815.3413	20.39029
815.4872	26.17832
815.6331	23.00954
815.779	21.69829
815.9249	18.29982
816.0707	22.62771
816.2166	23.19851
816.3625	23.246
816.5083	21.47429
816.6542	23.26276
816.8	22.16788
816.9458	26.18157
817.0916	23.33424
817.2374	23.05227
817.3832	22.91249
817.5289	20.10719
817.6747	23.71596
817.8204	23.05708
817.9662	21.6766
818.1119	22.44887
818.2576	16.22905
818.4034	22.54516
818.5491	28.55862
818.6948	22.98978
818.8405	23.76206
818.9861	24.86432
819.1318	23.20655
819.2774	24.84286
819.423	26.07954
819.5687	19.99033
819.7143	17.6459
819.8599	18.31762
820.0055	16.32171
820.1511	20.59422
820.2967	26.77318
820.4422	28.93917
820.5878	25.81698
820.7333	27.30617
820.8788	26.47409
821.0244	26.61052
821.1699	22.02677
821.3154	20.77298
821.4609	20.36666
821.6064	21.72787
821.7519	21.09058
821.8973	25.20981
822.0428	26.16454
822.1882	22.95051
822.3337	20.53214
822.4791	17.98089
822.6245	18.78725
822.7699	18.36036
822.9153	14.75478
823.0607	18.48115
823.2061	20.84812
823.3514	16.01393
823.4968	19.1025
823.6422	18.53518
823.7875	23.89937
823.9328	20.53646
824.0781	22.09752
824.2234	22.17159
824.3687	21.83538
824.514	26.96157
824.6592	18.31346
824.8045	21.06584
824.9498	25.69407
825.095	23.36304
825.2402	25.46961
825.3854	25.49671
825.5306	23.46036
825.6758	25.17813
825.821	20.46525
825.9662	22.59361
826.1114	20.31884
826.2565	26.9762
826.4017	25.57232
826.5468	19.86272
826.692	20.2774
826.837	21.4908
826.9822	27.1622
827.1273	26.8775
827.2723	23.71282
827.4174	19.69732
827.5625	21.93687
827.7075	21.42089
827.8526	19.10385
827.9976	20.87708
828.1426	20.65722
828.2877	22.34635
828.4327	22.91097
828.5776	22.78226
828.7227	23.03332
828.8676	19.47249
829.0126	19.60785
829.1575	19.17901
829.3024	22.42237
829.4474	20.18271
829.5923	17.50891
829.7372	20.72832
829.8821	24.44674
830.027	19.62475
830.1719	20.09473
830.3168	21.98984
830.4616	23.1616
830.6064	21.49886
830.7513	22.83468
830.8961	17.7867
831.041	20.1559
831.1857	22.04584
831.3306	21.10978
831.4753	19.67184
831.6201	19.86485
831.7649	19.21408
831.9096	22.87462
832.0544	20.33653
832.1991	17.45351
832.3438	19.90378
832.4885	23.22906
832.6332	19.47042
832.778	18.63437
832.9226	17.44988
833.0673	23.03096
833.2119	18.12792
833.3566	22.14189
833.5012	21.43591
833.6459	21.1487
833.7905	23.91749
833.9351	16.98772
834.0797	20.25876
834.2243	19.89624
834.3688	17.77555
834.5134	24.54383
834.658	26.02233
834.8026	22.49611
834.9471	24.35382
835.0916	25.71217
835.2361	20.77194
835.3806	18.45955
835.5251	13.95067
835.6696	21.43817
835.8141	28.66913
835.9586	23.81554
836.103	22.9768
836.2474	22.22508
836.3918	22.83152
836.5363	27.53529
836.6807	26.86469
836.8251	24.00358
836.9695	21.60488
837.1138	18.09751
837.2582	21.07043
837.4026	21.98915
837.5469	23.68447
837.6913	20.21665
837.8356	20.94321
837.9799	21.66426
838.1242	18.82813
838.2686	16.69224
838.4128	21.99707
838.5571	20.39872
838.7014	22.12399
838.8456	18.63552
838.9899	17.6148
839.1341	24.35112
839.2783	27.88227
839.4225	19.22408
839.5667	16.70726
839.7109	19.50078
839.8551	18.81532
839.9993	19.95875
840.1434	18.34937
840.2876	24.38432
840.4317	22.87627
840.5759	18.15848
840.72	23.52698
840.8641	23.75682
841.0082	22.05844
841.1523	18.47135
841.2963	20.50005
841.4404	23.31342
841.5845	17.96244
841.7285	17.39171
841.8726	17.79649
842.0165	18.62881
842.1606	21.14765
842.3046	26.07634
842.4485	22.77831
842.5925	19.6599
842.7365	21.51085
842.8805	17.40021
843.0244	17.08203
843.1684	20.82487
843.3123	22.16854
843.4562	21.63977
843.6002	19.60474
843.744	20.6677
843.8879	20.97208
844.0318	18.47717
844.1757	25.30252
844.3195	22.31755
844.4634	20.83239
844.6072	20.96179
844.751	20.55023
844.8948	20.23503
845.0386	21.4087
845.1824	19.26205
845.3262	22.82574
845.47	19.19877
845.6138	17.38723
845.7575	20.85068
845.9012	21.13806
846.045	17.17645
846.1887	20.80677
846.3324	21.44654
846.4761	14.50894
846.6198	17.64143
846.7635	18.90463
846.9071	16.23059
847.0508	15.78271
847.1944	16.17957
847.3381	20.74001
847.4817	19.43395
847.6253	17.10562
847.7689	18.7824
847.9125	20.98683
848.0561	19.27769
848.1996	19.15721
848.3432	16.3168
848.4868	18.78334
848.6303	16.89552
848.7738	15.03909
848.9174	14.0899
849.0609	17.55689
849.2043	14.90329
849.3478	15.97158
849.4913	18.63681
849.6348	16.23144
849.7782	15.25747
849.9217	18.40601
850.0651	16.03938
850.2086	13.27976
850.3519	14.28529
850.4954	16.48997
850.6387	18.43733
850.7821	18.98836
850.9255	19.16203
851.0688	19.42221
851.2122	16.24957
851.3555	20.63874
851.4988	21.07093
851.6422	17.0807
851.7855	16.15033
851.9288	15.70526
852.0721	17.25809
852.2153	17.91947
852.3586	20.00388
852.5018	15.89292
852.6451	14.43205
852.7883	17.38534
852.9315	17.79257
853.0748	18.31925
853.218	18.93843
853.3611	15.91933
853.5043	16.08391
853.6475	14.1621
853.7906	15.49656
853.9338	14.63957
854.0769	15.40048
854.22	15.54357
854.3632	13.1063
854.5063	11.84651
854.6494	11.33449
854.7924	16.80857
854.9355	17.09156
855.0786	18.15418
855.2216	20.57845
855.3647	20.23177
855.5077	20.08337
855.6507	17.60879
855.7937	15.10728
855.9367	19.04252
856.0797	18.14158
856.2227	16.20327
856.3657	16.56005
856.5086	16.97473
856.6516	11.96719
856.7945	16.15654
856.9374	19.08627
857.0803	13.91391
857.2232	18.39705
857.3661	16.9386
857.509	18.5077
857.6519	18.41102
857.7947	19.06702
857.9376	20.83629
858.0804	17.0485
858.2232	19.63896
858.366	17.9984
858.5089	14.51633
858.6516	12.85334
858.7944	17.72661
858.9372	15.78106
859.08	15.25033
859.2227	16.65282
859.3654	19.29127
859.5082	17.16249
859.6509	19.28887
859.7936	15.51349
859.9363	14.05268
860.079	14.93314
860.2217	14.62883
860.3643	18.66781
860.507	16.93661
860.6496	19.90868
860.7922	19.03871
860.9349	13.31316
861.0775	14.32268
861.2201	12.05168
861.3627	15.22109
861.5052	15.125
861.6478	13.83982
861.7904	16.5579
861.9329	16.09735
862.0755	15.30716
862.218	18.39364
862.3605	18.85453
862.503	12.6923
862.6455	11.96157
862.788	14.65712
862.9305	16.72945
863.0729	16.13054
863.2154	16.07248
863.3578	11.75211
863.5002	17.59846
863.6426	19.49391
863.7851	14.07404
863.9275	16.75338
864.0698	15.6361
864.2122	14.97931
864.3546	15.70364
864.4969	17.99505
864.6393	18.19172
864.7816	13.90756
864.924	11.65068
865.0662	19.24563
865.2086	19.25139
865.3508	13.45113
865.4931	19.36585
865.6354	12.95744
865.7776	15.0739
865.9199	15.90318
866.0621	8.142696
866.2043	13.11895
866.3466	13.79234
866.4888	10.72746
866.6309	8.49842
866.7731	15.68003
866.9153	16.7704
867.0574	15.65113
867.1996	15.8971
867.3417	13.25036
867.4839	14.16748
867.626	16.24857
867.7681	17.97099
867.9102	17.2947
868.0522	13.4491
868.1943	12.39625
868.3364	11.62163
868.4785	16.82551
868.6205	18.51701
868.7625	13.29494
868.9045	15.96674
869.0465	16.38859
869.1885	17.52131
869.3305	16.51791
869.4725	14.25017
869.6144	11.89782
869.7564	11.23704
869.8983	11.52956
870.0403	15.46255
870.1822	18.70443
870.3241	16.26354
870.466	13.81273
870.6079	12.71553
870.7498	11.59907
870.8916	16.85147
871.0335	11.65623
871.1754	16.56129
871.3171	15.31794
871.459	14.24402
871.6008	9.772416
871.7426	21.21362
871.8844	18.57528
872.0262	17.23081
872.1679	14.92674
872.3097	14.21926
872.4514	13.90194
872.5931	12.33187
872.7349	14.43174
872.8766	17.00626
873.0183	18.31908
873.16	11.35715
873.3017	9.865711
873.4434	14.6784
873.585	13.96867
873.7266	10.54259
873.8683	9.675966
874.0099	18.03562
874.1516	15.13069
874.2932	10.4598
874.4348	15.8849
874.5763	11.80768
874.7179	12.61966
874.8594	10.27939
875.001	11.34173
875.1425	14.37954
875.2841	10.08652
875.4256	11.78595
875.5671	17.60361
875.7086	8.347987
875.85	9.230738
875.9915	14.7271
876.133	20.59195
876.2744	14.13724
876.4159	15.29197
876.5573	12.81199
876.6987	12.19239
876.8401	16.22015
876.9815	12.75345
877.1229	10.44169
877.2643	10.3604
877.4056	11.60779
877.547	12.59395
877.6884	9.651279
877.8297	14.63919
877.971	11.34508
878.1123	16.51609
878.2536	7.958785
878.3949	6.993523
878.5362	13.54945
878.6774	17.35226
878.8187	15.34309
878.9599	11.68456
879.1011	14.05553
879.2424	13.75189
879.3836	13.12043
879.5248	13.13523
879.666	11.02135
879.8071	11.8301
879.9483	10.31186
880.0895	11.56431
880.2306	11.69852
880.3718	11.82949
880.5129	12.99411
880.654	12.16899
880.7951	13.99958
880.9362	10.5887
881.0773	10.37545
881.2183	11.60384
881.3594	12.56968
881.5004	14.14486
881.6414	14.83048
881.7825	11.36889
881.9235	15.31125
882.0645	15.33924
882.2054	17.68702
882.3464	14.50897
882.4874	12.68167
882.6284	14.67582
882.7693	11.68788
882.9103	10.41513
883.0512	14.99613
883.1921	12.60319
883.333	11.85814
883.4739	9.363596
883.6147	9.121871
883.7556	13.10659
883.8965	13.93529
884.0374	12.51856
884.1782	10.74519
884.319	12.42622
884.4598	13.60816
884.6006	17.46413
884.7414	15.21381
884.8822	13.58536
885.0229	14.7738
885.1637	9.791664
885.3044	10.16421
885.4452	16.82201
885.5859	12.92378
885.7266	12.31227
885.8673	12.44528
886.008	9.783483
886.1487	12.13883
886.2894	10.96372
886.43	11.36534
886.5707	13.35743
886.7113	11.26876
886.8519	7.569951
886.9926	9.098365
887.1331	12.83941
887.2737	7.148578
887.4143	8.84794
887.5549	9.377827
887.6954	13.86843
887.836	11.90201
887.9765	10.87709
888.1171	7.157154
888.2576	14.96565
888.3981	14.25778
888.5386	13.27019
888.679	11.79237
888.8195	8.02746
888.96	9.598092
889.1004	11.71013
889.2408	10.81673
889.3813	12.59085
889.5217	10.6937
889.6621	15.51232
889.8025	13.13445
889.9429	11.66751
890.0833	11.73742
890.2236	13.6862
890.364	11.8791
890.5043	10.61509
890.6446	7.85947
890.7849	10.46697
890.9252	12.18933
891.0655	9.591356
891.2058	10.32817
891.3461	9.514934
891.4863	6.601857
891.6266	9.01033
891.7668	12.6384
891.907	10.76073
892.0472	11.72654
892.1874	12.06328
892.3276	9.671119
892.4678	12.00625
892.608	15.75816
892.7481	14.04279
892.8883	10.58185
893.0284	10.63133
893.1685	8.012901
893.3087	12.9128
893.4487	13.91229
893.5889	5.889338
893.7289	10.79797
893.869	14.12909
894.009	12.3579
894.1491	13.97743
894.2891	12.03513
894.4291	9.637488
894.5692	8.501236
894.7092	6.236679
894.8491	9.082636
894.9891	8.590871
895.1291	8.120058
895.269	8.121358
895.409	10.44526
895.549	9.806402
895.6888	6.808146
895.8288	11.92924
895.9687	9.155303
896.1086	9.885509
896.2484	8.548882
896.3883	8.614642
896.5281	9.058826
896.668	8.466127
896.8079	10.06642
896.9476	7.18286
897.0875	10.73741
897.2272	8.481975
897.3671	13.41651
897.5068	10.90994
897.6466	15.59072
897.7864	12.11469
897.9261	13.31165
898.0658	11.11377
898.2056	10.20278
898.3453	11.88222
898.4849	8.595318
898.6246	11.09198
898.7643	4.939173
898.904	6.539876
899.0436	9.079476
899.1833	6.72092
899.3229	7.58272
899.4625	11.76487
899.6021	10.00546
899.7417	7.89687
899.8813	7.21453
900.0209	7.712573
900.1605	8.256777
900.3	6.891365
900.4395	11.59675
900.579	12.57834
900.7186	4.009671
900.8581	9.139648
900.9976	11.78072
901.1371	9.469669
901.2766	10.62836
901.416	7.302495
901.5555	10.73047
901.6949	8.452519
901.8344	3.157752
901.9738	6.397383
902.1132	9.859397
902.2526	5.416677
902.3919	8.816805
902.5313	4.479134
902.6707	3.943856
