SPECTRUM DATA FILE
SpectrumCount:	1
PixelCount:	3648
UserName:	ToughBook User
SampleName:	
LightSource:	
Comments:	
DeviceName:	Qwave
DeviceManufacturer:	Broadcom
DeviceSerialNo:	11311

Name:	last spectrum
Date:	2024-05-02T15:22:18.8625584+02:00
ExposureTime:	0.02
TemporalAvg:	1
IntensityUnit:	normalizedCounts
CCDLoadLevel:	0.08050092
Temperature:	29.87341
DiagramColor:	200
ProcessingSteps:	335

Wavelength [nm]	Intensity1
334.421	14.80002
334.5891	20.01059
334.7573	18.83286
334.9254	20.46025
335.0935	20.83496
335.2616	22.89838
335.4297	26.16251
335.5978	22.40527
335.7659	21.88793
335.934	18.13988
336.1021	17.55536
336.2701	14.58138
336.4382	16.21367
336.6063	17.82909
336.7744	16.55334
336.9424	14.23869
337.1105	17.69255
337.2785	22.09382
337.4466	20.65587
337.6146	21.59594
337.7827	24.13108
337.9507	17.01723
338.1187	12.2264
338.2867	17.06393
338.4548	22.24556
338.6228	21.28878
338.7908	14.92453
338.9588	19.66355
339.1268	20.87869
339.2948	18.87744
339.4628	19.78275
339.6308	17.4739
339.7988	18.02634
339.9667	21.21015
340.1347	17.75554
340.3027	18.93058
340.4707	23.49765
340.6386	25.25518
340.8066	19.20973
340.9745	17.44603
341.1425	20.57867
341.3104	20.71905
341.4784	23.59481
341.6463	21.58017
341.8142	20.37893
341.9821	22.36529
342.1501	22.46817
342.318	21.42441
342.4859	23.74574
342.6538	19.42238
342.8217	22.40135
342.9896	24.39278
343.1575	21.29123
343.3254	20.26005
343.4933	26.21861
343.6612	25.83408
343.829	17.49363
343.9969	24.6998
344.1648	15.8882
344.3326	16.46436
344.5005	19.44262
344.6683	21.84474
344.8362	19.40337
345.004	21.85573
345.1719	22.12695
345.3397	25.08072
345.5075	20.65594
345.6754	23.75131
345.8432	24.14307
346.011	19.66781
346.1788	19.81942
346.3466	21.51246
346.5144	22.85604
346.6822	23.54558
346.85	24.24093
347.0178	25.50879
347.1856	19.94732
347.3534	19.61941
347.5211	22.42418
347.6889	16.67349
347.8567	21.14879
348.0244	23.54691
348.1922	23.13615
348.3599	26.69832
348.5277	20.06832
348.6954	21.31125
348.8632	29.43243
349.0309	27.61771
349.1986	17.64636
349.3663	22.54805
349.5341	20.16689
349.7018	24.34394
349.8695	26.58026
350.0372	27.16393
350.2049	23.5673
350.3726	29.64481
350.5403	24.60324
350.7079	27.30775
350.8756	26.98957
351.0433	24.06582
351.211	23.62472
351.3786	24.67762
351.5463	22.4703
351.714	23.13956
351.8816	29.80823
352.0493	31.50438
352.2169	27.29943
352.3846	22.57459
352.5522	24.55534
352.7198	27.32062
352.8875	29.12698
353.0551	28.61459
353.2227	28.68365
353.3903	32.53162
353.5579	33.17124
353.7255	32.99741
353.8931	31.80382
354.0607	33.78
354.2283	29.99503
354.3958	28.00827
354.5634	27.58341
354.731	27.32052
354.8986	31.17136
355.0661	28.61541
355.2337	29.80833
355.4012	28.05619
355.5688	25.97449
355.7363	27.38292
355.9039	30.24025
356.0714	28.26033
356.239	29.44954
356.4065	28.38185
356.574	27.99719
356.7415	27.68922
356.909	22.35265
357.0765	25.69732
357.244	25.36244
357.4115	25.17868
357.579	25.61774
357.7465	29.62928
357.914	25.56493
358.0815	17.91345
358.249	21.69175
358.4164	22.31678
358.5839	19.49426
358.7513	21.00667
358.9188	21.57135
359.0862	29.62377
359.2537	29.22943
359.4211	29.75038
359.5886	37.72644
359.756	36.98758
359.9234	31.89457
360.0909	33.40036
360.2583	33.13234
360.4257	33.10256
360.5931	28.42441
360.7605	26.778
360.9279	25.85249
361.0953	31.03871
361.2627	33.85159
361.4301	32.39273
361.5974	34.08101
361.7648	33.83611
361.9322	30.46667
362.0995	28.36944
362.2669	29.97561
362.4343	31.24496
362.6016	37.86313
362.769	37.68625
362.9363	38.83696
363.1036	33.27972
363.271	28.37193
363.4383	28.51114
363.6056	31.6086
363.7729	34.84937
363.9402	43.78613
364.1075	35.83847
364.2748	34.3499
364.4421	38.59332
364.6094	30.00705
364.7767	32.99417
364.944	34.60641
365.1113	37.63724
365.2786	40.46228
365.4458	41.23424
365.6131	39.75543
365.7803	41.86475
365.9476	41.71701
366.1148	41.4757
366.2821	38.0445
366.4493	44.83677
366.6166	43.67027
366.7838	44.17135
366.951	36.95264
367.1182	43.22868
367.2855	40.44948
367.4527	43.11427
367.6199	37.30355
367.7871	38.35956
367.9543	42.29855
368.1215	38.5735
368.2886	37.98332
368.4558	38.85958
368.623	38.86928
368.7902	36.09034
368.9573	40.56925
369.1245	43.13332
369.2917	42.85544
369.4588	49.58293
369.6259	48.6235
369.7931	48.90513
369.9602	49.24388
370.1274	47.88252
370.2945	44.55037
370.4616	44.26924
370.6287	40.26465
370.7958	37.41563
370.963	42.03518
371.1301	48.9939
371.2971	46.34431
371.4643	49.4141
371.6313	51.55361
371.7984	51.15445
371.9655	42.36737
372.1326	40.18323
372.2997	36.69794
372.4667	40.07319
372.6338	42.62249
372.8008	42.01762
372.9679	41.74365
373.1349	42.16095
373.3019	40.45673
373.469	38.72241
373.636	33.2454
373.803	34.66783
373.9701	35.02217
374.1371	43.11958
374.3041	46.85668
374.4711	39.39972
374.6381	36.94356
374.8051	41.25272
374.9721	37.65364
375.1391	44.47933
375.3061	49.52567
375.473	52.38114
375.64	51.62649
375.8069	47.11093
375.9739	47.9664
376.1409	50.84934
376.3078	45.83187
376.4748	44.03494
376.6417	47.37595
376.8087	46.10487
376.9756	49.81699
377.1425	50.96693
377.3094	51.52391
377.4763	53.93575
377.6432	53.98468
377.8102	55.92178
377.9771	64.11121
378.144	61.13898
378.3109	60.94804
378.4777	58.07753
378.6446	52.35976
378.8115	45.32964
378.9784	46.66817
379.1452	47.41003
379.3121	47.39305
379.4789	45.16397
379.6458	47.19147
379.8127	46.96084
379.9795	50.94568
380.1463	55.35814
380.3131	57.87675
380.48	59.62061
380.6468	55.25061
380.8136	57.96975
380.9804	57.11636
381.1472	56.33371
381.314	54.90941
381.4808	46.75373
381.6476	50.24407
381.8144	43.02347
381.9812	50.31308
382.148	49.63777
382.3147	46.63501
382.4815	42.76504
382.6483	37.89872
382.815	33.32811
382.9818	43.51903
383.1485	39.31255
383.3153	40.94758
383.482	41.85673
383.6487	44.61312
383.8155	42.98749
383.9822	46.58625
384.1489	46.3249
384.3156	54.38567
384.4823	60.27058
384.649	62.73408
384.8157	61.99438
384.9824	53.63299
385.1491	57.59321
385.3158	51.74516
385.4825	56.20435
385.6491	53.02624
385.8158	52.02128
385.9825	48.15046
386.1491	50.71114
386.3157	53.66242
386.4824	61.72951
386.649	56.63972
386.8157	57.16255
386.9823	52.17857
387.1489	51.19393
387.3156	53.86373
387.4821	59.09787
387.6488	57.05721
387.8154	56.7264
387.982	52.59539
388.1486	55.22642
388.3152	59.04198
388.4818	58.47536
388.6483	57.60296
388.8149	57.76241
388.9815	58.19981
389.148	62.95046
389.3146	66.1558
389.4811	70.04883
389.6477	69.62499
389.8142	74.40388
389.9808	70.54031
390.1473	72.40952
390.3138	70.34821
390.4804	64.80417
390.6469	62.17423
390.8134	71.97398
390.9799	78.31131
391.1464	83.07783
391.3129	74.92262
391.4794	78.2571
391.6459	78.0059
391.8124	75.99559
391.9789	70.68993
392.1453	64.10899
392.3118	64.05711
392.4782	63.1883
392.6447	63.52108
392.8112	50.8505
392.9776	42.27082
393.144	34.2604
393.3105	35.51057
393.4769	38.06802
393.6433	38.85776
393.8098	46.78197
393.9762	48.93307
394.1426	55.04667
394.309	64.11234
394.4754	67.16254
394.6418	71.9151
394.8082	77.72522
394.9746	81.25491
395.141	82.62336
395.3073	83.92287
395.4737	85.09159
395.64	81.44971
395.8064	83.28786
395.9728	77.46388
396.1391	67.62135
396.3055	55.86728
396.4718	47.84882
396.6381	45.3634
396.8045	40.2238
396.9708	38.34029
397.1371	51.28492
397.3034	55.25241
397.4697	62.20114
397.636	74.22556
397.8023	87.62782
397.9686	96.26515
398.1349	96.09187
398.3012	99.57938
398.4675	98.72787
398.6337	100.2557
398.8	104.5345
398.9662	108.6616
399.1325	111.6025
399.2988	109.0692
399.465	114.2371
399.6313	103.1464
399.7975	101.7627
399.9637	112.0044
400.1299	110.9622
400.2961	111.3385
400.4624	107.8394
400.6286	101.6383
400.7948	106.1156
400.961	110.5205
401.1272	116.3044
401.2934	118.1019
401.4595	114.9599
401.6257	115.2187
401.7919	115.9838
401.9581	117.6097
402.1242	119.1619
402.2904	121.2615
402.4565	123.7492
402.6227	122.8633
402.7888	120.6144
402.955	118.3314
403.1211	112.7898
403.2872	104.4416
403.4533	111.3484
403.6194	118.8395
403.7856	129.7561
403.9517	128.5654
404.1177	122.4103
404.2838	115.3154
404.4499	115.5115
404.616	108.4786
404.7821	106.958
404.9482	120.6961
405.1142	131.0775
405.2803	124.6926
405.4464	120.0481
405.6124	117.1613
405.7784	120.238
405.9445	111.8915
406.1105	114.1673
406.2766	117.9283
406.4426	112.958
406.6086	113.9657
406.7746	113.5517
406.9406	122.0408
407.1066	121.7498
407.2726	120.8613
407.4386	125.0849
407.6046	123.2796
407.7706	111.343
407.9366	116.1218
408.1025	128.0372
408.2685	134.2841
408.4344	132.4939
408.6004	137.4552
408.7664	142.3335
408.9323	144.6609
409.0983	144.8995
409.2642	141.7947
409.4301	142.0925
409.596	136.7271
409.762	126.0849
409.9279	115.688
410.0938	116.9361
410.2597	115.8605
410.4256	110.7637
410.5915	128.4652
410.7574	136.6011
410.9232	145.3611
411.0891	140.3337
411.255	142.8609
411.4209	151.5072
411.5867	146.3686
411.7526	150.5294
411.9184	150.5265
412.0843	145.9447
412.2501	148.874
412.4159	146.2149
412.5818	148.3008
412.7476	145.8763
412.9134	143.3078
413.0792	139.6354
413.245	136.2538
413.4108	134.6578
413.5766	139.2329
413.7424	142.9269
413.9082	150.8342
414.074	152.9125
414.2397	149.5059
414.4055	142.989
414.5713	146.1377
414.737	148.2296
414.9028	145.4626
415.0685	145.0536
415.2343	149.8879
415.4	149.2278
415.5658	145.0661
415.7315	147.9432
415.8972	148.918
416.0629	156.8732
416.2286	157.815
416.3943	161.6663
416.56	158.4701
416.7257	153.9276
416.8914	153.0481
417.0571	152.5801
417.2228	148.534
417.3884	143.832
417.5541	143.0018
417.7198	147.7773
417.8854	150.5908
418.0511	156.4346
418.2167	158.4401
418.3824	154.1989
418.548	154.9637
418.7136	149.0186
418.8792	152.952
419.0449	156.4265
419.2105	162.3292
419.3761	166.4383
419.5417	166.5227
419.7073	154.5069
419.8729	151.2186
420.0385	148.9961
420.204	148.6434
420.3696	163.8309
420.5352	169.973
420.7007	171.9946
420.8663	178.1482
421.0319	177.947
421.1974	175.5168
421.3629	181.8895
421.5285	176.4243
421.694	166.0427
421.8595	171.8247
422.0251	184.3152
422.1906	177.5553
422.3561	172.603
422.5216	152.5353
422.6871	141.7905
422.8526	149.1822
423.0181	164.6853
423.1835	172.3954
423.349	167.035
423.5145	163.5303
423.68	163.2136
423.8454	164.7028
424.0109	168.6888
424.1763	178.6822
424.3418	177.9863
424.5072	175.4382
424.6726	177.0391
424.838	168.2342
425.0035	163.8354
425.1689	163.7338
425.3343	175.2988
425.4997	176.4307
425.6651	176.6575
425.8305	176.5447
425.9959	172.7466
426.1613	166.8482
426.3267	177.9002
426.492	182.0982
426.6574	185.1658
426.8228	178.8249
426.9881	164.2952
427.1534	149.731
427.3188	151.1107
427.4841	156.8705
427.6495	167.9138
427.8148	180.2215
427.9801	185.2406
428.1454	182.2015
428.3107	173.3036
428.476	171.1788
428.6414	170.4034
428.8066	167.8237
428.9719	161.9202
429.1372	164.7468
429.3025	172.0057
429.4678	178.2498
429.633	172.1526
429.7983	150.62
429.9636	136.8912
430.1288	132.0838
430.294	128.3341
430.4593	136.397
430.6245	135.3161
430.7897	128.0263
430.955	128.9048
431.1202	131.1711
431.2854	142.9001
431.4506	167.6017
431.6158	195.3993
431.781	202.6293
431.9462	206.3771
432.1114	204.0018
432.2766	184.4376
432.4417	167.074
432.6069	158.4327
432.772	166.7526
432.9372	187.9438
433.1024	204.2408
433.2675	210.4497
433.4326	210.3443
433.5977	204.6452
433.7629	188.897
433.928	165.4272
434.0931	159.315
434.2582	166.6648
434.4233	185.2471
434.5884	199.8126
434.7535	208.6593
434.9186	212.2012
435.0837	200.3763
435.2488	195.1266
435.4138	192.1751
435.5789	200.9025
435.744	211.7307
435.909	215.0427
436.0741	222.8586
436.2391	227.8849
436.4042	225.7375
436.5692	229.0988
436.7342	227.0517
436.8992	222.4329
437.0643	211.2052
437.2293	208.8602
437.3943	210.0083
437.5593	203.2492
437.7243	215.5839
437.8893	221.6454
438.0542	219.9794
438.2192	199.1778
438.3842	177.7887
438.5491	180.9447
438.7141	192.5926
438.8791	201.3281
439.044	207.4879
439.209	212.5747
439.3739	210.6409
439.5388	222.046
439.7037	221.3652
439.8687	227.4865
440.0336	225.7837
440.1985	220.5196
440.3634	211.4923
440.5283	209.9359
440.6932	209.7115
440.8581	214.248
441.0229	229.7393
441.1878	236.4889
441.3527	236.5824
441.5175	230.7456
441.6824	224.6422
441.8472	230.7339
442.0121	238.9997
442.1769	246.4275
442.3418	236.303
442.5066	239.9774
442.6714	244.6915
442.8362	246.9605
443.001	240.0858
443.1659	237.8843
443.3307	238.1383
443.4955	229.0243
443.6602	234.7906
443.825	248.4295
443.9898	249.2479
444.1546	242.114
444.3193	247.4392
444.4841	246.538
444.6488	244.0334
444.8136	249.075
444.9783	251.1463
445.1431	251.3076
445.3078	248.6039
445.4725	237.2853
445.6372	227.6674
445.802	232.012
445.9667	221.7752
446.1314	228.4323
446.2961	234.4385
446.4608	241.4947
446.6255	255.986
446.7901	258.8748
446.9548	255.8152
447.1195	250.8287
447.2841	259.472
447.4488	267.4069
447.6134	272.5418
447.7781	274.463
447.9427	261.8055
448.1074	256.219
448.272	249.0135
448.4366	259.8943
448.6012	277.2678
448.7658	272.9482
448.9305	270.1083
449.095	266.0005
449.2596	267.4203
449.4242	271.1187
449.5888	269.8897
449.7534	269.7913
449.9179	278.5564
450.0825	287.1532
450.2471	283.9992
450.4116	288.2966
450.5762	294.68
450.7407	302.3188
450.9052	296.2059
451.0698	293.153
451.2343	289.7203
451.3988	287.9365
451.5633	284.6466
451.7278	290.3044
451.8923	293.619
452.0568	285.0482
452.2213	285.1984
452.3858	287.0268
452.5503	277.8277
452.7148	268.2344
452.8792	255.9435
453.0437	259.7703
453.2081	260.9789
453.3726	266.4518
453.537	269.7212
453.7015	276.4445
453.8659	279.6171
454.0303	285.1551
454.1947	285.8137
454.3592	279.4455
454.5236	281.9822
454.688	274.7401
454.8524	269.3072
455.0168	268.9301
455.1811	269.9105
455.3455	281.0902
455.5099	283.5254
455.6743	287.2139
455.8386	292.3506
456.003	305.0916
456.1673	302.2852
456.3317	293.7177
456.496	283.7931
456.6603	284.7288
456.8246	289.2062
456.989	295.3822
457.1533	295.1203
457.3176	291.169
457.4819	291.637
457.6462	302.2547
457.8105	299.8281
457.9748	287.1666
458.1391	277.0399
458.3033	279.2763
458.4676	283.5196
458.6319	290.6408
458.7961	298.4409
458.9604	292.3671
459.1246	294.2176
459.2888	294.6652
459.4531	296.5755
459.6173	285.9906
459.7815	286.1413
459.9457	292.458
460.11	284.369
460.2741	283.9617
460.4384	288.9293
460.6025	302.1054
460.7667	305.4999
460.9309	307.5318
461.0951	304.4734
461.2592	299.0978
461.4234	292.7168
461.5876	292.4673
461.7517	296.8152
461.9159	296.1505
462.08	299.8829
462.2441	297.1059
462.4082	304.5613
462.5724	308.7068
462.7365	309.5036
462.9006	315.7808
463.0647	306.0316
463.2288	305.4896
463.3929	303.5927
463.557	303.7422
463.721	298.0859
463.8851	297.9325
464.0492	307.3353
464.2132	311.5524
464.3773	309.2882
464.5414	305.8226
464.7054	292.7533
464.8694	285.829
465.0334	289.9244
465.1975	303.6213
465.3615	308.3915
465.5255	306.0109
465.6895	301.3091
465.8535	304.6526
466.0175	316.2166
466.1815	318.7244
466.3455	316.9139
466.5095	303.2004
466.6734	291.5598
466.8374	285.4305
467.0014	291.3475
467.1653	303.5942
467.3293	313.2914
467.4932	314.1074
467.6571	319.9111
467.8211	318.0506
467.985	314.1705
468.1489	302.8629
468.3128	305.8349
468.4767	320.742
468.6406	328.5669
468.8045	319.1277
468.9684	306.8879
469.1323	308.3316
469.2962	316.7249
469.46	314.7648
469.6239	319.3911
469.7878	325.3086
469.9516	310.5463
470.1154	304.564
470.2793	294.9269
470.4431	300.7968
470.607	303.2218
470.7708	307.4004
470.9346	304.5198
471.0984	307.7634
471.2622	325.9531
471.426	322.7921
471.5898	319.817
471.7536	331.0306
471.9174	332.9472
472.0811	336.5624
472.2449	342.2475
472.4087	334.0122
472.5724	325.2622
472.7362	322.6233
472.8999	313.4662
473.0637	301.283
473.2274	306.3988
473.3911	324.0624
473.5548	321.9617
473.7185	318.1274
473.8822	328.8229
474.0459	334.3897
474.2096	326.615
474.3733	326.3311
474.537	340.6126
474.7007	333.4929
474.8643	328.6482
475.028	336.2308
475.1917	327.5391
475.3553	320.6554
475.519	319.4559
475.6826	322.0152
475.8463	317.3884
476.0099	331.3298
476.1735	327.9626
476.3371	307.2029
476.5007	309.0669
476.6643	316.2385
476.8279	315.7923
476.9915	325.7788
477.1551	325.2119
477.3187	333.4685
477.4823	330.7261
477.6458	336.6707
477.8094	339.9047
477.9729	336.1875
478.1365	329.6931
478.3	333.8568
478.4636	330.5072
478.6271	330.2412
478.7906	328.4108
478.9541	319.2341
479.1176	322.4378
479.2812	329.3479
479.4447	331.6946
479.6082	338.0932
479.7716	336.3755
479.9351	326.5331
480.0986	331.769
480.2621	328.5296
480.4255	336.0657
480.589	333.7712
480.7524	331.2872
480.9159	331.9743
481.0793	328.5867
481.2428	318.6624
481.4062	318.8036
481.5696	332.6541
481.733	338.2662
481.8964	342.2459
482.0598	344.5229
482.2232	334.5747
482.3866	330.0169
482.55	324.6042
482.7134	327.5802
482.8768	329.1456
483.0401	333.1913
483.2035	333.1199
483.3668	330.8739
483.5302	334.7874
483.6935	330.5397
483.8568	332.6118
484.0202	331.7941
484.1835	321.4983
484.3468	326.8039
484.5101	327.091
484.6734	327.1017
484.8367	335.3253
485	325.3716
485.1633	327.9753
485.3266	325.1507
485.4899	313.8325
485.6531	303.7216
485.8164	295.8233
485.9796	266.5505
486.1429	243.6592
486.3061	245.074
486.4694	263.3952
486.6326	295.1176
486.7958	311.4249
486.959	305.6571
487.1223	297.7262
487.2855	304.2459
487.4486	304.6603
487.6118	310.2789
487.775	320.7697
487.9382	330.1398
488.1014	342.6529
488.2646	332.642
488.4277	327.5532
488.5909	321.3554
488.754	315.7693
488.9171	309.9596
489.0803	310.3456
489.2434	313.1244
489.4066	328.6758
489.5697	347.4771
489.7328	353.888
489.8959	346.9923
490.059	341.4052
490.2221	339.5949
490.3852	332.941
490.5482	339.7684
490.7113	335.8263
490.8744	334.5031
491.0374	328.7906
491.2005	321.289
491.3636	328.826
491.5266	343.6906
491.6896	335.2993
491.8527	318.784
492.0157	304.3664
492.1787	296.8376
492.3417	301.0916
492.5047	317.4302
492.6677	334.0427
492.8307	335.0948
492.9937	341.838
493.1567	348.5731
493.3196	335.9171
493.4826	324.4548
493.6456	325.3593
493.8085	319.8958
493.9715	313.2897
494.1344	323.6429
494.2974	335.4407
494.4603	342.903
494.6232	342.077
494.7861	346.5746
494.949	342.7817
495.1119	347.0558
495.2748	343.884
495.4377	345.97
495.6006	335.099
495.7635	314.9087
495.9264	317.6221
496.0892	334.5523
496.2521	352.9561
496.4149	355.2817
496.5778	345.0449
496.7407	341.6693
496.9035	337.8151
497.0663	340.8299
497.2291	339.0222
497.3919	336.1642
497.5547	350.1502
497.7176	342.5088
497.8804	340.174
498.0432	335.108
498.2059	318.855
498.3687	311.943
498.5315	309.8033
498.6942	323.0455
498.857	332.9984
499.0198	338.7531
499.1825	347.9055
499.3452	340.6111
499.508	340.1191
499.6707	339.1796
499.8334	342.4835
499.9962	341.4492
500.1589	336.6356
500.3216	328.8685
500.4843	327.232
500.6469	322.5205
500.8096	330.7477
500.9723	343.718
501.135	335.6949
501.2976	321.0961
501.4603	321.2608
501.623	324.4642
501.7856	321.1829
501.9482	323.1719
502.1109	335.2126
502.2735	331.1825
502.4361	339.9044
502.5987	346.1036
502.7614	334.3482
502.924	340.5066
503.0865	351.7455
503.2491	358.3673
503.4117	355.8479
503.5743	339.6953
503.7368	336.4879
503.8994	328.973
504.062	320.6645
504.2245	312.4525
504.3871	331.9559
504.5496	347.8775
504.7121	362.8734
504.8746	347.6173
505.0372	335.2433
505.1997	335.8232
505.3622	349.6812
505.5247	355.991
505.6872	363.1717
505.8497	365.1762
506.0121	371.2576
506.1746	367.7389
506.3371	361.0682
506.4995	352.1452
506.662	341.2936
506.8244	339.9915
506.9869	352.3839
507.1493	357.3042
507.3117	353.5017
507.4742	353.9135
507.6366	356.1172
507.799	342.0065
507.9614	334.0568
508.1238	324.0964
508.2862	334.2519
508.4485	345.5161
508.6109	352.1305
508.7733	350.5711
508.9357	354.2131
509.098	354.4154
509.2604	361.2791
509.4227	363.2549
509.5851	359.9897
509.7474	347.8094
509.9097	330.8202
510.072	336.4172
510.2343	343.0203
510.3966	350.896
510.5589	349.7576
510.7212	343.571
510.8835	336.101
511.0458	339.0006
511.2081	345.3287
511.3703	346.4412
511.5326	346.8462
511.6949	359.6068
511.8571	355.1251
512.0193	367.3088
512.1816	357.006
512.3438	337.9202
512.506	336.2623
512.6682	332.1705
512.8304	324.5168
512.9926	332.8541
513.1548	336.5349
513.317	339.0238
513.4792	342.1356
513.6414	337.8091
513.8035	337.9387
513.9657	320.613
514.1279	317.4135
514.29	324.0137
514.4521	327.3692
514.6143	328.3988
514.7764	331.9432
514.9385	326.8919
515.1006	334.3391
515.2628	338.144
515.4249	329.7756
515.587	336.1456
515.7491	329.7246
515.9111	339.2461
516.0732	341.5432
516.2353	333.3939
516.3973	325.4089
516.5594	302.7462
516.7214	283.9445
516.8835	270.8816
517.0455	269.1397
517.2076	269.9737
517.3696	275.3671
517.5316	292.4142
517.6937	318.0876
517.8557	334.5374
518.0176	337.5688
518.1796	322.1832
518.3416	283.3594
518.5036	272.2827
518.6656	292.321
518.8275	318.7975
518.9895	327.3192
519.1514	327.8844
519.3134	321.2588
519.4753	319.3888
519.6373	323.9419
519.7992	335.5338
519.9611	340.9487
520.123	340.333
520.2849	342.048
520.4468	336.798
520.6087	328.5769
520.7706	328.0686
520.9325	321.5421
521.0944	328.392
521.2562	338.8472
521.4181	348.8594
521.58	346.0127
521.7418	338.4752
521.9036	341.9523
522.0655	341.8925
522.2273	349.6635
522.3891	341.3108
522.551	325.4085
522.7128	312.07
522.8746	316.4241
523.0363	325.7893
523.1981	346.1889
523.3599	340.1836
523.5217	333.4286
523.6835	343.5538
523.8452	345.1718
524.007	348.0397
524.1687	354.4341
524.3304	355.9264
524.4922	351.2525
524.6539	356.2149
524.8157	352.4847
524.9774	354.4134
525.1391	346.2982
525.3008	351.317
525.4625	351.6877
525.6241	353.4427
525.7858	363.9447
525.9475	363.3779
526.1092	351.2908
526.2709	332.0873
526.4325	320.8575
526.5942	311.8311
526.7558	309.511
526.9174	308.8581
527.079	315.4341
527.2407	316.2357
527.4023	321.5869
527.5639	338.8739
527.7255	337.9492
527.8871	347.1137
528.0487	358.7579
528.2103	354.5061
528.3718	347.8814
528.5334	342.1826
528.695	352.3284
528.8565	369.1063
529.0181	367.1495
529.1796	367.8504
529.3412	369.4908
529.5027	363.2025
529.6642	351.1436
529.8257	344.5922
529.9872	347.6923
530.1487	340.4593
530.3102	345.2209
530.4717	355.0281
530.6332	349.9858
530.7947	362.7968
530.9562	365.8016
531.1176	364.9493
531.2791	359.834
531.4405	360.8035
531.6019	361.3888
531.7634	350.4612
531.9248	351.2421
532.0862	351.8937
532.2477	348.9502
532.4091	346.6157
532.5704	334.8537
532.7319	329.6115
532.8932	324.2492
533.0546	323.2929
533.216	341.8647
533.3774	356.0974
533.5388	353.7058
533.7001	345.632
533.8615	340.4839
534.0228	325.6278
534.1841	327.551
534.3455	341.1704
534.5068	340.4183
534.6681	342.7479
534.8293	338.6322
534.9907	337.8021
535.152	343.2593
535.3132	341.2568
535.4745	342.9902
535.6358	350.5695
535.7971	350.5201
535.9583	359.9666
536.1196	355.7241
536.2808	355.1788
536.4421	340.6165
536.6033	332.1222
536.7645	330.1267
536.9258	322.7874
537.087	325.3516
537.2482	320.256
537.4094	323.5137
537.5706	342.0301
537.7318	356.9094
537.8929	349.9295
538.0541	340.0627
538.2153	334.0302
538.3764	332.3837
538.5376	337.0229
538.6987	341.8195
538.8599	335.663
539.021	333.3803
539.1821	330.8131
539.3432	333.6396
539.5043	331.7355
539.6655	324.8572
539.8265	322.5078
539.9876	322.3611
540.1487	324.7003
540.3098	320.9378
540.4708	306.136
540.6319	305.892
540.793	311.8542
540.954	307.6462
541.1151	317.7057
541.2761	325.1731
541.4371	325.4531
541.5981	325.7661
541.7592	332.6971
541.9202	332.6058
542.0812	328.9924
542.2422	332.9124
542.4031	330.3066
542.5641	323.9193
542.7251	338.0291
542.886	328.686
543.0471	314.0106
543.208	309.456
543.369	312.5124
543.5298	316.3062
543.6908	319.5073
543.8517	334.1245
544.0126	341.394
544.1736	343.1336
544.3345	344.2811
544.4954	331.7126
544.6563	322.7988
544.8171	322.3602
544.978	330.0033
545.1389	345.1176
545.2997	330.5363
545.4606	325.4546
545.6215	322.1036
545.7823	321.7978
545.9432	330.4066
546.104	332.3948
546.2648	334.5429
546.4256	327.9289
546.5864	328.1042
546.7473	332.8694
546.908	332.2653
547.0688	327.5352
547.2296	327.9678
547.3904	322.6514
547.5511	319.5259
547.7119	316.1915
547.8727	314.2263
548.0334	320.0074
548.1942	329.9267
548.3549	328.5603
548.5156	330.5385
548.6763	334.116
548.837	330.8896
548.9977	331.9625
549.1584	330.1917
549.3192	335.5831
549.4798	326.0223
549.6405	326.0411
549.8011	329.7828
549.9619	331.7013
550.1225	326.5127
550.2831	327.9926
550.4438	326.5095
550.6044	329.7581
550.765	331.196
550.9257	325.1733
551.0863	329.7456
551.2469	323.2455
551.4075	320.3901
551.5681	322.1174
551.7287	321.2085
551.8893	327.8288
552.0498	332.7263
552.2104	330.3643
552.371	328.9471
552.5315	329.0573
552.6921	323.193
552.8526	311.9173
553.0131	318.109
553.1736	318.2303
553.3342	324.3294
553.4947	325.8836
553.6552	331.3163
553.8157	319.8186
553.9762	323.9633
554.1367	329.1125
554.2971	325.1463
554.4576	323.7646
554.618	324.6205
554.7785	329.045
554.939	337.6508
555.0994	330.7479
555.2598	324.7006
555.4203	328.2207
555.5807	317.6855
555.7411	312.83
555.9015	316.9844
556.0619	318.6245
556.2223	311.9438
556.3827	309.5665
556.5431	312.568
556.7034	311.0374
556.8638	310.4406
557.0242	310.4253
557.1845	313.2735
557.3448	311.3507
557.5052	305.8736
557.6655	308.94
557.8259	315.706
557.9861	313.6605
558.1465	313.1585
558.3068	310.8541
558.467	304.8792
558.6274	307.7397
558.7877	291.5344
558.9479	292.039
559.1082	288.6524
559.2684	299.9815
559.4287	299.1711
559.5889	307.9012
559.7491	303.26
559.9094	299.0927
560.0696	291.4838
560.2299	290.3385
560.3901	300.5823
560.5502	302.3305
560.7104	304.945
560.8707	313.7212
561.0308	316.8586
561.191	317.7797
561.3511	305.615
561.5114	291.2703
561.6714	296.8352
561.8316	296.2467
561.9918	305.2735
562.1519	300.1877
562.312	303.712
562.4722	296.0639
562.6323	304.6655
562.7924	300.7784
562.9525	303.1854
563.1125	310.3372
563.2726	306.4948
563.4327	302.453
563.5928	298.2313
563.7528	302.3003
563.9129	293.426
564.0729	296.7346
564.233	300.9697
564.393	298.2215
564.553	303.483
564.7131	310.3022
564.873	305.471
565.0331	303.4347
565.1931	306.7384
565.353	299.4713
565.5131	290.3835
565.673	288.6895
565.833	289.157
565.9929	280.8657
566.1529	284.8601
566.3129	288.452
566.4728	293.5129
566.6328	291.6759
566.7927	294.3689
566.9526	287.9453
567.1125	291.4384
567.2724	299.2982
567.4323	303.0313
567.5922	294.6824
567.7521	296.4888
567.9119	295.7019
568.0718	293.9008
568.2317	295.3702
568.3915	284.6893
568.5514	283.2298
568.7112	280.844
568.871	289.842
569.0309	289.7307
569.1907	288.9707
569.3505	292.1125
569.5103	289.8617
569.6701	289.5872
569.8299	296.8409
569.9897	290.6404
570.1495	285.8247
570.3092	288.5554
570.469	289.803
570.6287	285.3626
570.7885	275.1065
570.9482	275.3839
571.108	269.0655
571.2677	268.907
571.4274	280.3775
571.5871	282.5478
571.7468	286.1818
571.9066	293.1476
572.0662	296.2278
572.2259	289.9235
572.3856	290.2797
572.5452	290.9581
572.7049	292.0058
572.8646	297.1443
573.0242	294.6438
573.1838	287.8693
573.3435	294.2272
573.5031	288.9979
573.6627	283.9166
573.8223	287.3884
573.9819	285.3009
574.1415	294.4374
574.3011	299.8899
574.4607	289.7255
574.6203	290.2736
574.7798	293.5339
574.9394	283.1103
575.099	279.7454
575.2585	277.9962
575.418	276.2825
575.5776	283.5262
575.7371	285.4383
575.8966	283.968
576.0562	280.5925
576.2156	281.3336
576.3751	283.6799
576.5346	281.1293
576.6941	285.3296
576.8536	288.9517
577.0131	283.1792
577.1725	281.4873
577.332	280.7973
577.4914	277.6483
577.6508	279.1651
577.8103	276.3239
577.9697	272.6505
578.1291	271.6006
578.2885	269.653
578.4479	274.5565
578.6073	267.8733
578.7667	272.4053
578.9261	278.0703
579.0854	278.1201
579.2448	272.563
579.4042	275.0249
579.5635	279.9948
579.7229	278.0932
579.8822	273.3893
580.0416	271.6717
580.2009	270.5176
580.3602	278.7495
580.5195	283.5053
580.6788	271.8907
580.8381	270.3051
580.9974	274.5897
581.1566	278.2234
581.3159	275.4248
581.4752	276.8158
581.6345	277.0097
581.7937	271.904
581.9529	270.1346
582.1122	277.2058
582.2714	274.4591
582.4306	278.8971
582.5898	278.8858
582.749	277.2448
582.9082	278.6774
583.0674	275.7902
583.2266	270.6948
583.3857	263.5258
583.5449	275.1022
583.7041	269.5603
583.8633	272.2791
584.0224	269.0043
584.1815	274.086
584.3407	263.5486
584.4998	267.4124
584.6589	268.1761
584.818	267.6991
584.9771	262.3902
585.1362	267.5129
585.2953	261.1786
585.4544	260.2503
585.6135	260.6945
585.7725	251.7127
585.9316	250.9489
586.0906	258.2194
586.2497	253.1398
586.4087	255.0356
586.5677	255.5731
586.7267	261.1222
586.8858	254.9445
587.0448	257.6397
587.2038	259.6173
587.3628	260.1002
587.5218	260.1549
587.6807	257.248
587.8397	259.872
587.9987	260.3016
588.1577	260.1121
588.3166	254.8127
588.4755	249.1915
588.6345	240.7702
588.7934	233.419
588.9523	225.5494
589.1112	228.3261
589.2701	231.8264
589.429	226.948
589.5879	228.6723
589.7468	223.9242
589.9056	232.21
590.0645	234.8154
590.2234	241.3315
590.3822	249.1339
590.5411	244.493
590.6999	247.6247
590.8588	244.5536
591.0176	242.8327
591.1764	244.4353
591.3352	248.0964
591.494	248.3318
591.6528	249.235
591.8116	241.3678
591.9703	241.6849
592.1291	240.667
592.2878	234.7604
592.4467	245.4223
592.6053	241.4116
592.7641	247.706
592.9229	246.3308
593.0816	241.1163
593.2403	245.0367
593.399	245.93
593.5577	245.2326
593.7164	241.3145
593.8751	243.56
594.0338	245.5696
594.1924	239.0733
594.3511	240.2747
594.5098	231.616
594.6684	232.3449
594.8271	242.0674
594.9857	239.0682
595.1443	239.2379
595.303	235.3654
595.4615	238.1414
595.6202	242.5864
595.7787	236.8921
595.9374	236.0042
596.0959	243.0611
596.2545	238.0251
596.4131	238.7472
596.5717	243.0272
596.7302	235.7823
596.8887	230.5088
597.0473	236.1988
597.2058	236.5647
597.3644	233.7998
597.5229	243.357
597.6814	237.889
597.8399	234.226
597.9984	240.2162
598.1569	236.4527
598.3154	243.5938
598.4738	243.8498
598.6323	239.3522
598.7908	237.6871
598.9492	237.9846
599.1076	243.282
599.2661	240.0148
599.4245	243.6669
599.5829	242.0629
599.7413	236.2529
599.8997	232.4619
600.0581	237.7532
600.2165	248.2395
600.3749	242.6125
600.5333	243.3674
600.6917	239.9648
600.85	236.8912
601.0084	236.906
601.1667	234.3639
601.325	233.8983
601.4833	237.5783
601.6417	243.5027
601.8	239.6575
601.9583	234.4897
602.1166	233.4442
602.2749	228.4499
602.4332	238.2061
602.5914	241.2181
602.7498	237.5529
602.908	240.3098
603.0662	238.4929
603.2245	240.7763
603.3828	246.4494
603.541	232.044
603.6992	243.4164
603.8574	251.4413
604.0156	244.5723
604.1738	244.2255
604.332	244.046
604.4902	239.4565
604.6484	229.5155
604.8065	241.7007
604.9647	244.591
605.1229	236.9479
605.281	234.4582
605.4391	239.2555
605.5973	234.5316
605.7554	232.1262
605.9135	234.2782
606.0717	238.5779
606.2297	239.594
606.3878	237.8124
606.5459	237.6299
606.704	238.893
606.8621	239.2357
607.0201	240.117
607.1782	237.398
607.3362	245.8403
607.4943	235.3008
607.6523	239.8705
607.8104	234.9176
607.9684	232.8838
608.1264	227.6435
608.2844	231.537
608.4424	232.4603
608.6003	227.1649
608.7584	222.4207
608.9163	227.5968
609.0743	231.9722
609.2322	228.3132
609.3902	228.2961
609.5482	230.2315
609.7061	228.0598
609.864	230.5149
610.0219	226.5469
610.1798	218.0999
610.3377	216.5877
610.4956	220.0995
610.6535	225.1838
610.8114	227.131
610.9693	226.3215
611.1271	225.7075
611.285	231.6508
611.4429	226.3843
611.6007	231.9336
611.7585	228.1412
611.9164	225.8818
612.0742	226.0912
612.232	216.5517
612.3898	219.2821
612.5476	226.203
612.7054	218.4729
612.8632	209.4191
613.0209	217.6718
613.1787	231.1153
613.3365	224.681
613.4942	219.0529
613.652	216.3979
613.8097	213.4267
613.9674	209.2297
614.1252	208.3689
614.2829	215.3307
614.4406	219.141
614.5983	222.1429
614.756	218.0236
614.9136	219.3175
615.0714	227.2963
615.229	216.7719
615.3867	221.468
615.5443	221.9337
615.702	223.1303
615.8596	216.5002
616.0172	208.0788
616.1748	206.3723
616.3325	205.041
616.4901	206.3748
616.6476	198.6169
616.8052	209.285
616.9628	206.6629
617.1204	201.2178
617.278	208.6228
617.4355	213.5823
617.5931	215.3262
617.7506	220.2932
617.9081	211.6
618.0657	214.8943
618.2232	211.2861
618.3807	218.5502
618.5382	219.7475
618.6957	216.7456
618.8532	212.1556
619.0107	202.6731
619.1682	206.052
619.3256	205.0579
619.4831	204.1279
619.6406	206.3637
619.798	208.7678
619.9554	214.1012
620.1129	212.1466
620.2703	213.007
620.4277	208.7333
620.5851	208.56
620.7425	210.3497
620.8998	216.5911
621.0573	212.2674
621.2146	221.0708
621.372	212.5792
621.5294	206.575
621.6867	206.2991
621.8441	201.8175
622.0013	210.4547
622.1587	204.4748
622.316	202.6254
622.4733	212.2481
622.6306	216.0852
622.7879	209.5273
622.9452	202.5529
623.1025	202.4654
623.2598	196.2692
623.4171	203.5485
623.5743	200.7502
623.7316	207.9343
623.8888	200.4489
624.046	200.4746
624.2032	198.4971
624.3605	200.7861
624.5176	199.1078
624.6749	199.3157
624.8321	202.9456
624.9893	199.8489
625.1464	197.9237
625.3036	201.6921
625.4608	197.5763
625.6179	201.1809
625.7751	202.173
625.9322	203.9246
626.0894	203.419
626.2465	206.0293
626.4036	205.8612
626.5607	206.401
626.7178	206.0809
626.8749	204.1384
627.032	199.9873
627.189	203.3855
627.3461	197.4963
627.5032	199.8489
627.6602	199.0736
627.8173	196.9136
627.9743	184.9152
628.1313	183.3526
628.2884	185.6888
628.4454	186.1041
628.6024	189.1211
628.7594	197.1992
628.9164	189.41
629.0734	200.5986
629.2303	198.5666
629.3873	195.143
629.5443	199.6006
629.7012	191.9424
629.8582	194.3373
630.0151	197.8223
630.172	187.9348
630.3289	190.5255
630.4858	194.6155
630.6428	201.3589
630.7996	201.4637
630.9565	200.5015
631.1134	199.7127
631.2703	192.4685
631.4272	195.0485
631.584	195.7568
631.7408	194.4316
631.8977	190.5285
632.0546	187.231
632.2114	190.6057
632.3682	191.238
632.525	200.7617
632.6818	198.9133
632.8386	199.7899
632.9954	204.2897
633.1522	195.958
633.3089	191.9031
633.4657	191.1983
633.6224	192.3958
633.7792	190.9653
633.9359	194.0174
634.0927	193.5088
634.2494	188.5003
634.4061	192.9865
634.5628	187.4569
634.7195	184.2308
634.8762	190.5541
635.0329	196.3099
635.1895	192.5866
635.3462	194.4116
635.5029	194.5969
635.6595	197.2652
635.8162	185.3674
635.9728	191.8178
636.1295	191.5264
636.2861	188.4364
636.4427	190.9665
636.5992	191.059
636.7559	184.7936
636.9124	184.8932
637.069	192.1514
637.2256	193.5322
637.3821	195.407
637.5387	190.7556
637.6953	197.0133
637.8518	186.6096
638.0084	189.0052
638.1649	194.6655
638.3214	191.9789
638.4779	188.3439
638.6344	188.7182
638.7909	196.383
638.9474	200.3549
639.1038	189.1923
639.2603	189.4778
639.4167	190.9321
639.5732	187.7317
639.7297	192.2694
639.8861	189.6881
640.0425	186.1028
640.199	185.553
640.3553	183.0377
640.5118	187.7812
640.6682	181.1275
640.8245	177.7958
640.981	178.4623
641.1373	177.928
641.2936	177.8271
641.45	178.8643
641.6064	180.839
641.7627	183.0169
641.9191	183.5388
642.0754	177.1344
642.2317	178.6118
642.388	182.2555
642.5443	184.6997
642.7006	183.6736
642.8569	175.3424
643.0131	174.6709
643.1694	185.713
643.3257	181.7159
643.4819	174.6848
643.6382	173.2916
643.7944	181.6315
643.9506	174.6447
644.1069	177.0578
644.2631	178.0763
644.4193	178.9325
644.5754	183.61
644.7316	180.7869
644.8878	177.6425
645.044	169.5939
645.2002	175.387
645.3563	176.2779
645.5125	170.7053
645.6686	166.9375
645.8248	174.9298
645.9809	168.9197
646.137	172.9574
646.2931	171.1497
646.4492	167.0172
646.6053	172.8947
646.7614	169.4428
646.9174	172.9227
647.0735	175.2561
647.2296	171.7797
647.3856	168.1663
647.5417	168.5995
647.6977	168.7992
647.8537	166.561
648.0098	167.7684
648.1658	164.8158
648.3218	169.2975
648.4777	177.625
648.6337	170.0359
648.7897	166.6951
648.9457	165.8488
649.1016	165.0164
649.2576	162.3477
649.4135	163.2234
649.5695	158.8042
649.7254	161.9512
649.8813	162.0386
650.0372	162.8728
650.1932	169.1682
650.3491	167.8308
650.5049	165.4064
650.6608	166.9083
650.8167	171.0081
650.9725	171.7072
651.1284	167.4711
651.2842	172.8509
651.4401	163.6977
651.5959	161.189
651.7518	158.4584
651.9076	159.2501
652.0634	165.3481
652.2192	168.0546
652.3749	168.3042
652.5308	166.5817
652.6865	158.6368
652.8423	169.0446
652.998	163.9665
653.1538	166.634
653.3096	166.5999
653.4653	170.3243
653.621	163.5227
653.7767	169.4195
653.9324	161.848
654.0881	171.6368
654.2438	167.7628
654.3995	163.0064
654.5552	154.7413
654.7109	164.2983
654.8665	161.1028
655.0222	154.1456
655.1778	161.3833
655.3334	164.1171
655.4891	154.764
655.6447	151.5426
655.8003	153.9747
655.9559	145.6472
656.1115	137.8179
656.2671	131.2601
656.4227	127.7246
656.5782	129.2042
656.7338	145.5305
656.8893	147.3345
657.0449	155.626
657.2004	152.6903
657.356	154.5579
657.5115	154.6112
657.667	160.1679
657.8225	165.8022
657.978	165.8362
658.1335	165.1508
658.289	159.6722
658.4445	163.8866
658.5999	164.1671
658.7554	164.2052
658.9108	163.5316
659.0663	162.542
659.2217	157.4038
659.3771	152.5385
659.5325	160.5689
659.6879	161.147
659.8433	160.609
659.9987	156.8904
660.1541	160.9935
660.3095	156.1107
660.4648	160.9281
660.6202	163.8256
660.7756	159.9467
660.9309	156.5093
661.0862	163.7883
661.2416	165.0104
661.3969	162.1812
661.5522	163.9247
661.7075	164.5613
661.8628	166.2254
662.0181	161.9951
662.1733	163.9921
662.3286	163.0911
662.4839	166.272
662.6391	167.1721
662.7944	161.6356
662.9496	159.3667
663.1048	155.8557
663.26	147.2007
663.4152	150.5157
663.5704	158.2848
663.7256	157.6723
663.8808	159.1713
664.036	164.9009
664.1912	160.7952
664.3463	163.8001
664.5015	156.0063
664.6566	152.7608
664.8118	161.3254
664.9669	165.1312
665.122	161.4235
665.2771	156.8333
665.4322	159.2073
665.5873	153.9779
665.7424	153.9102
665.8975	152.1349
666.0526	158.4836
666.2076	160.0626
666.3627	156.9406
666.5177	152.6212
666.6727	153.828
666.8278	160.1891
666.9828	159.2558
667.1378	162.2202
667.2928	158.5282
667.4478	159.93
667.6028	166.388
667.7578	159.6474
667.9127	149.8355
668.0677	150.0717
668.2226	150.8694
668.3776	160.4134
668.5325	163.2019
668.6874	159.3077
668.8423	156.98
668.9973	155.0745
669.1522	162.1868
669.3071	159.5128
669.4619	157.5929
669.6168	155.4133
669.7717	153.1487
669.9265	154.3311
670.0814	155.0026
670.2362	153.9697
670.3911	155.7851
670.5459	155.0605
670.7007	155.0497
670.8555	149.7521
671.0103	149.7436
671.1651	150.9587
671.3199	150.3209
671.4747	152.163
671.6295	151.4126
671.7842	147.99
671.939	147.7608
672.0937	151.6456
672.2484	151.0954
672.4031	155.2402
672.5579	150.823
672.7126	150.4396
672.8673	150.4429
673.022	151.1231
673.1767	147.8141
673.3314	150.112
673.486	146.3646
673.6407	148.8297
673.7953	152.3471
673.95	156.1311
674.1046	147.8183
674.2592	146.09
674.4138	145.7382
674.5684	144.3013
674.723	149.7918
674.8776	148.5464
675.0322	144.0239
675.1868	146.7027
675.3414	143.6559
675.4959	144.8342
675.6505	150.5946
675.805	151.1081
675.9595	152.7251
676.1141	143.8369
676.2686	147.9946
676.4231	142.9548
676.5776	140.2519
676.7321	145.5841
676.8866	145.4312
677.041	144.31
677.1955	141.9092
677.35	147.5912
677.5044	152.0259
677.6589	148.152
677.8133	144.8648
677.9677	147.5961
678.1221	141.5681
678.2766	143.5492
678.4309	141.7091
678.5853	139.6844
678.7397	139.8422
678.8941	141.8567
679.0485	144.8575
679.2028	142.3019
679.3571	135.2935
679.5115	137.5755
679.6658	140.8183
679.8201	140.5382
679.9744	136.5814
680.1288	139.8656
680.2831	137.1758
680.4373	140.9299
680.5916	140.3889
680.7459	143.1055
680.9001	139.1423
681.0544	135.0728
681.2087	142.3734
681.3629	144.9553
681.5171	142.5826
681.6713	139.2367
681.8256	134.7883
681.9797	135.9726
682.134	135.6395
682.2881	137.902
682.4423	135.972
682.5965	138.691
682.7507	132.2168
682.9048	131.2712
683.059	127.7923
683.2131	135.513
683.3672	132.5641
683.5213	135.0552
683.6754	134.5367
683.8295	133.5438
683.9836	132.3856
684.1377	127.7807
684.2918	127.7449
684.4459	127.1926
684.5999	132.4082
684.754	133.7366
684.908	129.4005
685.062	133.953
685.2161	136.0362
685.3701	129.9595
685.5241	120.6771
685.6781	126.7984
685.8321	130.9757
685.9861	129.9733
686.14	127.4227
686.294	126.9815
686.4479	127.5965
686.6019	116.9317
686.7559	113.8153
686.9098	102.832
687.0637	99.55099
687.2176	96.02048
687.3715	89.33762
687.5254	98.73638
687.6793	99.31773
687.8332	105.7293
687.9871	109.7333
688.1409	116.9528
688.2947	118.8908
688.4486	115.7839
688.6024	115.9811
688.7563	116.1686
688.9101	112.6993
689.0639	107.8516
689.2177	102.5389
689.3715	107.0951
689.5253	115.2503
689.6791	116.5398
689.8328	115.3811
689.9866	112.7111
690.1403	107.5583
690.2941	112.7859
690.4478	110.1559
690.6015	111.3237
690.7552	110.4353
690.9089	114.4087
691.0626	116.948
691.2164	118.2705
691.37	117.5049
691.5237	113.0345
691.6774	114.6251
691.831	113.4454
691.9847	112.7505
692.1383	112.1733
692.2919	112.6411
692.4456	115.9648
692.5992	117.5546
692.7527	111.837
692.9064	112.0253
693.0599	114.7998
693.2136	114.3927
693.3671	114.0539
693.5207	115.6766
693.6742	113.0573
693.8278	112.6403
693.9813	111.2623
694.1348	111.56
694.2883	109.4399
694.4418	109.9886
694.5953	108.8658
694.7488	106.128
694.9023	113.5549
695.0558	112.229
695.2093	113.7643
695.3627	116.6785
695.5162	115.1551
695.6696	111.1171
695.8231	113.8733
695.9764	112.6873
696.1299	112.277
696.2833	110.4067
696.4367	109.878
696.5901	112.8754
696.7435	114.895
696.8968	113.5301
697.0502	114.1508
697.2036	115.4058
697.3569	120.3981
697.5102	111.4807
697.6635	116.8624
697.8168	108.0162
697.9702	112.1712
698.1235	113.8947
698.2768	115.2519
698.4301	110.0336
698.5833	108.8057
698.7366	109.5018
698.8898	107.4175
699.0431	106.3701
699.1964	111.0914
699.3495	116.9751
699.5028	108.5021
699.656	109.8182
699.8092	107.502
699.9624	109.5807
700.1156	112.6844
700.2688	113.59
700.4219	98.97177
700.5751	101.6861
700.7283	107.3624
700.8814	107.15
701.0345	105.9025
701.1877	110.1568
701.3408	113.3959
701.4939	111.5961
701.647	107.8181
701.8001	107.3265
701.9532	111.1496
702.1063	109.551
702.2593	104.2272
702.4124	106.1317
702.5654	99.90339
702.7184	107.1131
702.8715	107.4081
703.0245	104.9862
703.1776	109.2225
703.3305	101.5834
703.4835	106.1081
703.6365	108.3458
703.7895	112.0563
703.9424	109.1901
704.0954	107.8849
704.2484	108.9907
704.4013	110.557
704.5543	117.7656
704.7072	110.9664
704.8601	104.663
705.013	105.146
705.1659	107.3313
705.3188	106.6602
705.4717	111.707
705.6246	108.2122
705.7774	109.4493
705.9303	104.5011
706.0831	106.9695
706.236	103.7482
706.3888	103.9571
706.5416	108.2353
706.6944	102.922
706.8472	110.4756
707	111.0983
707.1528	108.4731
707.3056	108.2968
707.4583	113.7369
707.6111	111.6772
707.7639	105.2268
707.9166	109.3
708.0693	112.5877
708.222	103.6736
708.3748	106.5556
708.5275	109.5449
708.6802	104.3449
708.8328	106.2162
708.9855	104.9014
709.1382	108.1011
709.2909	108.5399
709.4435	108.9733
709.5962	109.7622
709.7488	110.0898
709.9014	114.016
710.054	109.0579
710.2067	107.8814
710.3593	104.7921
710.5118	106.9524
710.6644	103.5303
710.817	105.8492
710.9695	106.2714
711.1221	106.2338
711.2747	100.228
711.4272	103.6729
711.5797	108.05
711.7322	105.145
711.8848	105.9011
712.0373	103.4697
712.1898	107.1459
712.3422	104.2393
712.4948	102.4293
712.6472	107.3871
712.7996	105.0221
712.9521	104.6277
713.1046	105.2031
713.257	99.88952
713.4094	102.2402
713.5618	108.1961
713.7142	102.952
713.8666	104.2279
714.019	105.778
714.1714	94.86336
714.3237	98.87216
714.4761	100.0064
714.6285	100.8108
714.7808	106.0554
714.9331	98.69936
715.0854	98.00159
715.2378	103.828
715.3901	102.451
715.5424	104.1306
715.6947	103.1226
715.8469	97.71364
715.9992	97.45175
716.1515	102.0852
716.3037	104.2878
716.456	100.0136
716.6082	94.30238
716.7604	88.54321
716.9127	89.81373
717.0649	94.2588
717.2171	93.01626
717.3693	89.02081
717.5214	84.31013
717.6736	84.45089
717.8258	88.33051
717.978	86.00089
718.1301	87.80049
718.2822	92.85754
718.4344	87.88201
718.5865	78.99699
718.7386	81.17593
718.8907	80.84177
719.0428	83.29641
719.1949	82.02928
719.3469	82.51807
719.499	78.09458
719.6511	83.08821
719.8031	81.18394
719.9551	88.55147
720.1072	88.30758
720.2592	76.93877
720.4112	76.18278
720.5632	80.92844
720.7152	81.99829
720.8672	87.93052
721.0192	89.64141
721.1711	85.01951
721.3231	90.46343
721.475	100.3668
721.627	89.43835
721.7789	88.42952
721.9308	95.6362
722.0828	98.69492
722.2347	100.4661
722.3866	99.22366
722.5385	93.34768
722.6903	85.84555
722.8422	86.17913
722.9941	86.87267
723.1459	90.65368
723.2977	84.13408
723.4496	81.67228
723.6014	81.60123
723.7532	88.74403
723.905	85.39474
724.0568	83.38363
724.2086	84.37845
724.3604	85.78682
724.5121	82.30418
724.6639	84.81814
724.8157	94.44301
724.9674	87.40582
725.1191	78.70634
725.2709	80.884
725.4226	80.92506
725.5743	79.88745
725.726	87.08469
725.8777	83.98761
726.0294	83.9815
726.181	83.85368
726.3327	80.71777
726.4844	84.15312
726.636	86.03053
726.7877	85.6894
726.9393	89.32339
727.0909	83.74517
727.2425	83.10048
727.3941	84.65337
727.5457	80.24368
727.6973	76.67825
727.8488	79.73536
728.0004	81.2114
728.1519	88.33948
728.3035	83.2644
728.455	86.01698
728.6066	86.98676
728.7581	82.16629
728.9095	84.30474
729.0611	80.82559
729.2126	82.29333
729.364	81.75358
729.5155	84.07395
729.667	85.48505
729.8184	90.25996
729.9698	88.03128
730.1213	86.62667
730.2727	82.02168
730.4241	85.00869
730.5756	82.86675
730.7269	81.54045
730.8784	80.95099
731.0297	83.40991
731.1811	83.77315
731.3325	79.24304
731.4838	82.81481
731.6351	88.99033
731.7865	87.15379
731.9378	82.72159
732.0891	88.26832
732.2404	85.69398
732.3917	88.50229
732.543	88.21146
732.6943	89.28687
732.8456	84.85318
732.9968	89.67105
733.1481	91.57018
733.2993	91.69515
733.4506	85.94753
733.6018	83.72618
733.753	81.59696
733.9042	90.16105
734.0554	94.41064
734.2066	92.52618
734.3578	92.96851
734.509	86.86288
734.6602	87.67729
734.8113	88.703
734.9624	87.5052
735.1136	84.64777
735.2647	85.93277
735.4158	84.19891
735.5669	87.94335
735.718	89.9769
735.8691	89.01958
736.0201	80.47964
736.1713	85.23756
736.3223	84.67062
736.4733	91.46223
736.6244	84.71695
736.7755	85.61012
736.9265	86.44735
737.0775	91.99719
737.2285	88.29869
737.3795	88.86723
737.5305	91.64217
737.6815	89.07806
737.8324	88.66021
737.9834	90.17782
738.1343	82.0285
738.2853	83.25572
738.4362	84.77078
738.5871	80.46257
738.738	82.84056
738.8889	83.29295
739.0399	76.05207
739.1907	85.31816
739.3416	83.20168
739.4925	82.14867
739.6433	82.21027
739.7942	85.69296
739.945	82.68124
740.0958	88.12158
740.2467	86.28793
740.3975	83.12132
740.5483	92.50551
740.6991	87.00271
740.8499	83.54885
741.0007	86.05256
741.1514	83.12054
741.3022	83.38634
741.4529	84.62499
741.6036	81.51466
741.7544	85.28179
741.9051	83.7359
742.0558	86.65657
742.2065	87.81872
742.3572	88.63287
742.5079	84.77167
742.6586	84.04515
742.8093	86.55785
742.9599	85.07592
743.1105	82.59084
743.2612	84.09196
743.4118	85.28214
743.5624	82.70039
743.7131	89.31681
743.8636	81.67009
744.0142	82.67267
744.1648	85.49463
744.3154	77.30982
744.4659	84.60375
744.6165	84.62521
744.767	83.00885
744.9176	82.82854
745.0681	83.76052
745.2186	86.40807
745.3691	83.93951
745.5197	86.27226
745.6702	83.67031
745.8206	87.8847
745.9711	82.78389
746.1215	79.97156
746.272	79.67231
746.4224	81.13591
746.5729	85.54906
746.7233	84.1323
746.8737	79.95529
747.0241	80.77888
747.1745	83.37157
747.3249	81.28743
747.4753	77.90874
747.6257	76.10497
747.776	81.59623
747.9264	73.44635
748.0767	79.88039
748.2271	75.15917
748.3774	78.23681
748.5276	76.34978
748.678	73.8954
748.8282	84.49982
748.9786	78.54128
749.1288	78.01379
749.2791	76.22388
749.4294	73.61382
749.5796	75.28844
749.7299	74.24368
749.8801	78.28622
750.0303	79.25233
750.1805	76.66326
750.3307	81.00195
750.4809	81.41496
750.6311	78.30989
750.7813	74.61813
750.9314	76.72192
751.0816	78.62455
751.2318	75.70383
751.3818	76.17744
751.532	79.20831
751.6821	80.97602
751.8322	77.56608
751.9823	80.39281
752.1324	75.43818
752.2825	72.29533
752.4326	73.84241
752.5826	74.5877
752.7327	74.57075
752.8827	76.38802
753.0327	74.54956
753.1827	78.59969
753.3328	74.21137
753.4828	75.22907
753.6328	76.79626
753.7828	79.44169
753.9327	75.72343
754.0827	75.26631
754.2327	77.37564
754.3826	81.53986
754.5325	73.76896
754.6825	73.63407
754.8324	78.63762
754.9823	74.54871
755.1322	71.61742
755.2821	73.56417
755.432	77.57434
755.5818	73.82097
755.7318	70.33665
755.8816	78.56399
756.0314	72.10155
756.1813	71.32239
756.3311	74.58169
756.4809	66.80613
756.6307	72.41798
756.7805	71.66088
756.9303	72.78222
757.0801	67.09384
757.2299	67.88525
757.3796	74.9758
757.5294	72.69234
757.6791	68.49012
757.8289	74.05631
757.9786	73.92982
758.1283	74.07261
758.278	71.79992
758.4277	71.84681
758.5773	68.48196
758.7271	65.9436
758.8767	66.69643
759.0264	67.23177
759.176	66.41737
759.3256	65.25431
759.4753	57.36034
759.6249	46.8698
759.7745	42.07657
759.9241	42.67673
760.0737	37.71666
760.2233	36.20054
760.3729	36.69231
760.5224	32.38159
760.6719	29.9777
760.8215	31.13452
760.971	34.98507
761.1205	33.56189
761.2701	41.58261
761.4196	41.3459
761.5691	42.86433
761.7186	49.4493
761.868	51.68154
762.0175	49.48436
762.167	51.52475
762.3164	50.85298
762.4659	45.49282
762.6153	43.77485
762.7647	37.95776
762.9141	47.06858
763.0635	43.03814
763.2129	40.6623
763.3623	40.75779
763.5117	39.0439
763.661	40.32284
763.8104	41.05482
763.9597	38.32732
764.1091	45.42067
764.2584	46.90065
764.4077	49.258
764.557	47.75727
764.7063	44.7975
764.8556	46.92201
765.0049	48.44931
765.1541	56.59316
765.3034	50.53746
765.4526	46.15725
765.6019	48.30625
765.7511	56.01777
765.9003	58.79879
766.0496	55.81166
766.1987	54.26399
766.348	51.3247
766.4971	53.56559
766.6463	54.436
766.7955	54.61594
766.9446	54.775
767.0938	53.73149
767.2429	60.58925
767.392	57.76439
767.5411	54.6744
767.6902	61.64816
767.8394	62.88769
767.9884	63.87432
768.1375	58.93428
768.2866	57.39891
768.4356	62.96518
768.5847	60.86271
768.7337	57.16661
768.8828	55.57622
769.0317	60.28307
769.1808	63.78296
769.3298	59.35933
769.4788	61.09827
769.6277	59.8285
769.7767	59.82367
769.9257	61.7872
770.0746	54.8092
770.2236	61.04081
770.3725	61.53065
770.5214	60.9446
770.6703	63.65564
770.8193	64.1351
770.9681	57.70643
771.1171	60.94075
771.2659	56.12819
771.4148	57.8717
771.5637	59.48294
771.7125	57.44981
771.8613	63.53474
772.0101	63.04433
772.159	58.4382
772.3078	56.97793
772.4566	59.68209
772.6054	57.36117
772.7542	57.1927
772.903	53.72433
773.0517	59.87057
773.2004	61.46008
773.3492	59.59117
773.4979	60.36403
773.6467	54.86245
773.7953	56.567
773.944	57.73966
774.0928	54.81562
774.2415	55.30271
774.3901	54.52066
774.5388	54.80608
774.6874	57.63278
774.8361	56.91413
774.9847	57.95436
775.1334	54.69538
775.282	53.86703
775.4305	53.46912
775.5792	52.91133
775.7277	49.96558
775.8763	51.31707
776.0249	53.54756
776.1735	53.37896
776.322	55.7449
776.4705	56.44963
776.6191	49.25271
776.7676	58.87592
776.9161	56.8709
777.0646	52.29889
777.2131	53.05576
777.3616	55.36019
777.5101	60.68661
777.6585	56.54319
777.8069	54.80758
777.9554	56.16095
778.1038	57.11886
778.2523	55.99614
778.4007	49.85263
778.5491	53.96585
778.6974	59.52525
778.8459	55.18987
778.9942	50.9229
779.1426	51.44897
779.291	55.30831
779.4393	53.98923
779.5876	54.17292
779.736	49.55647
779.8843	52.90076
780.0326	51.34803
780.1809	47.72084
780.3292	46.05782
780.4775	48.31429
780.6257	54.15969
780.774	55.32418
780.9222	52.62489
781.0704	52.6898
781.2187	55.86447
781.3669	57.84961
781.5151	51.71828
781.6633	52.36109
781.8115	53.38816
781.9597	53.2143
782.1078	57.85246
782.256	52.81079
782.4042	49.57479
782.5523	54.16291
782.7004	55.97277
782.8486	57.11219
782.9967	56.93527
783.1448	51.84727
783.2929	56.19206
783.441	45.26752
783.5891	49.55878
783.7371	51.85754
783.8851	51.92081
784.0332	50.50673
784.1812	55.08995
784.3293	52.45226
784.4773	53.40421
784.6253	51.80494
784.7733	50.44607
784.9213	47.18379
785.0692	51.32518
785.2172	45.11029
785.3652	49.73655
785.5131	53.80462
785.6611	51.08089
785.809	49.41405
785.9569	53.12851
786.1048	55.72326
786.2527	48.37305
786.4006	49.47813
786.5485	48.38512
786.6964	49.93168
786.8442	49.1787
786.9921	52.75522
787.1399	56.33118
787.2877	48.01569
787.4355	52.56478
787.5833	50.00168
787.7311	51.82911
787.8789	50.68316
788.0267	48.08068
788.1745	49.58068
788.3223	54.64194
788.47	52.42859
788.6177	51.79958
788.7654	48.51237
788.9132	44.97539
789.0609	47.24534
789.2086	44.81928
789.3563	46.65071
789.504	50.36795
789.6517	53.86926
789.7993	48.2044
789.947	47.11842
790.0946	45.63491
790.2422	48.59435
790.3898	46.53262
790.5375	45.75331
790.6851	43.81235
790.8326	44.03667
790.9802	45.90424
791.1278	46.79322
791.2754	45.41811
791.423	44.64001
791.5705	47.61054
791.718	48.78378
791.8655	38.604
792.0131	46.43444
792.1606	48.41072
792.308	45.22202
792.4556	52.62228
792.603	45.14124
792.7505	44.89496
792.8979	44.94662
793.0454	48.9828
793.1928	45.82091
793.3403	46.81661
793.4877	44.03236
793.6351	44.37747
793.7825	50.38063
793.9299	48.98673
794.0772	43.51719
794.2246	44.98052
794.3719	48.90858
794.5193	43.50273
794.6666	44.92913
794.814	42.52158
794.9613	43.36987
795.1086	45.52574
795.2559	49.39306
795.4032	53.04336
795.5505	52.13389
795.6978	54.03228
795.845	43.70228
795.9922	42.4954
796.1395	45.27749
796.2867	43.0178
796.4339	49.41771
796.5811	45.3376
796.7283	43.75134
796.8755	45.24558
797.0227	47.15383
797.1699	42.42003
797.317	41.73781
797.4642	48.34583
797.6113	46.00446
797.7584	42.40104
797.9056	44.14695
798.0527	42.23714
798.1998	47.1875
798.3469	44.90137
798.494	42.39506
798.641	44.15075
798.7881	43.11786
798.9351	39.99924
799.0822	39.30447
799.2292	39.83212
799.3762	46.38523
799.5232	46.93401
799.6702	44.96831
799.8172	39.68468
799.9642	42.20099
800.1111	43.81676
800.2581	41.0138
800.4051	40.43446
800.552	38.14194
800.6989	38.82273
800.8458	40.93729
800.9927	39.1892
801.1396	43.91901
801.2866	40.68873
801.4334	41.03585
801.5803	44.30456
801.7272	47.95507
801.874	39.76676
802.0209	46.45764
802.1677	40.66189
802.3145	40.51164
802.4613	39.6969
802.6081	42.20521
802.7549	44.38363
802.9017	43.81527
803.0485	43.51413
803.1952	42.74225
803.342	40.8769
803.4887	40.69846
803.6354	39.17667
803.7822	42.17692
803.9289	47.37639
804.0756	45.9311
804.2223	44.88958
804.369	40.34111
804.5156	37.49614
804.6623	37.7935
804.8089	37.43133
804.9556	36.20856
805.1022	38.27028
805.2488	40.66638
805.3954	42.21873
805.542	43.18994
805.6886	43.18055
805.8352	40.1326
805.9818	39.35907
806.1283	40.01608
806.2749	42.37736
806.4214	38.10882
806.5679	37.92499
806.7145	35.64605
806.861	37.28088
807.0074	35.49691
807.154	41.40343
807.3004	38.18882
807.4469	33.99982
807.5934	39.76192
807.7398	38.64969
807.8862	33.87659
808.0327	38.57581
808.1791	33.99223
808.3255	39.33417
808.4719	39.03429
808.6183	41.70234
808.7647	39.12959
808.9111	38.15034
809.0574	36.77973
809.2037	35.92517
809.3501	33.31912
809.4965	39.19593
809.6428	41.90673
809.7891	39.47184
809.9354	33.05956
810.0817	33.58968
810.2279	37.8987
810.3742	32.70084
810.5204	35.8711
810.6667	33.15115
810.8129	35.28119
810.9592	38.19736
811.1054	37.21815
811.2516	35.73206
811.3978	39.16597
811.5439	37.71138
811.6901	34.77734
811.8363	31.90421
811.9825	32.75595
812.1286	34.25461
812.2748	32.38655
812.4209	33.90748
812.567	33.63681
812.7131	33.34983
812.8592	34.57796
813.0053	36.51318
813.1514	33.77375
813.2974	32.72032
813.4435	30.85744
813.5895	31.588
813.7356	29.22484
813.8816	27.39343
814.0276	28.74257
814.1736	29.72249
814.3196	30.95309
814.4656	35.27182
814.6116	34.11576
814.7576	27.46813
814.9035	29.72966
815.0494	29.33784
815.1954	27.28665
815.3413	27.12862
815.4872	33.51486
815.6331	29.95895
815.779	26.6225
815.9249	30.83627
816.0707	33.56542
816.2166	30.42014
816.3625	27.90594
816.5083	23.15558
816.6542	30.48743
816.8	25.50565
816.9458	28.94535
817.0916	28.03479
817.2374	31.53704
817.3832	29.09526
817.5289	27.79449
817.6747	28.32807
817.8204	28.63325
817.9662	23.81925
818.1119	28.34322
818.2576	30.65636
818.4034	32.07013
818.5491	33.83378
818.6948	30.11774
818.8405	31.65794
818.9861	28.61226
819.1318	30.31807
819.2774	31.04826
819.423	26.17592
819.5687	27.5279
819.7143	28.89733
819.8599	28.54525
820.0055	34.49886
820.1511	35.07235
820.2967	33.46283
820.4422	33.20499
820.5878	29.06105
820.7333	36.01262
820.8788	31.70027
821.0244	31.24564
821.1699	27.21037
821.3154	29.00613
821.4609	26.23206
821.6064	26.6202
821.7519	33.25677
821.8973	30.11776
822.0428	30.42221
822.1882	29.47325
822.3337	31.57987
822.4791	30.64997
822.6245	25.17721
822.7699	23.99478
822.9153	22.21391
823.0607	22.58735
823.2061	22.33649
823.3514	25.98532
823.4968	24.10804
823.6422	29.39573
823.7875	32.31025
823.9328	27.67187
824.0781	24.46199
824.2234	24.4295
824.3687	25.17599
824.514	23.90272
824.6592	30.11908
824.8045	33.33458
824.9498	32.14849
825.095	25.31826
825.2402	29.33754
825.3854	28.68455
825.5306	28.65572
825.6758	23.94802
825.821	23.11314
825.9662	26.04087
826.1114	30.66843
826.2565	29.92833
826.4017	29.22213
826.5468	32.94291
826.692	32.78732
826.837	28.78752
826.9822	30.16974
827.1273	25.34607
827.2723	22.09867
827.4174	26.12454
827.5625	27.07613
827.7075	25.23681
827.8526	26.45849
827.9976	26.93128
828.1426	24.91982
828.2877	26.99412
828.4327	25.28942
828.5776	24.53317
828.7227	29.28327
828.8676	29.30847
829.0126	27.76299
829.1575	22.95956
829.3024	26.18229
829.4474	25.03579
829.5923	25.79449
829.7372	27.29533
829.8821	27.06537
830.027	25.92453
830.1719	27.59449
830.3168	25.34894
830.4616	27.36927
830.6064	24.46148
830.7513	27.91273
830.8961	29.11704
831.041	24.80567
831.1857	25.33864
831.3306	25.46254
831.4753	28.91594
831.6201	30.42321
831.7649	28.60859
831.9096	26.33457
832.0544	22.11935
832.1991	23.74223
832.3438	25.98991
832.4885	24.41592
832.6332	27.28559
832.778	26.9924
832.9226	25.37034
833.0673	30.45909
833.2119	26.00534
833.3566	24.26333
833.5012	25.62988
833.6459	23.66257
833.7905	23.43388
833.9351	25.90742
834.0797	24.80514
834.2243	26.85188
834.3688	29.86207
834.5134	29.87785
834.658	26.02986
834.8026	25.01081
834.9471	30.81907
835.0916	26.56896
835.2361	27.45951
835.3806	27.87992
835.5251	25.47393
835.6696	26.63476
835.8141	29.30769
835.9586	24.65697
836.103	28.42296
836.2474	30.56305
836.3918	28.74287
836.5363	26.97276
836.6807	24.59768
836.8251	23.76059
836.9695	25.51017
837.1138	22.65783
837.2582	23.53166
837.4026	18.75445
837.5469	26.0997
837.6913	28.12517
837.8356	31.09189
837.9799	31.06522
838.1242	26.0495
838.2686	23.72155
838.4128	22.13769
838.5571	25.76984
838.7014	25.833
838.8456	25.48329
838.9899	24.84276
839.1341	27.32663
839.2783	25.12204
839.4225	24.76958
839.5667	25.41235
839.7109	27.18138
839.8551	24.80469
839.9993	25.85858
840.1434	20.73525
840.2876	23.69778
840.4317	18.40862
840.5759	20.92601
840.72	24.7132
840.8641	20.22793
841.0082	25.55586
841.1523	22.40775
841.2963	22.73484
841.4404	22.17503
841.5845	20.67754
841.7285	27.22684
841.8726	23.76413
842.0165	23.69187
842.1606	26.98365
842.3046	24.85783
842.4485	27.43531
842.5925	28.2966
842.7365	24.99313
842.8805	25.45637
843.0244	24.45814
843.1684	25.79373
843.3123	26.71544
843.4562	26.24257
843.6002	22.7231
843.744	25.75017
843.8879	21.19062
844.0318	19.67526
844.1757	22.39613
844.3195	21.34889
844.4634	19.30942
844.6072	24.31764
844.751	29.10034
844.8948	28.71679
845.0386	25.23149
845.1824	23.24652
845.3262	24.19637
845.47	22.87694
845.6138	20.05479
845.7575	19.03694
845.9012	21.64955
846.045	21.59537
846.1887	21.3959
846.3324	22.42555
846.4761	24.99645
846.6198	25.20977
846.7635	25.86987
846.9071	22.76239
847.0508	23.87825
847.1944	26.45193
847.3381	23.81772
847.4817	25.50998
847.6253	20.09606
847.7689	24.52512
847.9125	23.98569
848.0561	22.28595
848.1996	26.95824
848.3432	28.26722
848.4868	29.70835
848.6303	29.12146
848.7738	25.64322
848.9174	24.49363
849.0609	23.89656
849.2043	20.53093
849.3478	20.84637
849.4913	20.57061
849.6348	19.80209
849.7782	19.35994
849.9217	24.75778
850.0651	25.5853
850.2086	17.31476
850.3519	18.49578
850.4954	20.62395
850.6387	20.94395
850.7821	21.90136
850.9255	18.32326
851.0688	25.2265
851.2122	23.42172
851.3555	17.76221
851.4988	20.73373
851.6422	20.90495
851.7855	21.22088
851.9288	21.92697
852.0721	21.61984
852.2153	25.00528
852.3586	18.78297
852.5018	22.43255
852.6451	18.35497
852.7883	17.82019
852.9315	19.61188
853.0748	20.53295
853.218	19.09078
853.3611	24.62766
853.5043	23.20967
853.6475	22.73814
853.7906	22.37143
853.9338	18.49217
854.0769	16.78172
854.22	17.72649
854.3632	21.00661
854.5063	22.75644
854.6494	20.12854
854.7924	16.63873
854.9355	17.19638
855.0786	19.68909
855.2216	21.8647
855.3647	23.23802
855.5077	18.53815
855.6507	19.59464
855.7937	16.73401
855.9367	19.95071
856.0797	21.32089
856.2227	17.73299
856.3657	23.61857
856.5086	21.60843
856.6516	24.14496
856.7945	19.59641
856.9374	24.04074
857.0803	21.9429
857.2232	20.52966
857.3661	15.54109
857.509	20.51328
857.6519	17.57528
857.7947	16.96094
857.9376	19.99697
858.0804	17.78866
858.2232	24.53186
858.366	19.53042
858.5089	22.04913
858.6516	24.27896
858.7944	24.30711
858.9372	26.2132
859.08	21.27703
859.2227	15.33397
859.3654	19.35769
859.5082	19.14231
859.6509	20.71994
859.7936	19.4313
859.9363	23.67503
860.079	19.50164
860.2217	21.08767
860.3643	19.0208
860.507	20.5665
860.6496	18.20339
860.7922	15.99384
860.9349	17.21346
861.0775	18.22229
861.2201	21.22398
861.3627	19.17376
861.5052	18.32142
861.6478	18.01883
861.7904	21.2005
861.9329	19.26697
862.0755	21.1004
862.218	16.23869
862.3605	20.86578
862.503	19.22917
862.6455	21.84608
862.788	17.803
862.9305	19.33722
863.0729	23.84677
863.2154	17.95473
863.3578	18.51688
863.5002	20.93211
863.6426	17.92968
863.7851	19.02837
863.9275	20.59312
864.0698	22.11259
864.2122	22.95838
864.3546	19.2449
864.4969	22.2136
864.6393	21.82227
864.7816	21.45531
864.924	22.56128
865.0662	16.20714
865.2086	15.60463
865.3508	17.98078
865.4931	18.33655
865.6354	17.85762
865.7776	15.71575
865.9199	20.12007
866.0621	19.80409
866.2043	21.79493
866.3466	16.40296
866.4888	17.20896
866.6309	20.64791
866.7731	16.34174
866.9153	18.12045
867.0574	18.65483
867.1996	21.8245
867.3417	22.8279
867.4839	16.14131
867.626	17.48711
867.7681	15.20467
867.9102	17.66615
868.0522	19.12175
868.1943	16.03457
868.3364	15.48131
868.4785	20.04766
868.6205	21.94254
868.7625	21.72511
868.9045	19.4874
869.0465	16.73449
869.1885	17.87153
869.3305	15.14766
869.4725	16.62011
869.6144	18.94164
869.7564	13.5995
869.8983	17.14871
870.0403	19.07401
870.1822	19.4232
870.3241	17.02691
870.466	20.74018
870.6079	21.14967
870.7498	16.22623
870.8916	20.31299
871.0335	21.71515
871.1754	17.67131
871.3171	15.86797
871.459	21.19683
871.6008	19.32792
871.7426	18.71686
871.8844	16.71756
872.0262	10.64801
872.1679	17.44731
872.3097	19.486
872.4514	16.37244
872.5931	14.18323
872.7349	11.5586
872.8766	14.1694
873.0183	22.38075
873.16	18.29897
873.3017	13.0185
873.4434	16.77502
873.585	19.50286
873.7266	13.78685
873.8683	14.72955
874.0099	18.47753
874.1516	16.32208
874.2932	18.2111
874.4348	16.53481
874.5763	14.2763
874.7179	16.20293
874.8594	19.03758
875.001	20.76687
875.1425	17.35883
875.2841	11.11015
875.4256	13.70933
875.5671	15.0969
875.7086	17.92797
875.85	17.65395
875.9915	19.73159
876.133	19.85297
876.2744	17.81255
876.4159	16.15001
876.5573	15.64221
876.6987	15.69031
876.8401	18.98092
876.9815	16.0652
877.1229	21.13088
877.2643	19.37916
877.4056	19.82899
877.547	15.10754
877.6884	17.04788
877.8297	12.27014
877.971	11.63572
878.1123	13.1696
878.2536	18.16596
878.3949	16.78618
878.5362	17.08703
878.6774	14.41416
878.8187	17.79689
878.9599	17.77512
879.1011	15.21218
879.2424	14.65527
879.3836	17.21918
879.5248	15.41138
879.666	13.56997
879.8071	13.43342
879.9483	17.02199
880.0895	11.26663
880.2306	13.03457
880.3718	14.39531
880.5129	13.99842
880.654	13.93598
880.7951	15.92456
880.9362	13.00215
881.0773	15.7638
881.2183	16.64185
881.3594	15.96052
881.5004	10.92019
881.6414	15.3367
881.7825	13.19837
881.9235	15.56616
882.0645	16.39763
882.2054	17.24614
882.3464	16.52998
882.4874	12.26155
882.6284	12.12101
882.7693	19.70079
882.9103	15.51943
883.0512	17.16525
883.1921	16.6353
883.333	15.89501
883.4739	17.39445
883.6147	16.67435
883.7556	15.8683
883.8965	14.52325
884.0374	17.45376
884.1782	20.22557
884.319	13.41751
884.4598	13.16508
884.6006	16.89826
884.7414	15.56517
884.8822	14.71024
885.0229	13.36633
885.1637	13.9652
885.3044	18.17944
885.4452	17.06286
885.5859	15.97903
885.7266	16.99507
885.8673	15.72914
886.008	19.02174
886.1487	15.21354
886.2894	14.23265
886.43	11.51485
886.5707	12.62984
886.7113	12.25157
886.8519	20.02637
886.9926	17.94769
887.1331	18.40574
887.2737	15.29918
887.4143	13.10482
887.5549	16.36859
887.6954	14.73041
887.836	13.68365
887.9765	13.71098
888.1171	18.52312
888.2576	19.6333
888.3981	14.84576
888.5386	18.34008
888.679	16.89968
888.8195	14.24247
888.96	16.04097
889.1004	18.59751
889.2408	15.99691
889.3813	15.07948
889.5217	15.34841
889.6621	16.19854
889.8025	15.84543
889.9429	14.27718
890.0833	11.75994
890.2236	13.291
890.364	10.20834
890.5043	12.43406
890.6446	16.29306
890.7849	14.35657
890.9252	15.94226
891.0655	17.88593
891.2058	12.55292
891.3461	15.00691
891.4863	15.65418
891.6266	14.55709
891.7668	13.97871
891.907	13.57761
892.0472	15.21664
892.1874	15.44671
892.3276	12.23957
892.4678	13.97327
892.608	17.76845
892.7481	13.37524
892.8883	9.254277
893.0284	11.59283
893.1685	15.4505
893.3087	15.58224
893.4487	13.51691
893.5889	14.4903
893.7289	16.28757
893.869	15.08232
894.009	15.89551
894.1491	16.10309
894.2891	16.47343
894.4291	15.39276
894.5692	12.55429
894.7092	10.29058
894.8491	9.42972
894.9891	10.96741
895.1291	13.63502
895.269	11.3176
895.409	12.8599
895.549	15.22795
895.6888	12.38175
895.8288	9.736431
895.9687	7.950677
896.1086	9.348057
896.2484	14.51723
896.3883	12.79338
896.5281	14.51944
896.668	11.38908
896.8079	12.0431
896.9476	9.845319
897.0875	6.102143
897.2272	12.29121
897.3671	11.90372
897.5068	12.84403
897.6466	11.85935
897.7864	12.81723
897.9261	12.98386
898.0658	11.64236
898.2056	9.291115
898.3453	9.916433
898.4849	13.29809
898.6246	9.836553
898.7643	12.67939
898.904	5.26873
899.0436	13.27777
899.1833	9.29063
899.3229	13.07746
899.4625	11.81555
899.6021	11.83888
899.7417	13.92915
899.8813	12.62594
900.0209	10.74485
900.1605	11.71871
900.3	3.82594
900.4395	10.22489
900.579	11.8877
900.7186	11.50944
900.8581	13.30499
900.9976	12.92091
901.1371	9.070975
901.2766	12.71708
901.416	16.3105
901.5555	11.32754
901.6949	6.670336
901.8344	9.978713
901.9738	15.66259
902.1132	7.412885
902.2526	8.22884
902.3919	7.435193
902.5313	12.69728
902.6707	4.00421
