SPECTRUM DATA FILE
SpectrumCount:	1
PixelCount:	3648
UserName:	ToughBook User
SampleName:	
LightSource:	
Comments:	
DeviceName:	Qwave
DeviceManufacturer:	Broadcom
DeviceSerialNo:	11311

Name:	last spectrum
Date:	2024-05-02T15:22:51.7432567+02:00
ExposureTime:	0.02
TemporalAvg:	1
IntensityUnit:	normalizedCounts
CCDLoadLevel:	0.0748779
Temperature:	29.98056
DiagramColor:	200
ProcessingSteps:	335

Wavelength [nm]	Intensity1
334.421	13.80814
334.5891	18.60598
334.7573	16.52779
334.9254	15.48285
335.0935	19.54677
335.2616	22.10446
335.4297	18.59317
335.5978	16.33723
335.7659	16.29847
335.934	13.33539
336.1021	14.35703
336.2701	12.08489
336.4382	14.67991
336.6063	17.13402
336.7744	12.59579
336.9424	16.33762
337.1105	12.23577
337.2785	14.67855
337.4466	19.10432
337.6146	24.47537
337.7827	20.51783
337.9507	20.3997
338.1187	20.80673
338.2867	15.89326
338.4548	17.04591
338.6228	17.29766
338.7908	14.69354
338.9588	16.28257
339.1268	15.40785
339.2948	22.48043
339.4628	20.87354
339.6308	18.41882
339.7988	19.91279
339.9667	16.4313
340.1347	20.33804
340.3027	25.01371
340.4707	20.43199
340.6386	16.53867
340.8066	17.618
340.9745	20.0543
341.1425	17.63396
341.3104	18.69053
341.4784	19.93446
341.6463	18.65524
341.8142	22.0244
341.9821	23.39424
342.1501	16.47764
342.318	20.01849
342.4859	21.33774
342.6538	19.29764
342.8217	18.39076
342.9896	22.63424
343.1575	23.85603
343.3254	16.96713
343.4933	24.30905
343.6612	25.39022
343.829	20.73438
343.9969	15.37504
344.1648	16.97414
344.3326	18.10257
344.5005	17.80232
344.6683	15.63782
344.8362	19.77747
345.004	18.83177
345.1719	24.58439
345.3397	21.59661
345.5075	22.49048
345.6754	26.04653
345.8432	19.19489
346.011	15.09147
346.1788	25.1503
346.3466	23.41916
346.5144	17.28398
346.6822	23.74658
346.85	22.56035
347.0178	21.95772
347.1856	20.60694
347.3534	21.27879
347.5211	24.22752
347.6889	20.03
347.8567	21.44618
348.0244	20.45452
348.1922	20.72953
348.3599	18.03952
348.5277	19.20814
348.6954	23.39007
348.8632	20.7994
349.0309	17.63499
349.1986	18.59039
349.3663	22.43335
349.5341	19.89721
349.7018	19.66801
349.8695	23.11753
350.0372	26.00566
350.2049	27.2373
350.3726	26.63573
350.5403	25.90193
350.7079	23.75815
350.8756	22.43892
351.0433	21.4403
351.211	23.3419
351.3786	22.78352
351.5463	23.19239
351.714	22.77626
351.8816	21.33625
352.0493	28.01174
352.2169	23.71411
352.3846	21.29026
352.5522	22.07315
352.7198	23.42463
352.8875	23.50199
353.0551	33.2178
353.2227	26.25243
353.3903	25.07307
353.5579	29.02373
353.7255	25.44138
353.8931	26.02593
354.0607	25.00713
354.2283	30.5697
354.3958	31.25166
354.5634	32.26873
354.731	34.85566
354.8986	32.45922
355.0661	27.39228
355.2337	30.20909
355.4012	23.07339
355.5688	22.92799
355.7363	26.32743
355.9039	29.30945
356.0714	27.40807
356.239	31.65254
356.4065	26.85434
356.574	23.00603
356.7415	20.02425
356.909	23.49294
357.0765	19.55309
357.244	20.46038
357.4115	23.51685
357.579	22.99117
357.7465	24.50614
357.914	27.8636
358.0815	20.59729
358.249	17.63752
358.4164	20.75109
358.5839	21.29807
358.7513	21.7746
358.9188	25.17069
359.0862	29.08039
359.2537	32.3688
359.4211	30.8564
359.5886	32.1314
359.756	35.95712
359.9234	35.0578
360.0909	29.35759
360.2583	28.16181
360.4257	31.33462
360.5931	26.48343
360.7605	25.61122
360.9279	26.58155
361.0953	28.4938
361.2627	27.84897
361.4301	32.47519
361.5974	28.82592
361.7648	22.50925
361.9322	22.79423
362.0995	29.81048
362.2669	33.14383
362.4343	31.21354
362.6016	29.18363
362.769	32.86743
362.9363	36.93766
363.1036	28.37337
363.271	30.70551
363.4383	34.33062
363.6056	39.59485
363.7729	33.8473
363.9402	33.11094
364.1075	34.13651
364.2748	28.96465
364.4421	30.55608
364.6094	36.50314
364.7767	31.44881
364.944	24.53715
365.1113	36.6032
365.2786	37.22785
365.4458	31.05449
365.6131	34.02866
365.7803	37.69091
365.9476	35.09165
366.1148	36.06161
366.2821	38.04406
366.4493	36.92936
366.6166	38.57544
366.7838	40.27695
366.951	39.68969
367.1182	38.74345
367.2855	35.39056
367.4527	40.09772
367.6199	32.72873
367.7871	29.78913
367.9543	38.00718
368.1215	34.93228
368.2886	40.19102
368.4558	37.53178
368.623	36.98464
368.7902	36.11805
368.9573	37.05998
369.1245	43.10422
369.2917	45.06239
369.4588	41.88443
369.6259	40.6114
369.7931	43.55447
369.9602	46.32856
370.1274	44.78934
370.2945	40.82788
370.4616	36.29235
370.6287	39.39462
370.7958	36.11777
370.963	40.3842
371.1301	45.49842
371.2971	45.52466
371.4643	45.58693
371.6313	43.85969
371.7984	40.87173
371.9655	34.18744
372.1326	30.09002
372.2997	35.40887
372.4667	37.15306
372.6338	45.14343
372.8008	45.49312
372.9679	43.05176
373.1349	38.30895
373.3019	34.47867
373.469	31.38471
373.636	33.82608
373.803	39.11062
373.9701	42.0094
374.1371	42.19037
374.3041	43.12069
374.4711	35.88589
374.6381	34.95665
374.8051	29.91918
374.9721	32.69252
375.1391	36.0977
375.3061	42.13056
375.473	46.82134
375.64	46.36202
375.8069	45.08886
375.9739	38.264
376.1409	42.71802
376.3078	43.66774
376.4748	41.03899
376.6417	43.36799
376.8087	42.15146
376.9756	45.63334
377.1425	49.18319
377.3094	51.13914
377.4763	53.56807
377.6432	51.44255
377.8102	55.08789
377.9771	61.42197
378.144	53.3449
378.3109	58.29089
378.4777	50.09112
378.6446	48.93604
378.8115	45.90806
378.9784	45.86394
379.1452	48.19594
379.3121	46.19968
379.4789	44.64068
379.6458	43.68003
379.8127	47.69708
379.9795	47.46649
380.1463	50.72506
380.3131	55.28105
380.48	58.1534
380.6468	57.58556
380.8136	52.71015
380.9804	52.09596
381.1472	50.73365
381.314	51.11703
381.4808	50.72826
381.6476	48.90371
381.8144	46.27859
381.9812	44.45698
382.148	44.90248
382.3147	40.43709
382.4815	35.95217
382.6483	34.08851
382.815	35.82462
382.9818	36.1335
383.1485	37.50427
383.3153	38.4403
383.482	35.84578
383.6487	38.61347
383.8155	40.86032
383.9822	36.31166
384.1489	42.61496
384.3156	51.12092
384.4823	50.7684
384.649	56.76172
384.8157	57.57311
384.9824	50.80339
385.1491	53.52771
385.3158	56.99712
385.4825	55.38656
385.6491	49.51187
385.8158	48.86928
385.9825	46.86167
386.1491	45.11105
386.3157	45.91842
386.4824	54.36429
386.649	57.61361
386.8157	56.34716
386.9823	47.83437
387.1489	48.38597
387.3156	51.79411
387.4821	53.74208
387.6488	55.1303
387.8154	55.91874
387.982	48.52481
388.1486	52.16483
388.3152	52.59783
388.4818	53.49067
388.6483	49.02393
388.8149	49.97951
388.9815	54.33133
389.148	59.56797
389.3146	62.4161
389.4811	70.5818
389.6477	69.97356
389.8142	65.11519
389.9808	63.65956
390.1473	70.38911
390.3138	64.19979
390.4804	58.9154
390.6469	62.132
390.8134	64.73502
390.9799	65.27394
391.1464	72.57738
391.3129	72.98218
391.4794	71.094
391.6459	61.95374
391.8124	66.58791
391.9789	71.30512
392.1453	63.95108
392.3118	63.06862
392.4782	63.36993
392.6447	56.09738
392.8112	49.15443
392.9776	42.3068
393.144	36.68767
393.3105	29.11726
393.4769	31.09984
393.6433	35.56596
393.8098	42.06826
393.9762	45.1431
394.1426	54.81802
394.309	62.4307
394.4754	62.62922
394.6418	66.26739
394.8082	79.03913
394.9746	77.67189
395.141	81.44905
395.3073	77.84468
395.4737	82.54523
395.64	79.25359
395.8064	82.65546
395.9728	69.6646
396.1391	68.64114
396.3055	59.99137
396.4718	56.11946
396.6381	44.8303
396.8045	30.04326
396.9708	36.78955
397.1371	43.96708
397.3034	49.21161
397.4697	60.03873
397.636	67.01269
397.8023	85.83994
397.9686	92.11053
398.1349	88.87696
398.3012	88.29987
398.4675	90.15843
398.6337	90.37376
398.8	97.60684
398.9662	98.97741
399.1325	98.60989
399.2988	103.2122
399.465	100.1031
399.6313	98.98949
399.7975	96.28243
399.9637	101.0404
400.1299	101.9815
400.2961	104.7277
400.4624	103.5557
400.6286	94.72134
400.7948	92.48535
400.961	102.7089
401.1272	106.7595
401.2934	107.1388
401.4595	108.3905
401.6257	107.7077
401.7919	106.8646
401.9581	108.0013
402.1242	111.0304
402.2904	109.5672
402.4565	114.7912
402.6227	112.3018
402.7888	118.8478
402.955	112.3861
403.1211	102.4689
403.2872	98.24411
403.4533	104.8503
403.6194	111.9565
403.7856	117.6595
403.9517	121.3276
404.1177	113.7317
404.2838	111.5533
404.4499	104.1152
404.616	97.26653
404.7821	105.7529
404.9482	117.6442
405.1142	121.4275
405.2803	110.8882
405.4464	120.0399
405.6124	109.9127
405.7784	109.2258
405.9445	115.6167
406.1105	112.0458
406.2766	106.9896
406.4426	105.4815
406.6086	107.3137
406.7746	110.5459
406.9406	122.0248
407.1066	117.0858
407.2726	114.2544
407.4386	113.8091
407.6046	113.9904
407.7706	108.9444
407.9366	109.3023
408.1025	117.2714
408.2685	122.7118
408.4344	130.41
408.6004	131.6023
408.7664	130.8424
408.9323	132.7933
409.0983	134.9802
409.2642	133.6068
409.4301	123.1622
409.596	122.9526
409.762	119.3663
409.9279	121.0033
410.0938	107.6729
410.2597	106.9096
410.4256	114.9512
410.5915	119.4839
410.7574	123.6138
410.9232	124.0267
411.0891	127.5538
411.255	129.0021
411.4209	137.8869
411.5867	143.8032
411.7526	136.7513
411.9184	136.4529
412.0843	133.8847
412.2501	132.8075
412.4159	137.3896
412.5818	134.6911
412.7476	131.7813
412.9134	130.1592
413.0792	132.0715
413.245	130.3681
413.4108	129.8679
413.5766	130.921
413.7424	143.7735
413.9082	140.3685
414.074	147.0729
414.2397	133.2038
414.4055	129.564
414.5713	134.5746
414.737	139.3622
414.9028	139.7164
415.0685	142.504
415.2343	134.9004
415.4	131.456
415.5658	132.3371
415.7315	139.167
415.8972	143.5697
416.0629	152.9865
416.2286	154.4527
416.3943	149.0069
416.56	148.3165
416.7257	147.601
416.8914	146.51
417.0571	138.5242
417.2228	138.2542
417.3884	135.7527
417.5541	135.5757
417.7198	145.0748
417.8854	142.2106
418.0511	141.0777
418.2167	142.7047
418.3824	142.475
418.548	140.6846
418.7136	135.9244
418.8792	140.583
419.0449	143.1498
419.2105	146.2318
419.3761	149.5382
419.5417	149.1182
419.7073	139.5295
419.8729	132.7268
420.0385	134.6508
420.204	134.3815
420.3696	152.3084
420.5352	157.8426
420.7007	156.8662
420.8663	157.694
421.0319	160.2553
421.1974	162.7567
421.3629	166.5237
421.5285	159.5495
421.694	147.7137
421.8595	158.2887
422.0251	165.3445
422.1906	165.2992
422.3561	161.9477
422.5216	137.7728
422.6871	125.9615
422.8526	139.8764
423.0181	155.0069
423.1835	163.7843
423.349	165.2681
423.5145	151.0808
423.68	148.4185
423.8454	151.3331
424.0109	153.9555
424.1763	160.0623
424.3418	169.2695
424.5072	171.3623
424.6726	161.3661
424.838	164.0171
425.0035	156.9856
425.1689	161.0379
425.3343	155.5735
425.4997	159.6333
425.6651	172.6774
425.8305	162.6014
425.9959	149.0314
426.1613	152.5116
426.3267	168.0593
426.492	174.6114
426.6574	172.1876
426.8228	171.0453
426.9881	155.5129
427.1534	142.8166
427.3188	137.6521
427.4841	149.3517
427.6495	153.7164
427.8148	163.0747
427.9801	163.8847
428.1454	161.205
428.3107	163.1944
428.476	166.5227
428.6414	160.0399
428.8066	158.4879
428.9719	148.6411
429.1372	149.3629
429.3025	153.6469
429.4678	152.3144
429.633	148.4641
429.7983	140.7883
429.9636	126.4626
430.1288	119.0327
430.294	118.677
430.4593	119.3812
430.6245	124.0594
430.7897	122.0805
430.955	116.0285
431.1202	123.6352
431.2854	132.7113
431.4506	154.8276
431.6158	180.3471
431.781	193.7708
431.9462	198.5768
432.1114	190.7541
432.2766	169.196
432.4417	156.8746
432.6069	150.0957
432.772	153.7769
432.9372	179.2699
433.1024	187.4368
433.2675	197.7177
433.4326	195.8637
433.5977	186.656
433.7629	177.4021
433.928	155.4729
434.0931	144.3214
434.2582	152.4163
434.4233	165.1152
434.5884	182.4404
434.7535	190.0082
434.9186	196.7682
435.0837	186.2526
435.2488	181.49
435.4138	185.0157
435.5789	188.0986
435.744	194.429
435.909	201.1143
436.0741	202.8083
436.2391	210.2621
436.4042	215.6247
436.5692	201.968
436.7342	207.4013
436.8992	197.2184
437.0643	197.4018
437.2293	200.5362
437.3943	202.0908
437.5593	193.2652
437.7243	197.6877
437.8893	203.7906
438.0542	202.2581
438.2192	190.2589
438.3842	173.2554
438.5491	162.7503
438.7141	181.9326
438.8791	193.5956
439.044	189.6618
439.209	193.3276
439.3739	205.1574
439.5388	210.1761
439.7037	207.3468
439.8687	209.6095
440.0336	208.3856
440.1985	198.3225
440.3634	188.3139
440.5283	185.5982
440.6932	197.2178
440.8581	207.0153
441.0229	213.8815
441.1878	234.3138
441.3527	230.9439
441.5175	210.6134
441.6824	213.1698
441.8472	219.6004
442.0121	226.4408
442.1769	234.1175
442.3418	226.9997
442.5066	223.8341
442.6714	220.9886
442.8362	223.3607
443.001	225.3524
443.1659	227.6985
443.3307	230.4287
443.4955	222.8889
443.6602	222.3015
443.825	227.4723
443.9898	230.9698
444.1546	229.2756
444.3193	225.8617
444.4841	241.9739
444.6488	236.9064
444.8136	235.2711
444.9783	241.0219
445.1431	236.6519
445.3078	230.658
445.4725	214.0334
445.6372	211.5294
445.802	208.8867
445.9667	208.0051
446.1314	219.4202
446.2961	225.6699
446.4608	239.9378
446.6255	234.4103
446.7901	231.6888
446.9548	228.199
447.1195	243.2074
447.2841	243.3698
447.4488	254.8575
447.6134	262.1917
447.7781	259.1648
447.9427	247.1101
448.1074	241.5837
448.272	237.984
448.4366	246.5889
448.6012	250.1282
448.7658	259.0473
448.9305	251.8705
449.095	245.3515
449.2596	242.7739
449.4242	244.3537
449.5888	248.4658
449.7534	251.37
449.9179	255.1968
450.0825	262.8452
450.2471	266.7686
450.4116	279.8928
450.5762	284.0674
450.7407	279.8818
450.9052	276.0339
451.0698	277.8442
451.2343	273.4972
451.3988	271.0725
451.5633	265.3136
451.7278	265.805
451.8923	269.8659
452.0568	274.773
452.2213	266.5316
452.3858	266.3182
452.5503	258.497
452.7148	247.123
452.8792	243.185
453.0437	242.8721
453.2081	244.0367
453.3726	250.2912
453.537	257.1779
453.7015	264.7686
453.8659	271.6944
454.0303	275.0684
454.1947	275.0269
454.3592	277.9996
454.5236	268.5058
454.688	261.0888
454.8524	254.1598
455.0168	255.0746
455.1811	250.2793
455.3455	263.0415
455.5099	264.9079
455.6743	257.8436
455.8386	269.4236
456.003	279.002
456.1673	280.4572
456.3317	282.3145
456.496	272.2879
456.6603	273.2076
456.8246	284.4238
456.989	284.5108
457.1533	276.7852
457.3176	274.8751
457.4819	275.2662
457.6462	284.4438
457.8105	288.2943
457.9748	275.78
458.1391	261.2814
458.3033	259.1034
458.4676	266.8105
458.6319	273.5
458.7961	276.6524
458.9604	282.0229
459.1246	276.7984
459.2888	265.4448
459.4531	270.8715
459.6173	270.0214
459.7815	261.3713
459.9457	268.6315
460.11	272.6969
460.2741	274.6521
460.4384	279.6302
460.6025	276.48
460.7667	283.2715
460.9309	283.7151
461.0951	281.8766
461.2592	280.3425
461.4234	283.6298
461.5876	277.5078
461.7517	277.9266
461.9159	286.0545
462.08	289.8068
462.2441	292.3965
462.4082	287.2893
462.5724	290.5414
462.7365	291.0167
462.9006	291.7009
463.0647	296.5004
463.2288	292.9115
463.3929	292.2766
463.557	290.0093
463.721	288.1854
463.8851	286.0268
464.0492	282.8432
464.2132	281.707
464.3773	288.0657
464.5414	287.997
464.7054	282.5833
464.8694	273.2106
465.0334	272.337
465.1975	281.0296
465.3615	287.7764
465.5255	290.1551
465.6895	286.3491
465.8535	295.4265
466.0175	292.4964
466.1815	299.3961
466.3455	298.6508
466.5095	280.9562
466.6734	274.2076
466.8374	264.4813
467.0014	274.3459
467.1653	286.6395
467.3293	289.889
467.4932	290.4168
467.6571	301.5667
467.8211	301.6086
467.985	297.3791
468.1489	289.0742
468.3128	294.0908
468.4767	298.0413
468.6406	304.4222
468.8045	292.8671
468.9684	299.5154
469.1323	291.13
469.2962	304.968
469.46	304.2171
469.6239	303.66
469.7878	301.6606
469.9516	292.9418
470.1154	285.9277
470.2793	280.4612
470.4431	282.9126
470.607	290.5038
470.7708	285.4674
470.9346	286.1905
471.0984	291.7448
471.2622	302.525
471.426	297.9567
471.5898	303.2925
471.7536	300.5241
471.9174	306.6959
472.0811	311.1371
472.2449	319.0724
472.4087	317.2105
472.5724	311.5171
472.7362	310.7008
472.8999	295.6222
473.0637	293.0066
473.2274	293.7307
473.3911	298.7016
473.5548	299.8432
473.7185	298.3248
473.8822	299.6215
474.0459	301.4491
474.2096	305.8368
474.3733	307.4078
474.537	304.6326
474.7007	308.4074
474.8643	307.6094
475.028	306.0275
475.1917	305.7778
475.3553	304.1616
475.519	306.3611
475.6826	307.0647
475.8463	301.9419
476.0099	305.088
476.1735	293.9124
476.3371	296.5858
476.5007	293.939
476.6643	298.3816
476.8279	298.7191
476.9915	295.7959
477.1551	304.2113
477.3187	307.8743
477.4823	311.8789
477.6458	316.3246
477.8094	313.8068
477.9729	314.7246
478.1365	316.8285
478.3	300.4256
478.4636	300.6852
478.6271	298.9406
478.7906	302.9902
478.9541	289.4644
479.1176	295.5226
479.2812	299.376
479.4447	320.944
479.6082	323.5993
479.7716	316.8371
479.9351	310.776
480.0986	310.7723
480.2621	314.2805
480.4255	309.7409
480.589	310.8507
480.7524	307.0008
480.9159	304.4201
481.0793	306.8668
481.2428	310.6098
481.4062	317.5624
481.5696	317.4323
481.733	318.8771
481.8964	316.195
482.0598	318.5979
482.2232	317.7431
482.3866	312.6275
482.55	314.2518
482.7134	321.1168
482.8768	321.7861
483.0401	308.858
483.2035	312.0013
483.3668	309.8916
483.5302	310.2438
483.6935	310.64
483.8568	316.0918
484.0202	301.326
484.1835	300.0221
484.3468	299.8841
484.5101	303.8386
484.6734	306.6386
484.8367	307.1893
485	309.9507
485.1633	311.5687
485.3266	304.85
485.4899	299.4884
485.6531	290.9758
485.8164	269.7987
485.9796	254.8677
486.1429	232.3312
486.3061	235.7958
486.4694	250.1355
486.6326	277.0447
486.7958	292.6945
486.959	289.5707
487.1223	281.5978
487.2855	277.7227
487.4486	277.8309
487.6118	299.5197
487.775	308.6359
487.9382	314.6016
488.1014	317.0192
488.2646	308.0123
488.4277	306.7711
488.5909	299.0313
488.754	297.2188
488.9171	288.3375
489.0803	284.5193
489.2434	289.9919
489.4066	310.535
489.5697	328.8653
489.7328	326.7381
489.8959	328.3834
490.059	324.3345
490.2221	316.0704
490.3852	315.9176
490.5482	321.2822
490.7113	324.4292
490.8744	313.83
491.0374	304.4407
491.2005	296.6346
491.3636	311.841
491.5266	319.0959
491.6896	310.8097
491.8527	291.5645
492.0157	281.536
492.1787	276.69
492.3417	282.6551
492.5047	305.4453
492.6677	314.9027
492.8307	313.7895
492.9937	317.2189
493.1567	320.5382
493.3196	315.692
493.4826	309.3961
493.6456	301.0335
493.8085	301.2586
493.9715	310.3624
494.1344	309.7933
494.2974	323.1311
494.4603	328.0824
494.6232	331.3053
494.7861	330.2813
494.949	338.906
495.1119	324.6656
495.2748	325.6989
495.4377	325.1968
495.6006	306.297
495.7635	300.1105
495.9264	303.206
496.0892	309.5714
496.2521	324.955
496.4149	332.4852
496.5778	323.7124
496.7407	311.7321
496.9035	317.211
497.0663	320.1027
497.2291	326.2292
497.3919	324.5452
497.5547	329.4346
497.7176	331.195
497.8804	329.1282
498.0432	321.3081
498.2059	311.3635
498.3687	294.4753
498.5315	292.9324
498.6942	306.4185
498.857	318.3446
499.0198	321.8232
499.1825	325.4196
499.3452	326.0108
499.508	322.715
499.6707	328.6543
499.8334	323.3563
499.9962	313.586
500.1589	313.1968
500.3216	302.0245
500.4843	298.5139
500.6469	305.3849
500.8096	308.7028
500.9723	315.2213
501.135	321.4264
501.2976	313.8939
501.4603	306.22
501.623	302.8274
501.7856	304.9128
501.9482	304.5537
502.1109	310.1231
502.2735	319.0683
502.4361	309.3719
502.5987	317.1731
502.7614	319.5556
502.924	319.7162
503.0865	327.1671
503.2491	333.7636
503.4117	341.2888
503.5743	322.2358
503.7368	313.8247
503.8994	312.1419
504.062	308.5447
504.2245	312.495
504.3871	314.476
504.5496	333.4747
504.7121	333.384
504.8746	319.1509
505.0372	323.4799
505.1997	330.5505
505.3622	331.6837
505.5247	333.5214
505.6872	334.0389
505.8497	345.0418
506.0121	344.0353
506.1746	339.152
506.3371	333.4583
506.4995	330.148
506.662	324.9189
506.8244	322.0593
506.9869	330.4646
507.1493	336.7412
507.3117	327.5782
507.4742	325.8724
507.6366	324.8839
507.799	322.807
507.9614	312.4843
508.1238	318.6282
508.2862	311.7269
508.4485	316.4764
508.6109	330.98
508.7733	337.9439
508.9357	338.8348
509.098	342.7208
509.2604	334.8464
509.4227	340.4331
509.5851	322.9301
509.7474	320.8076
509.9097	320.4396
510.072	323.0831
510.2343	323.8176
510.3966	333.2585
510.5589	330.8374
510.7212	327.5282
510.8835	320.9587
511.0458	316.9915
511.2081	326.0351
511.3703	338.5399
511.5326	340.0045
511.6949	340.0837
511.8571	336.2202
512.0193	329.5247
512.1816	330.0397
512.3438	317.3076
512.506	309.8473
512.6682	310.134
512.8304	311.774
512.9926	313.5522
513.1548	317.5097
513.317	318.4956
513.4792	315.4088
513.6414	320.2879
513.8035	306.6624
513.9657	297.2439
514.1279	308.3976
514.29	306.4609
514.4521	307.5936
514.6143	307.752
514.7764	311.3925
514.9385	319.0597
515.1006	316.3249
515.2628	311.3693
515.4249	316.4535
515.587	314.6068
515.7491	318.3989
515.9111	323.7578
516.0732	315.2588
516.2353	311.8996
516.3973	299.5772
516.5594	285.4298
516.7214	262.0668
516.8835	258.336
517.0455	254.5328
517.2076	255.6811
517.3696	255.6451
517.5316	276.6126
517.6937	298.5377
517.8557	317.568
518.0176	316.1735
518.1796	293.6981
518.3416	266.8031
518.5036	261.3994
518.6656	280.4809
518.8275	303.7401
518.9895	306.9819
519.1514	304.7578
519.3134	296.7658
519.4753	305.9004
519.6373	306.1418
519.7992	307.5486
519.9611	317.6841
520.123	320.5308
520.2849	320.4064
520.4468	312.835
520.6087	297.0051
520.7706	296.8208
520.9325	307.8849
521.0944	312.3829
521.2562	318.1432
521.4181	323.3461
521.58	317.722
521.7418	304.9092
521.9036	317.7245
522.0655	325.7167
522.2273	326.2413
522.3891	320.9225
522.551	317.0278
522.7128	306.7879
522.8746	310.057
523.0363	313.2787
523.1981	315.3474
523.3599	311.0285
523.5217	303.5331
523.6835	320.5775
523.8452	330.8309
524.007	338.9565
524.1687	338.9162
524.3304	336.0381
524.4922	333.1314
524.6539	335.8419
524.8157	329.4158
524.9774	329.4818
525.1391	329.2435
525.3008	330.0389
525.4625	331.4898
525.6241	335.3749
525.7858	336.9268
525.9475	337.9775
526.1092	324.808
526.2709	309.3829
526.4325	305.4639
526.5942	294.9299
526.7558	286.3721
526.9174	290.1566
527.079	295.1673
527.2407	299.5887
527.4023	305.1158
527.5639	319.4401
527.7255	328.8976
527.8871	333.5905
528.0487	331.0861
528.2103	322.6671
528.3718	324.1732
528.5334	332.3926
528.695	342.3834
528.8565	336.6848
529.0181	340.29
529.1796	340.5552
529.3412	342.4927
529.5027	346.9803
529.6642	331.8612
529.8257	317.3424
529.9872	320.5227
530.1487	322.2985
530.3102	325.9859
530.4717	330.608
530.6332	346.5916
530.7947	344.1804
530.9562	344.2476
531.1176	350.9725
531.2791	343.4759
531.4405	340.0406
531.6019	339.177
531.7634	335.5288
531.9248	337.5021
532.0862	335.3551
532.2477	320.6396
532.4091	316.6927
532.5704	311.3084
532.7319	300.1819
532.8932	308.6601
533.0546	312.5088
533.216	319.9137
533.3774	321.2217
533.5388	326.9224
533.7001	327.7139
533.8615	323.5609
534.0228	314.9001
534.1841	314.777
534.3455	318.8575
534.5068	329.0457
534.6681	317.3231
534.8293	317.9961
534.9907	324.7159
535.152	324.9978
535.3132	323.7224
535.4745	331.6447
535.6358	335.5309
535.7971	333.6794
535.9583	333.0592
536.1196	329.8846
536.2808	333.9572
536.4421	324.9763
536.6033	318.3483
536.7645	309.602
536.9258	304.1581
537.087	309.2187
537.2482	309.8702
537.4094	311.2957
537.5706	323.9964
537.7318	320.225
537.8929	326.653
538.0541	324.5769
538.2153	309.0761
538.3764	312.4218
538.5376	313.795
538.6987	313.2576
538.8599	316.0855
539.021	311.3266
539.1821	309.15
539.3432	306.6888
539.5043	305.8333
539.6655	308.4058
539.8265	301.5912
539.9876	300.9077
540.1487	304.9553
540.3098	305.7411
540.4708	294.2545
540.6319	290.1912
540.793	295.4649
540.954	294.9443
541.1151	291.6417
541.2761	303.4536
541.4371	315.0485
541.5981	307.1194
541.7592	300.8971
541.9202	303.5526
542.0812	304.0191
542.2422	307.2065
542.4031	306.4585
542.5641	302.9631
542.7251	308.1458
542.886	310.611
543.0471	307.7117
543.208	302.1744
543.369	298.1675
543.5298	297.8618
543.6908	299.5168
543.8517	319.4993
544.0126	318.8745
544.1736	320.7942
544.3345	319.9342
544.4954	303.6443
544.6563	305.6626
544.8171	302.1078
544.978	308.1884
545.1389	318.6083
545.2997	315.0414
545.4606	303.7449
545.6215	299.1581
545.7823	304.2835
545.9432	307.5998
546.104	312.2749
546.2648	297.044
546.4256	292.4664
546.5864	310.2835
546.7473	315.799
546.908	313.3079
547.0688	312.9189
547.2296	310.1183
547.3904	307.4623
547.5511	301.4574
547.7119	292.3284
547.8727	291.7923
548.0334	299.3218
548.1942	308.9576
548.3549	315.2999
548.5156	311.6779
548.6763	316.7822
548.837	305.4254
548.9977	308.9637
549.1584	317.2407
549.3192	310.0875
549.4798	310.0044
549.6405	308.7838
549.8011	305.9378
549.9619	308.2122
550.1225	305.7225
550.2831	309.7608
550.4438	306.2168
550.6044	304.984
550.765	308.3146
550.9257	306.8244
551.0863	302.3216
551.2469	304.0743
551.4075	303.3217
551.5681	310.1495
551.7287	309.3116
551.8893	312.071
552.0498	311.3808
552.2104	309.6559
552.371	314.3228
552.5315	307.6029
552.6921	307.8853
552.8526	304.0413
553.0131	296.8543
553.1736	307.1286
553.3342	302.4655
553.4947	303.3559
553.6552	309.083
553.8157	308.8906
553.9762	306.5085
554.1367	309.003
554.2971	297.9094
554.4576	304.4077
554.618	308.4232
554.7785	304.9738
554.939	310.0085
555.0994	311.0822
555.2598	309.4787
555.4203	303.6028
555.5807	299.8494
555.7411	304.2897
555.9015	309.4846
556.0619	309.755
556.2223	299.1595
556.3827	298.468
556.5431	299.1061
556.7034	298.5599
556.8638	282.9427
557.0242	279.6599
557.1845	293.0823
557.3448	294.7293
557.5052	291.8871
557.6655	296.0612
557.8259	296.7295
557.9861	296.221
558.1465	297.3671
558.3068	297.5459
558.467	289.1243
558.6274	285.179
558.7877	275.743
558.9479	274.4015
559.1082	275.0833
559.2684	291.7767
559.4287	290.074
559.5889	278.7781
559.7491	278.6365
559.9094	284.9397
560.0696	277.4651
560.2299	272.0924
560.3901	280.4738
560.5502	277.3134
560.7104	296.4084
560.8707	299.8168
561.0308	295.5049
561.191	293.199
561.3511	294.9854
561.5114	284.6794
561.6714	280.5534
561.8316	276.6706
561.9918	292.4198
562.1519	294.3291
562.312	292.1701
562.4722	281.2287
562.6323	285.5399
562.7924	295.8748
562.9525	293.781
563.1125	295.1897
563.2726	287.4571
563.4327	284.701
563.5928	288.0728
563.7528	280.3495
563.9129	280.7558
564.0729	292.1371
564.233	289.289
564.393	282.9941
564.553	283.3562
564.7131	283.1116
564.873	284.8076
565.0331	285.0788
565.1931	277.8016
565.353	275.5568
565.5131	274.9973
565.673	265.5968
565.833	265.3925
565.9929	268.8887
566.1529	270.4442
566.3129	276.4669
566.4728	278.5641
566.6328	276.5081
566.7927	276.5046
566.9526	280.8938
567.1125	283.6136
567.2724	282.6857
567.4323	284.3627
567.5922	282.045
567.7521	283.9924
567.9119	283.3466
568.0718	282.0511
568.2317	275.5124
568.3915	272.1007
568.5514	270.9285
568.7112	267.6891
568.871	267.3178
569.0309	269.9646
569.1907	273.7524
569.3505	278.2994
569.5103	273.6628
569.6701	275.5638
569.8299	266.6719
569.9897	268.7325
570.1495	271.7751
570.3092	268.5369
570.469	270.3024
570.6287	268.5037
570.7885	267.5816
570.9482	261.2268
571.108	258.5461
571.2677	258.7324
571.4274	273.5471
571.5871	270.5665
571.7468	281.8044
571.9066	282.3085
572.0662	276.0206
572.2259	266.9203
572.3856	277.1168
572.5452	278.9048
572.7049	277.5221
572.8646	275.9054
573.0242	279.569
573.1838	280.1922
573.3435	284.2437
573.5031	272.1753
573.6627	278.9842
573.8223	275.2855
573.9819	272.009
574.1415	267.5724
574.3011	267.0529
574.4607	269.403
574.6203	272.3885
574.7798	268.2256
574.9394	264.7647
575.099	266.6895
575.2585	259.0711
575.418	257.6523
575.5776	260.9399
575.7371	260.733
575.8966	264.3897
576.0562	263.4975
576.2156	262.9742
576.3751	255.1801
576.5346	255.166
576.6941	269.769
576.8536	268.8947
577.0131	267.0437
577.1725	268.5423
577.332	262.0806
577.4914	266.5325
577.6508	264.8175
577.8103	258.5943
577.9697	251.8331
578.1291	262.1522
578.2885	254.118
578.4479	257.1502
578.6073	254.5146
578.7667	255.0336
578.9261	256.9602
579.0854	258.3999
579.2448	264.3855
579.4042	259.5541
579.5635	259.4926
579.7229	261.0055
579.8822	261.1324
580.0416	260.1755
580.2009	262.4409
580.3602	266.6634
580.5195	262.6158
580.6788	262.0073
580.8381	256.2671
580.9974	257.0802
581.1566	251.8681
581.3159	246.2763
581.4752	255.937
581.6345	254.0945
581.7937	250.7883
581.9529	250.5043
582.1122	252.8692
582.2714	260.7708
582.4306	253.0839
582.5898	252.2613
582.749	253.8274
582.9082	254.4538
583.0674	254.9049
583.2266	255.5231
583.3857	257.38
583.5449	259.5128
583.7041	254.3949
583.8633	254.2097
584.0224	254.0118
584.1815	249.2667
584.3407	256.8705
584.4998	249.9488
584.6589	253.8379
584.818	260.3323
584.9771	260.2421
585.1362	246.1537
585.2953	235.5333
585.4544	236.2814
585.6135	241.1584
585.7725	240.7352
585.9316	244.671
586.0906	239.5499
586.2497	236.7706
586.4087	247.9122
586.5677	248.688
586.7267	248.2305
586.8858	241.6474
587.0448	243.9741
587.2038	243.319
587.3628	241.6702
587.5218	240.2406
587.6807	237.838
587.8397	236.065
587.9987	239.0643
588.1577	233.1571
588.3166	235.7276
588.4755	236.1855
588.6345	233.5566
588.7934	225.6957
588.9523	219.7505
589.1112	216.2816
589.2701	209.0083
589.429	213.7634
589.5879	217.4035
589.7468	217.5405
589.9056	221.5871
590.0645	223.5642
590.2234	221.1348
590.3822	230.4906
590.5411	229.9012
590.6999	231.5981
590.8588	229.8792
591.0176	233.6377
591.1764	230.8139
591.3352	226.5225
591.494	231.1981
591.6528	234.5618
591.8116	226.5697
591.9703	228.7694
592.1291	224.4606
592.2878	230.0223
592.4467	224.9313
592.6053	225.9821
592.7641	223.0849
592.9229	218.0314
593.0816	222.0337
593.2403	230.7715
593.399	227.676
593.5577	229.3712
593.7164	230.831
593.8751	229.3042
594.0338	230.6913
594.1924	227.9208
594.3511	228.529
594.5098	223.8374
594.6684	222.456
594.8271	220.502
594.9857	219.846
595.1443	220.5621
595.303	218.9007
595.4615	225.9755
595.6202	225.6557
595.7787	226.9224
595.9374	231.7908
596.0959	229.9469
596.2545	226.7992
596.4131	225.7298
596.5717	232.7741
596.7302	221.0691
596.8887	220.8048
597.0473	223.466
597.2058	224.5852
597.3644	228.7132
597.5229	225.447
597.6814	223.2504
597.8399	223.355
597.9984	222.7567
598.1569	224.7698
598.3154	226.9435
598.4738	231.7228
598.6323	234.7935
598.7908	225.4586
598.9492	232.6334
599.1076	232.7978
599.2661	224.5401
599.4245	224.7683
599.5829	230.6982
599.7413	231.4735
599.8997	228.7056
600.0581	230.4119
600.2165	228.6215
600.3749	226.0706
600.5333	220.4788
600.6917	222.8393
600.85	223.9606
601.0084	223.1004
601.1667	218.7167
601.325	220.3242
601.4833	218.5502
601.6417	215.9947
601.8	223.1316
601.9583	223.4503
602.1166	218.1797
602.2749	213.2146
602.4332	218.5099
602.5914	225.8913
602.7498	226.328
602.908	225.4535
603.0662	225.7867
603.2245	224.7321
603.3828	224.3804
603.541	224.1817
603.6992	229.2638
603.8574	223.0346
604.0156	225.8552
604.1738	228.7323
604.332	227.4747
604.4902	221.5938
604.6484	215.0242
604.8065	228.8072
604.9647	228.3471
605.1229	226.4298
605.281	225.2631
605.4391	228.5446
605.5973	219.8236
605.7554	219.0115
605.9135	220.3677
606.0717	226.3448
606.2297	223.0559
606.3878	223.0645
606.5459	215.1183
606.704	220.2944
606.8621	224.1594
607.0201	223.831
607.1782	225.2164
607.3362	222.0237
607.4943	227.8025
607.6523	222.8862
607.8104	222.8683
607.9684	224.4761
608.1264	221.1732
608.2844	214.9181
608.4424	212.3191
608.6003	212.2801
608.7584	209.7739
608.9163	218.6072
609.0743	217.3354
609.2322	207.9781
609.3902	215.2999
609.5482	213.6478
609.7061	218.6739
609.864	219.4508
610.0219	215.225
610.1798	204.7257
610.3377	206.7003
610.4956	208.1552
610.6535	214.4546
610.8114	212.701
610.9693	219.4332
611.1271	220.1163
611.285	219.6772
611.4429	215.273
611.6007	216.0959
611.7585	211.8928
611.9164	211.0264
612.0742	212.6653
612.232	210.7032
612.3898	213.8945
612.5476	208.2535
612.7054	209.5525
612.8632	213.6577
613.0209	210.1373
613.1787	220.18
613.3365	219.8491
613.4942	218.4316
613.652	204.6506
613.8097	192.8366
613.9674	194.8643
614.1252	203.2339
614.2829	198.7229
614.4406	201.1522
614.5983	197.4213
614.756	199.2332
614.9136	208.4096
615.0714	206.113
615.229	208.7084
615.3867	197.6355
615.5443	198.2188
615.702	198.3204
615.8596	197.4364
616.0172	193.185
616.1748	200.3319
616.3325	198.6143
616.4901	192.3545
616.6476	194.3307
616.8052	202.0031
616.9628	196.3222
617.1204	195.0659
617.278	199.3381
617.4355	205.5907
617.5931	203.8634
617.7506	204.8137
617.9081	202.6613
618.0657	210.8035
618.2232	201.1494
618.3807	198.4712
618.5382	203.8503
618.6957	196.1316
618.8532	197.8296
619.0107	200.9127
619.1682	193.7405
619.3256	194.0413
619.4831	196.0561
619.6406	198.3533
619.798	196.2599
619.9554	202.1837
620.1129	204.5318
620.2703	198.543
620.4277	197.1311
620.5851	198.4933
620.7425	200.8002
620.8998	198.181
621.0573	200.0655
621.2146	201.1789
621.372	195.4555
621.5294	193.1573
621.6867	189.7242
621.8441	192.2066
622.0013	196.7773
622.1587	199.7163
622.316	199.9644
622.4733	194.1801
622.6306	192.0922
622.7879	192.5596
622.9452	197.1083
623.1025	196.7099
623.2598	195.4305
623.4171	194.3855
623.5743	196.3951
623.7316	199.7068
623.8888	193.0883
624.046	190.0979
624.2032	190.5223
624.3605	190.4236
624.5176	189.6714
624.6749	185.1859
624.8321	184.1935
624.9893	192.9837
625.1464	186.4872
625.3036	183.4773
625.4608	185.9366
625.6179	185.4109
625.7751	181.4706
625.9322	189.2761
626.0894	184.7028
626.2465	189.7467
626.4036	191.7163
626.5607	192.0546
626.7178	191.006
626.8749	190.0669
627.032	193.036
627.189	186.5118
627.3461	195.2635
627.5032	181.6377
627.6602	182.9978
627.8173	181.9527
627.9743	177.3664
628.1313	174.239
628.2884	178.504
628.4454	179.2005
628.6024	185.3729
628.7594	190.1806
628.9164	187.1501
629.0734	187.3275
629.2303	188.5128
629.3873	190.2711
629.5443	182.2205
629.7012	183.6181
629.8582	183.0384
630.0151	182.6279
630.172	181.1994
630.3289	179.2048
630.4858	180.2143
630.6428	182.1656
630.7996	183.116
630.9565	185.8166
631.1134	182.927
631.2703	179.9758
631.4272	183.4638
631.584	182.4988
631.7408	179.1996
631.8977	183.8629
632.0546	182.4135
632.2114	182.0408
632.3682	177.0688
632.525	183.9515
632.6818	186.9904
632.8386	189.341
632.9954	190.2155
633.1522	181.4651
633.3089	181.1319
633.4657	185.542
633.6224	177.1975
633.7792	174.5023
633.9359	176.9175
634.0927	178.1669
634.2494	177.8031
634.4061	174.0649
634.5628	178.4058
634.7195	177.7441
634.8762	178.5182
635.0329	188.6769
635.1895	179.5565
635.3462	177.6198
635.5029	182.5149
635.6595	175.4401
635.8162	175.249
635.9728	180.939
636.1295	174.8434
636.2861	172.8072
636.4427	177.113
636.5992	183.6132
636.7559	176.1735
636.9124	172.0131
637.069	182.366
637.2256	183.8373
637.3821	178.1086
637.5387	175.8338
637.6953	181.5814
637.8518	176.4954
638.0084	178.2948
638.1649	177.8309
638.3214	185.168
638.4779	182.2534
638.6344	182.7269
638.7909	182.9411
638.9474	175.9101
639.1038	176.307
639.2603	175.7799
639.4167	182.8252
639.5732	176.0323
639.7297	175.722
639.8861	174.3749
640.0425	169.2176
640.199	170.5682
640.3553	176.4131
640.5118	179.3332
640.6682	177.6091
640.8245	172.2449
640.981	177.9189
641.1373	172.3179
641.2936	171.7923
641.45	166.8468
641.6064	172.8345
641.7627	172.448
641.9191	174.6335
642.0754	172.159
642.2317	164.3986
642.388	169.7538
642.5443	170.4677
642.7006	171.3693
642.8569	176.0463
643.0131	176.7061
643.1694	166.6139
643.3257	173.7036
643.4819	175.1676
643.6382	173.7825
643.7944	169.7977
643.9506	164.9311
644.1069	162.6023
644.2631	163.154
644.4193	163.5516
644.5754	163.1646
644.7316	161.9683
644.8878	164.4697
645.044	166.2471
645.2002	167.1597
645.3563	173.2822
645.5125	167.3396
645.6686	164.4195
645.8248	167.1412
645.9809	165.552
646.137	165.7888
646.2931	166.4782
646.4492	163.5375
646.6053	162.6925
646.7614	166.3468
646.9174	164.7128
647.0735	159.6022
647.2296	161.8732
647.3856	159.9195
647.5417	164.3906
647.6977	166.8175
647.8537	168.148
648.0098	163.3479
648.1658	160.7995
648.3218	156.8861
648.4777	154.5239
648.6337	161.1646
648.7897	158.5267
648.9457	158.6367
649.1016	162.9046
649.2576	160.9055
649.4135	152.4581
649.5695	150.6381
649.7254	149.6676
649.8813	152.5726
650.0372	157.9174
650.1932	157.5616
650.3491	162.7416
650.5049	151.7802
650.6608	155.5306
650.8167	165.061
650.9725	163.4788
651.1284	156.8275
651.2842	159.529
651.4401	159.6089
651.5959	150.17
651.7518	151.3011
651.9076	145.6364
652.0634	146.3318
652.2192	155.1035
652.3749	155.5731
652.5308	155.9755
652.6865	158.8666
652.8423	154.453
652.998	155.8754
653.1538	152.532
653.3096	149.9607
653.4653	155.5657
653.621	158.8457
653.7767	153.2
653.9324	157.2767
654.0881	155.9663
654.2438	153.8718
654.3995	155.8153
654.5552	152.2902
654.7109	147.4108
654.8665	151.8058
655.0222	154.861
655.1778	150.1387
655.3334	147.0387
655.4891	146.984
655.6447	149.5673
655.8003	145.1508
655.9559	137.8972
656.1115	137.1181
656.2671	126.2469
656.4227	121.9447
656.5782	131.5533
656.7338	139.7292
656.8893	138.851
657.0449	144.4734
657.2004	143.0065
657.356	140.8385
657.5115	148.6588
657.667	146.2333
657.8225	156.1812
657.978	152.8097
658.1335	149.0656
658.289	154.904
658.4445	147.0751
658.5999	147.3362
658.7554	151.1081
658.9108	156.5004
659.0663	158.6584
659.2217	152.8603
659.3771	143.9867
659.5325	149.2003
659.6879	145.0202
659.8433	141.3953
659.9987	147.1213
660.1541	153.7317
660.3095	147.1088
660.4648	147.4167
660.6202	151.8325
660.7756	158.086
660.9309	159.2416
661.0862	154.7126
661.2416	150.2301
661.3969	145.3045
661.5522	148.1157
661.7075	153.2834
661.8628	157.1273
662.0181	153.2472
662.1733	153.2934
662.3286	149.3876
662.4839	152.7803
662.6391	148.4859
662.7944	147.0637
662.9496	150.3722
663.1048	155.549
663.26	147.9293
663.4152	148.3784
663.5704	153.5078
663.7256	151.6174
663.8808	156.0058
664.036	156.8687
664.1912	152.7976
664.3463	144.4949
664.5015	149.1221
664.6566	153.9462
664.8118	152.8977
664.9669	158.9379
665.122	152.6384
665.2771	146.7569
665.4322	142.131
665.5873	148.3995
665.7424	152.5261
665.8975	153.2042
666.0526	150.964
666.2076	148.9756
666.3627	148.2958
666.5177	153.0915
666.6727	153.896
666.8278	147.7182
666.9828	149.001
667.1378	147.422
667.2928	143.9599
667.4478	143.5675
667.6028	144.0384
667.7578	148.1119
667.9127	142.6066
668.0677	144.3722
668.2226	145.0649
668.3776	149.8084
668.5325	157.4343
668.6874	148.3756
668.8423	142.7597
668.9973	144.4226
669.1522	150.1165
669.3071	141.308
669.4619	146.2053
669.6168	143.5138
669.7717	142.8356
669.9265	151.9313
670.0814	142.483
670.2362	142.2104
670.3911	142.8318
670.5459	147.5699
670.7007	145.0533
670.8555	140.1201
671.0103	140.7005
671.1651	143.1523
671.3199	140.1631
671.4747	141.8789
671.6295	140.5127
671.7842	143.5605
671.939	141.3954
672.0937	136.7666
672.2484	145.9565
672.4031	144.7003
672.5579	144.3885
672.7126	143.1576
672.8673	133.6325
673.022	135.642
673.1767	143.1948
673.3314	146.4233
673.486	138.6735
673.6407	145.4627
673.7953	145.7545
673.95	142.3265
674.1046	136.5959
674.2592	132.7059
674.4138	139.8977
674.5684	142.2133
674.723	137.1426
674.8776	135.5077
675.0322	137.0138
675.1868	138.9386
675.3414	141.7259
675.4959	134.5465
675.6505	136.8315
675.805	135.9741
675.9595	138.0543
676.1141	136.4659
676.2686	132.7499
676.4231	134.6787
676.5776	134.9342
676.7321	139.3922
676.8866	134.7722
677.041	132.5516
677.1955	134.2432
677.35	131.7658
677.5044	130.8828
677.6589	136.861
677.8133	135.7731
677.9677	131.6232
678.1221	133.1679
678.2766	137.7721
678.4309	133.4703
678.5853	131.2068
678.7397	138.6347
678.8941	135.093
679.0485	134.4733
679.2028	132.8887
679.3571	133.5828
679.5115	134.3687
679.6658	134.7371
679.8201	126.0733
679.9744	128.1938
680.1288	127.2297
680.2831	122.528
680.4373	124.5898
680.5916	129.8445
680.7459	129.8046
680.9001	132.4481
681.0544	125.5819
681.2087	127.4169
681.3629	126.9008
681.5171	130.6102
681.6713	131.0428
681.8256	127.8213
681.9797	125.3571
682.134	127.5568
682.2881	129.2606
682.4423	134.293
682.5965	128.1761
682.7507	130.0242
682.9048	125.1984
683.059	130.8725
683.2131	125.1361
683.3672	127.6497
683.5213	119.2211
683.6754	116.2402
683.8295	118.9716
683.9836	122.7114
684.1377	120.7558
684.2918	118.8484
684.4459	119.4166
684.5999	116.8987
684.754	122.3823
684.908	127.0061
685.062	122.094
685.2161	117.387
685.3701	117.8237
685.5241	118.78
685.6781	118.8298
685.8321	121.9845
685.9861	117.8274
686.14	122.065
686.294	123.8651
686.4479	124.569
686.6019	114.9096
686.7559	104.5584
686.9098	92.53909
687.0637	87.71985
687.2176	90.81532
687.3715	90.93633
687.5254	94.92396
687.6793	94.06313
687.8332	106.5119
687.9871	107.6718
688.1409	107.4037
688.2947	112.2483
688.4486	112.2125
688.6024	106.0453
688.7563	104.1745
688.9101	99.59489
689.0639	103.5505
689.2177	102.2502
689.3715	94.68756
689.5253	102.9517
689.6791	108.8041
689.8328	108.4245
689.9866	105.9935
690.1403	103.4816
690.2941	104.1555
690.4478	105.2266
690.6015	107.0413
690.7552	104.3065
690.9089	108.8467
691.0626	108.6203
691.2164	107.8537
691.37	110.963
691.5237	104.4974
691.6774	107.5503
691.831	112.9421
691.9847	107.5447
692.1383	103.1575
692.2919	108.1904
692.4456	110.4558
692.5992	109.0196
692.7527	107.3829
692.9064	110.1133
693.0599	107.2401
693.2136	108.2423
693.3671	109.4455
693.5207	105.0464
693.6742	108.6049
693.8278	108.5672
693.9813	103.5458
694.1348	103.7732
694.2883	105.9539
694.4418	105.0657
694.5953	99.85845
694.7488	103.8868
694.9023	104.753
695.0558	107.3886
695.2093	110.659
695.3627	105.7044
695.5162	108.1532
695.6696	112.3988
695.8231	106.9979
695.9764	103.6558
696.1299	107.3814
696.2833	99.4702
696.4367	104.7029
696.5901	104.8672
696.7435	105.2617
696.8968	108.8201
697.0502	109.0978
697.2036	111.6318
697.3569	113.1162
697.5102	108.5488
697.6635	105.8765
697.8168	105.2518
697.9702	105.3563
698.1235	108.4384
698.2768	110.4989
698.4301	111.817
698.5833	104.8895
698.7366	109.0698
698.8898	103.8429
699.0431	99.2264
699.1964	101.8981
699.3495	104.3256
699.5028	109.4659
699.656	103.3636
699.8092	99.90463
699.9624	98.0549
700.1156	101.9868
700.2688	103.4291
700.4219	102.704
700.5751	101.4867
700.7283	98.9046
700.8814	105.4261
701.0345	104.5672
701.1877	108.9419
701.3408	106.6775
701.4939	99.58451
701.647	98.13702
701.8001	98.88874
701.9532	101.318
702.1063	98.99409
702.2593	98.39945
702.4124	100.1605
702.5654	101.6315
702.7184	101.5897
702.8715	101.5243
703.0245	99.50601
703.1776	108.7767
703.3305	109.6453
703.4835	103.2207
703.6365	100.3804
703.7895	101.3334
703.9424	107.8643
704.0954	105.7387
704.2484	103.0602
704.4013	106.9699
704.5543	106.326
704.7072	104.7037
704.8601	104.7193
705.013	102.2382
705.1659	101.9329
705.3188	105.7191
705.4717	102.2367
705.6246	108.0737
705.7774	103.7314
705.9303	98.54701
706.0831	100.9259
706.236	99.25146
706.3888	103.0245
706.5416	100.6995
706.6944	98.56149
706.8472	101.2918
707	102.8784
707.1528	98.53046
707.3056	98.42032
707.4583	101.4924
707.6111	106.3744
707.7639	107.4247
707.9166	100.534
708.0693	101.0704
708.222	94.43264
708.3748	100.4063
708.5275	101.5372
708.6802	101.8485
708.8328	101.6124
708.9855	102.594
709.1382	99.22967
709.2909	98.20927
709.4435	102.1787
709.5962	101.9027
709.7488	106.2648
709.9014	103.062
710.054	100.2765
710.2067	104.0327
710.3593	101.8031
710.5118	103.1241
710.6644	100.8362
710.817	94.11267
710.9695	94.32436
711.1221	96.14991
711.2747	95.92223
711.4272	99.06284
711.5797	96.56571
711.7322	97.35403
711.8848	94.50054
712.0373	98.66032
712.1898	99.22623
712.3422	98.00153
712.4948	96.82084
712.6472	99.25327
712.7996	99.43023
712.9521	97.7264
713.1046	99.09406
713.257	99.76508
713.4094	98.21986
713.5618	95.3154
713.7142	94.24929
713.8666	97.9109
714.019	99.8189
714.1714	99.55073
714.3237	94.69321
714.4761	95.53014
714.6285	100.6023
714.7808	95.93556
714.9331	97.222
715.0854	90.1577
715.2378	92.53208
715.3901	97.99652
715.5424	92.96033
715.6947	92.53091
715.8469	95.5071
715.9992	98.48895
716.1515	92.38931
716.3037	91.24815
716.456	90.81516
716.6082	91.32101
716.7604	84.8128
716.9127	82.95286
717.0649	88.75657
717.2171	86.41466
717.3693	85.81182
717.5214	76.77266
717.6736	74.72665
717.8258	75.89467
717.978	81.39783
718.1301	79.0773
718.2822	80.86172
718.4344	80.58584
718.5865	82.05341
718.7386	77.84768
718.8907	75.83843
719.0428	84.944
719.1949	82.00759
719.3469	72.66724
719.499	77.7146
719.6511	80.43317
719.8031	78.46693
719.9551	78.297
720.1072	76.25218
720.2592	73.11667
720.4112	80.09526
720.5632	83.26615
720.7152	78.79128
720.8672	79.85933
721.0192	85.70519
721.1711	92.68289
721.3231	85.78657
721.475	85.24232
721.627	90.45586
721.7789	87.67902
721.9308	87.31327
722.0828	91.44066
722.2347	86.65189
722.3866	78.00036
722.5385	89.03915
722.6903	88.64991
722.8422	85.33573
722.9941	86.22829
723.1459	81.08277
723.2977	83.33714
723.4496	78.8205
723.6014	76.83239
723.7532	80.65763
723.905	75.90306
724.0568	74.71201
724.2086	74.88374
724.3604	81.33079
724.5121	73.84558
724.6639	82.22617
724.8157	81.58295
724.9674	77.3371
725.1191	76.11311
725.2709	75.21524
725.4226	70.66223
725.5743	78.65246
725.726	78.95918
725.8777	81.76503
726.0294	81.25369
726.181	83.38895
726.3327	82.06475
726.4844	83.43797
726.636	83.34794
726.7877	78.97691
726.9393	80.31528
727.0909	81.5477
727.2425	83.01965
727.3941	76.9045
727.5457	73.06698
727.6973	74.98052
727.8488	77.74019
728.0004	78.47379
728.1519	78.28362
728.3035	77.74494
728.455	78.84652
728.6066	82.27691
728.7581	83.56065
728.9095	82.82614
729.0611	75.70363
729.2126	69.58426
729.364	71.45656
729.5155	80.1896
729.667	86.33337
729.8184	80.00148
729.9698	77.3878
730.1213	78.78706
730.2727	77.33088
730.4241	71.26048
730.5756	69.54583
730.7269	79.5594
730.8784	78.52953
731.0297	75.75084
731.1811	75.67305
731.3325	76.45248
731.4838	77.8454
731.6351	76.52635
731.7865	73.50465
731.9378	77.76797
732.0891	84.6926
732.2404	81.52241
732.3917	86.06194
732.543	80.65907
732.6943	81.60091
732.8456	85.23946
732.9968	86.10203
733.1481	91.90375
733.2993	82.85436
733.4506	82.79797
733.6018	79.69723
733.753	89.38794
733.9042	87.67928
734.0554	79.32813
734.2066	81.25255
734.3578	80.58092
734.509	81.7108
734.6602	81.02456
734.8113	80.94025
734.9624	82.95583
735.1136	76.50673
735.2647	79.76181
735.4158	81.64317
735.5669	83.64029
735.718	81.69625
735.8691	82.35699
736.0201	83.84499
736.1713	82.2625
736.3223	85.55164
736.4733	85.94757
736.6244	84.56246
736.7755	86.55252
736.9265	80.84293
737.0775	77.62511
737.2285	83.25936
737.3795	88.59928
737.5305	83.25137
737.6815	85.47236
737.8324	84.56152
737.9834	78.31612
738.1343	81.98535
738.2853	82.78401
738.4362	83.85004
738.5871	81.09487
738.738	83.55424
738.8889	80.94123
739.0399	79.47772
739.1907	75.84594
739.3416	80.22089
739.4925	84.63094
739.6433	85.02884
739.7942	83.22548
739.945	78.73369
740.0958	80.53263
740.2467	77.54128
740.3975	84.54025
740.5483	83.34241
740.6991	84.44505
740.8499	78.01009
741.0007	73.40817
741.1514	75.89397
741.3022	75.44126
741.4529	77.22954
741.6036	81.1026
741.7544	76.83269
741.9051	78.84499
742.0558	75.56113
742.2065	74.30918
742.3572	79.03558
742.5079	83.72987
742.6586	83.47569
742.8093	83.07184
742.9599	81.84849
743.1105	82.6455
743.2612	80.68933
743.4118	77.31303
743.5624	79.07807
743.7131	77.72826
743.8636	76.52108
744.0142	76.72604
744.1648	71.89094
744.3154	77.88082
744.4659	79.58982
744.6165	78.18561
744.767	78.15022
744.9176	77.4798
745.0681	77.25143
745.2186	78.08347
745.3691	78.20035
745.5197	79.50247
745.6702	80.16239
745.8206	77.81949
745.9711	83.86977
746.1215	75.35205
746.272	80.35251
746.4224	80.61803
746.5729	79.82219
746.7233	78.33209
746.8737	78.98792
747.0241	78.43819
747.1745	80.34948
747.3249	79.63599
747.4753	81.19059
747.6257	74.21469
747.776	78.76678
747.9264	76.98517
748.0767	74.52396
748.2271	76.37838
748.3774	74.26637
748.5276	73.90655
748.678	74.16785
748.8282	77.22802
748.9786	73.82092
749.1288	75.51049
749.2791	76.61948
749.4294	76.41112
749.5796	68.63544
749.7299	74.13906
749.8801	75.32762
750.0303	74.71552
750.1805	74.61232
750.3307	77.91864
750.4809	74.19064
750.6311	79.54943
750.7813	73.7023
750.9314	70.95508
751.0816	72.66298
751.2318	74.08894
751.3818	69.16557
751.532	70.58452
751.6821	70.44604
751.8322	70.87323
751.9823	74.21834
752.1324	73.46023
752.2825	70.85146
752.4326	70.93416
752.5826	77.41696
752.7327	73.10296
752.8827	68.45702
753.0327	71.05855
753.1827	68.80436
753.3328	69.56354
753.4828	71.27557
753.6328	73.35192
753.7828	76.12211
753.9327	69.71144
754.0827	70.96902
754.2327	68.81351
754.3826	73.59464
754.5325	73.13133
754.6825	72.37092
754.8324	71.31257
754.9823	72.96606
755.1322	72.03667
755.2821	69.85174
755.432	64.78936
755.5818	69.16558
755.7318	69.00183
755.8816	67.94328
756.0314	69.94442
756.1813	66.9584
756.3311	66.54093
756.4809	73.44978
756.6307	66.34332
756.7805	63.00689
756.9303	64.8907
757.0801	68.01489
757.2299	66.45274
757.3796	65.3559
757.5294	64.53511
757.6791	66.09904
757.8289	67.86127
757.9786	65.93813
758.1283	68.4538
758.278	66.38321
758.4277	67.91901
758.5773	72.99327
758.7271	65.93687
758.8767	65.07207
759.0264	63.01698
759.176	62.42273
759.3256	61.45608
759.4753	52.90914
759.6249	48.95272
759.7745	41.85514
759.9241	36.84359
760.0737	32.91767
760.2233	30.91102
760.3729	29.66694
760.5224	30.41469
760.6719	30.42327
760.8215	31.61886
760.971	30.69016
761.1205	35.06969
761.2701	32.38187
761.4196	35.57595
761.5691	38.44688
761.7186	51.45904
761.868	51.98615
762.0175	55.32859
762.167	50.41427
762.3164	44.53168
762.4659	39.85288
762.6153	35.74099
762.7647	36.90134
762.9141	40.6506
763.0635	36.12454
763.2129	37.65154
763.3623	29.97374
763.5117	35.59914
763.661	42.18718
763.8104	42.41578
763.9597	39.51302
764.1091	47.10943
764.2584	40.95853
764.4077	37.09831
764.557	38.41617
764.7063	46.81192
764.8556	50.55817
765.0049	48.5714
765.1541	47.1169
765.3034	47.18389
765.4526	46.57441
765.6019	53.23831
765.7511	50.51352
765.9003	52.60668
766.0496	51.42887
766.1987	53.1119
766.348	54.38273
766.4971	52.04144
766.6463	51.76775
766.7955	54.93574
766.9446	53.09587
767.0938	51.38346
767.2429	53.16986
767.392	52.01621
767.5411	52.01868
767.6902	52.69634
767.8394	56.96903
767.9884	61.87851
768.1375	48.2526
768.2866	52.8607
768.4356	51.46295
768.5847	56.32291
768.7337	52.50605
768.8828	58.39371
769.0317	53.598
769.1808	62.58431
769.3298	57.09417
769.4788	53.80905
769.6277	54.58876
769.7767	57.17859
769.9257	57.07733
770.0746	50.30275
770.2236	50.30407
770.3725	49.78777
770.5214	55.32126
770.6703	56.858
770.8193	58.65464
770.9681	57.18142
771.1171	51.29622
771.2659	55.96852
771.4148	53.71301
771.5637	55.06035
771.7125	53.64899
771.8613	55.96614
772.0101	60.36525
772.159	58.03951
772.3078	56.33542
772.4566	55.90298
772.6054	57.5756
772.7542	53.13342
772.903	50.49117
773.0517	53.95603
773.2004	57.28638
773.3492	52.59385
773.4979	56.88331
773.6467	58.84077
773.7953	57.00764
773.944	50.5575
774.0928	51.26703
774.2415	55.82555
774.3901	53.88419
774.5388	57.16306
774.6874	55.97504
774.8361	53.97433
774.9847	53.19633
775.1334	52.56878
775.282	53.54201
775.4305	55.31233
775.5792	53.75201
775.7277	52.8865
775.8763	52.35281
776.0249	54.85017
776.1735	53.28833
776.322	56.24604
776.4705	52.51116
776.6191	54.5581
776.7676	52.72031
776.9161	54.21873
777.0646	48.9442
777.2131	56.4714
777.3616	53.51771
777.5101	48.53158
777.6585	50.41273
777.8069	51.95276
777.9554	54.0086
778.1038	51.17991
778.2523	50.3358
778.4007	49.13095
778.5491	51.58263
778.6974	51.08756
778.8459	53.64236
778.9942	48.41451
779.1426	46.09529
779.291	53.09889
779.4393	53.974
779.5876	52.1627
779.736	50.63379
779.8843	49.65287
780.0326	52.12196
780.1809	54.47564
780.3292	49.56972
780.4775	50.85299
780.6257	50.76856
780.774	50.32749
780.9222	50.87338
781.0704	47.18085
781.2187	45.44632
781.3669	52.06661
781.5151	53.25874
781.6633	52.6572
781.8115	50.49553
781.9597	50.01821
782.1078	49.24428
782.256	49.62428
782.4042	43.15318
782.5523	51.60199
782.7004	52.22428
782.8486	47.76221
782.9967	46.26828
783.1448	49.52542
783.2929	51.25774
783.441	51.36358
783.5891	47.27692
783.7371	50.24106
783.8851	50.17107
784.0332	46.91315
784.1812	45.09222
784.3293	49.27234
784.4773	47.97854
784.6253	45.43764
784.7733	49.86473
784.9213	53.3357
785.0692	46.46666
785.2172	46.9551
785.3652	48.05565
785.5131	51.64205
785.6611	46.26413
785.809	41.93418
785.9569	46.60693
786.1048	52.75605
786.2527	50.81171
786.4006	51.51239
786.5485	52.49892
786.6964	50.09761
786.8442	45.13332
786.9921	48.50336
787.1399	48.33413
787.2877	47.77389
787.4355	41.90715
787.5833	41.75091
787.7311	48.92316
787.8789	43.04727
788.0267	43.76149
788.1745	47.77621
788.3223	42.58317
788.47	45.34137
788.6177	48.69381
788.7654	42.81116
788.9132	39.97672
789.0609	44.08255
789.2086	44.06424
789.3563	43.98288
789.504	41.07381
789.6517	46.98228
789.7993	49.95223
789.947	45.77835
790.0946	44.65743
790.2422	47.8649
790.3898	45.68086
790.5375	42.81131
790.6851	42.61072
790.8326	39.31123
790.9802	38.9487
791.1278	46.2586
791.2754	48.86811
791.423	46.61778
791.5705	48.62285
791.718	45.70371
791.8655	44.63438
792.0131	46.89479
792.1606	41.68717
792.308	45.62888
792.4556	43.40176
792.603	44.99732
792.7505	41.45803
792.8979	40.65441
793.0454	45.10069
793.1928	42.93293
793.3403	40.3631
793.4877	43.11882
793.6351	47.31859
793.7825	46.45866
793.9299	41.17373
794.0772	37.84064
794.2246	41.85325
794.3719	43.67073
794.5193	43.72155
794.6666	47.96188
794.814	43.37272
794.9613	46.57617
795.1086	42.06759
795.2559	40.96385
795.4032	39.05001
795.5505	41.48206
795.6978	41.07341
795.845	37.79107
795.9922	39.63934
796.1395	41.33681
796.2867	40.89431
796.4339	40.13219
796.5811	44.15508
796.7283	41.35609
796.8755	41.24159
797.0227	41.71503
797.1699	38.59341
797.317	40.81768
797.4642	48.81241
797.6113	42.69303
797.7584	38.38538
797.9056	45.20152
798.0527	46.14599
798.1998	43.41859
798.3469	37.93772
798.494	42.98782
798.641	45.1415
798.7881	46.74844
798.9351	43.57885
799.0822	43.1779
799.2292	44.30923
799.3762	35.90923
799.5232	40.05478
799.6702	41.93651
799.8172	39.70688
799.9642	41.30399
800.1111	37.88645
800.2581	39.26434
800.4051	42.92524
800.552	42.47151
800.6989	36.44189
800.8458	40.06903
800.9927	39.74441
801.1396	37.9896
801.2866	37.49737
801.4334	37.69976
801.5803	37.07598
801.7272	38.35597
801.874	39.40376
802.0209	43.71646
802.1677	41.04407
802.3145	36.66163
802.4613	36.87592
802.6081	39.92587
802.7549	40.53304
802.9017	43.64939
803.0485	41.85215
803.1952	44.50129
803.342	42.20613
803.4887	40.5382
803.6354	36.54555
803.7822	38.24411
803.9289	39.50777
804.0756	38.59367
804.2223	38.2339
804.369	38.63988
804.5156	33.42483
804.6623	37.33952
804.8089	41.18143
804.9556	37.02937
805.1022	37.03405
805.2488	32.46225
805.3954	39.02568
805.542	36.86
805.6886	36.92229
805.8352	38.56642
805.9818	35.75669
806.1283	43.58835
806.2749	40.78289
806.4214	35.68355
806.5679	35.59364
806.7145	38.03028
806.861	36.77159
807.0074	36.3096
807.154	36.24484
807.3004	37.92173
807.4469	38.66963
807.5934	37.50065
807.7398	37.71306
807.8862	41.99263
808.0327	33.04339
808.1791	34.75501
808.3255	36.13237
808.4719	33.6512
808.6183	37.88118
808.7647	35.14013
808.9111	29.6319
809.0574	35.92102
809.2037	33.35689
809.3501	35.29169
809.4965	34.55026
809.6428	34.94175
809.7891	40.12513
809.9354	36.44893
810.0817	36.88912
810.2279	33.2397
810.3742	33.28356
810.5204	33.6286
810.6667	34.01987
810.8129	33.70765
810.9592	32.12821
811.1054	38.33575
811.2516	40.50589
811.3978	38.98228
811.5439	40.33913
811.6901	33.21746
811.8363	37.81321
811.9825	33.85588
812.1286	30.82466
812.2748	33.4683
812.4209	31.26954
812.567	30.28323
812.7131	33.08395
812.8592	28.692
813.0053	29.75827
813.1514	32.53632
813.2974	29.61775
813.4435	25.86481
813.5895	23.10791
813.7356	31.45306
813.8816	29.38502
814.0276	29.82516
814.1736	28.29243
814.3196	28.75514
814.4656	26.28822
814.6116	23.90097
814.7576	29.96344
814.9035	31.66347
815.0494	29.5554
815.1954	27.67199
815.3413	24.01135
815.4872	26.35863
815.6331	30.10956
815.779	30.70095
815.9249	36.93433
816.0707	33.624
816.2166	25.40533
816.3625	28.11059
816.5083	27.90624
816.6542	24.43167
816.8	23.633
816.9458	25.20024
817.0916	28.34422
817.2374	29.32626
817.3832	28.78912
817.5289	26.34684
817.6747	27.4794
817.8204	24.8616
817.9662	24.64835
818.1119	25.46267
818.2576	25.61942
818.4034	28.00837
818.5491	31.82084
818.6948	28.36489
818.8405	29.74512
818.9861	26.60092
819.1318	31.68485
819.2774	28.10303
819.423	27.04859
819.5687	29.18554
819.7143	29.40573
819.8599	27.42628
820.0055	24.62654
820.1511	20.6131
820.2967	28.94556
820.4422	31.18109
820.5878	32.72414
820.7333	25.9694
820.8788	26.4063
821.0244	28.34336
821.1699	30.52798
821.3154	29.48586
821.4609	28.44355
821.6064	27.43275
821.7519	30.19679
821.8973	25.82336
822.0428	31.22047
822.1882	27.20622
822.3337	24.45785
822.4791	30.22372
822.6245	28.2751
822.7699	20.49069
822.9153	16.5519
823.0607	20.22944
823.2061	22.78248
823.3514	21.15395
823.4968	29.29803
823.6422	26.51315
823.7875	29.96421
823.9328	27.02096
824.0781	23.70294
824.2234	28.50342
824.3687	22.99828
824.514	28.64479
824.6592	28.40782
824.8045	27.77641
824.9498	29.81863
825.095	29.55868
825.2402	24.36303
825.3854	27.71637
825.5306	29.48162
825.6758	25.07318
825.821	27.67216
825.9662	27.8405
826.1114	24.43843
826.2565	24.10044
826.4017	29.03082
826.5468	29.62213
826.692	27.81694
826.837	23.40316
826.9822	25.43244
827.1273	30.49249
827.2723	24.88004
827.4174	24.94386
827.5625	21.02813
827.7075	23.7938
827.8526	24.34802
827.9976	23.33223
828.1426	25.60844
828.2877	23.4157
828.4327	29.35758
828.5776	23.99909
828.7227	23.20094
828.8676	22.40644
829.0126	24.27176
829.1575	29.12837
829.3024	25.73919
829.4474	23.8736
829.5923	22.96342
829.7372	22.47431
829.8821	25.18096
830.027	28.22767
830.1719	22.81569
830.3168	23.52564
830.4616	27.7775
830.6064	26.99675
830.7513	26.22818
830.8961	25.79659
831.041	27.18873
831.1857	26.09236
831.3306	26.05142
831.4753	25.37232
831.6201	23.15498
831.7649	23.79645
831.9096	24.18988
832.0544	25.0512
832.1991	24.21794
832.3438	22.81855
832.4885	24.36809
832.6332	20.15253
832.778	20.63165
832.9226	21.50188
833.0673	28.23986
833.2119	26.07851
833.3566	25.16116
833.5012	23.01377
833.6459	20.23422
833.7905	22.13055
833.9351	22.62345
834.0797	24.56122
834.2243	24.62517
834.3688	23.16256
834.5134	21.51159
834.658	23.64167
834.8026	23.2789
834.9471	23.49644
835.0916	26.0378
835.2361	25.10518
835.3806	28.54729
835.5251	24.33085
835.6696	22.66892
835.8141	27.67715
835.9586	27.10981
836.103	26.49512
836.2474	22.4174
836.3918	23.57665
836.5363	23.40751
836.6807	26.22907
836.8251	23.55287
836.9695	22.73508
837.1138	27.29356
837.2582	23.71173
837.4026	25.92621
837.5469	27.74225
837.6913	24.69498
837.8356	23.49452
837.9799	24.11995
838.1242	29.94799
838.2686	29.1301
838.4128	28.25737
838.5571	24.23506
838.7014	21.96826
838.8456	22.7579
838.9899	25.02386
839.1341	23.02124
839.2783	24.16359
839.4225	24.82126
839.5667	25.69226
839.7109	25.51735
839.8551	24.45253
839.9993	25.87227
840.1434	25.74054
840.2876	25.20318
840.4317	25.72506
840.5759	24.64453
840.72	21.68446
840.8641	24.88582
841.0082	24.49234
841.1523	23.45178
841.2963	27.00415
841.4404	26.61575
841.5845	19.81759
841.7285	23.14925
841.8726	17.19105
842.0165	23.92353
842.1606	22.26935
842.3046	23.98858
842.4485	25.05107
842.5925	23.12752
842.7365	22.50991
842.8805	25.62748
843.0244	25.36128
843.1684	25.6643
843.3123	23.95824
843.4562	18.7798
843.6002	19.19351
843.744	18.74511
843.8879	21.01548
844.0318	21.34021
844.1757	22.39456
844.3195	22.68
844.4634	25.5419
844.6072	22.19837
844.751	21.31861
844.8948	21.82236
845.0386	25.35747
845.1824	20.00285
845.3262	22.44031
845.47	20.44203
845.6138	21.32667
845.7575	21.26206
845.9012	23.51191
846.045	23.83752
846.1887	23.55816
846.3324	17.93091
846.4761	21.3093
846.6198	27.93279
846.7635	19.38576
846.9071	23.17985
847.0508	24.0258
847.1944	23.54417
847.3381	22.22329
847.4817	18.17006
847.6253	19.98806
847.7689	23.31531
847.9125	22.11043
848.0561	18.92773
848.1996	24.4244
848.3432	23.43404
848.4868	20.90562
848.6303	23.66582
848.7738	20.50223
848.9174	20.52703
849.0609	25.75279
849.2043	25.28684
849.3478	21.75297
849.4913	19.94765
849.6348	22.38377
849.7782	20.89543
849.9217	21.22922
850.0651	20.74482
850.2086	16.25862
850.3519	20.14345
850.4954	18.07579
850.6387	20.76026
850.7821	17.38003
850.9255	21.16628
851.0688	24.3196
851.2122	25.57695
851.3555	18.6541
851.4988	20.82134
851.6422	20.19742
851.7855	19.13243
851.9288	18.10361
852.0721	20.38321
852.2153	20.77185
852.3586	17.96747
852.5018	17.93278
852.6451	18.85026
852.7883	21.43059
852.9315	21.60202
853.0748	22.66248
853.218	27.23521
853.3611	20.02248
853.5043	19.86032
853.6475	23.4689
853.7906	19.42072
853.9338	18.68586
854.0769	15.72731
854.22	19.27517
854.3632	21.77
854.5063	17.18409
854.6494	18.91726
854.7924	21.10146
854.9355	19.30988
855.0786	18.07647
855.2216	22.70306
855.3647	19.85663
855.5077	20.2023
855.6507	21.04509
855.7937	20.35902
855.9367	15.05696
856.0797	18.11214
856.2227	19.29618
856.3657	20.70129
856.5086	19.64258
856.6516	20.83034
856.7945	18.74056
856.9374	16.86965
857.0803	18.00066
857.2232	19.09139
857.3661	15.674
857.509	18.91742
857.6519	17.9644
857.7947	18.20318
857.9376	21.76157
858.0804	19.62389
858.2232	22.72076
858.366	18.51087
858.5089	14.75628
858.6516	15.77355
858.7944	23.25532
858.9372	18.54926
859.08	18.42756
859.2227	20.32644
859.3654	22.31051
859.5082	23.13749
859.6509	18.80367
859.7936	23.29299
859.9363	18.50744
860.079	20.76528
860.2217	20.13735
860.3643	19.44741
860.507	24.43606
860.6496	18.55485
860.7922	21.52888
860.9349	20.37868
861.0775	19.43847
861.2201	16.69339
861.3627	16.76484
861.5052	21.58974
861.6478	20.59716
861.7904	17.56031
861.9329	18.40241
862.0755	22.65464
862.218	21.41039
862.3605	20.14734
862.503	20.07064
862.6455	19.27791
862.788	20.9339
862.9305	17.43556
863.0729	17.92632
863.2154	18.202
863.3578	20.36253
863.5002	19.49485
863.6426	15.90837
863.7851	21.48142
863.9275	18.13794
864.0698	14.50772
864.2122	16.30043
864.3546	21.84788
864.4969	23.41771
864.6393	19.88955
864.7816	16.43849
864.924	16.98859
865.0662	18.12325
865.2086	17.63237
865.3508	18.63064
865.4931	17.95378
865.6354	15.59676
865.7776	17.45158
865.9199	17.18434
866.0621	16.93888
866.2043	13.63018
866.3466	12.70344
866.4888	21.37289
866.6309	22.25533
866.7731	17.87344
866.9153	19.75146
867.0574	18.68943
867.1996	14.87172
867.3417	14.83694
867.4839	16.37537
867.626	20.60098
867.7681	19.54
867.9102	18.43904
868.0522	18.69453
868.1943	15.94947
868.3364	21.43954
868.4785	23.32395
868.6205	20.34602
868.7625	19.94234
868.9045	20.8078
869.0465	21.81133
869.1885	16.57978
869.3305	16.86962
869.4725	18.91465
869.6144	12.77873
869.7564	18.35289
869.8983	17.45842
870.0403	16.76719
870.1822	16.00442
870.3241	19.93457
870.466	15.94771
870.6079	14.68135
870.7498	19.98867
870.8916	18.66146
871.0335	14.81859
871.1754	15.987
871.3171	14.47167
871.459	14.15338
871.6008	20.40618
871.7426	19.51346
871.8844	17.87781
872.0262	18.51195
872.1679	18.37995
872.3097	18.51714
872.4514	17.51954
872.5931	23.58724
872.7349	17.72039
872.8766	17.82352
873.0183	17.10851
873.16	21.90766
873.3017	17.94546
873.4434	15.90697
873.585	15.45639
873.7266	14.20916
873.8683	14.70431
874.0099	17.60971
874.1516	17.38893
874.2932	16.86801
874.4348	18.63524
874.5763	17.47666
874.7179	14.7223
874.8594	18.27262
875.001	17.55621
875.1425	18.09023
875.2841	18.7301
875.4256	12.40572
875.5671	11.8952
875.7086	15.81023
875.85	16.3936
875.9915	15.32615
876.133	14.08453
876.2744	16.89227
876.4159	15.00324
876.5573	17.92425
876.6987	17.68231
876.8401	17.04096
876.9815	19.76513
877.1229	18.88442
877.2643	20.3305
877.4056	16.46734
877.547	15.42386
877.6884	15.64966
877.8297	11.79135
877.971	13.64188
878.1123	15.85792
878.2536	7.412487
878.3949	17.8036
878.5362	12.74522
878.6774	12.236
878.8187	14.0681
878.9599	18.87066
879.1011	15.09575
879.2424	16.20134
879.3836	15.65421
879.5248	13.21732
879.666	17.05194
879.8071	15.44554
879.9483	18.52872
880.0895	16.14707
880.2306	17.65386
880.3718	16.15409
880.5129	16.00566
880.654	16.96915
880.7951	15.35223
880.9362	13.69049
881.0773	14.7887
881.2183	14.79427
881.3594	13.43203
881.5004	19.13112
881.6414	9.648116
881.7825	15.41544
881.9235	13.9988
882.0645	14.58234
882.2054	11.49505
882.3464	13.74089
882.4874	16.26453
882.6284	11.48096
882.7693	13.74649
882.9103	16.16932
883.0512	15.7911
883.1921	17.62327
883.333	13.66048
883.4739	14.1862
883.6147	15.06338
883.7556	16.14667
883.8965	12.80898
884.0374	14.89643
884.1782	14.32664
884.319	16.63946
884.4598	12.40027
884.6006	13.37166
884.7414	8.319069
884.8822	15.31825
885.0229	17.77376
885.1637	16.34297
885.3044	13.42803
885.4452	15.19539
885.5859	15.19609
885.7266	11.69295
885.8673	14.48873
886.008	14.4931
886.1487	20.09368
886.2894	19.22437
886.43	16.89255
886.5707	13.38802
886.7113	11.57157
886.8519	12.67349
886.9926	11.93432
887.1331	13.15435
887.2737	15.06853
887.4143	13.19982
887.5549	11.7075
887.6954	11.82872
887.836	12.42779
887.9765	12.95679
888.1171	11.99286
888.2576	13.30466
888.3981	11.02431
888.5386	13.00602
888.679	13.4427
888.8195	16.8292
888.96	16.64231
889.1004	12.12202
889.2408	10.17163
889.3813	15.39501
889.5217	14.58706
889.6621	16.65095
889.8025	17.58471
889.9429	13.87357
890.0833	12.54349
890.2236	15.40921
890.364	13.53216
890.5043	16.30851
890.6446	14.73127
890.7849	10.1916
890.9252	9.065075
891.0655	11.28537
891.2058	10.86601
891.3461	14.76919
891.4863	17.41162
891.6266	16.69069
891.7668	12.01754
891.907	13.46958
892.0472	10.0765
892.1874	15.68554
892.3276	14.37807
892.4678	11.62042
892.608	10.10026
892.7481	11.28841
892.8883	11.33784
893.0284	12.48053
893.1685	14.69804
893.3087	12.3658
893.4487	8.067114
893.5889	14.80583
893.7289	17.07978
893.869	13.68175
894.009	10.53585
894.1491	14.31774
894.2891	15.26651
894.4291	13.0471
894.5692	11.79456
894.7092	12.48537
894.8491	8.682805
894.9891	11.48727
895.1291	14.12266
895.269	13.8585
895.409	11.52358
895.549	11.70995
895.6888	10.55075
895.8288	13.70777
895.9687	9.015702
896.1086	13.64706
896.2484	16.77316
896.3883	13.86256
896.5281	14.98727
896.668	10.64318
896.8079	10.24634
896.9476	8.74284
897.0875	12.5937
897.2272	11.53925
897.3671	15.08384
897.5068	9.838102
897.6466	6.18422
897.7864	7.933692
897.9261	10.02696
898.0658	12.35776
898.2056	10.72763
898.3453	11.32312
898.4849	8.799889
898.6246	6.082365
898.7643	7.477476
898.904	8.242528
899.0436	6.389395
899.1833	8.378328
899.3229	10.72233
899.4625	15.31744
899.6021	13.76326
899.7417	12.82364
899.8813	10.23503
900.0209	8.253942
900.1605	8.912305
900.3	9.520064
900.4395	10.62035
900.579	10.822
900.7186	11.07872
900.8581	12.21956
900.9976	8.871552
901.1371	12.30228
901.2766	13.29588
901.416	12.32669
901.5555	6.235762
901.6949	7.368966
901.8344	11.36022
901.9738	9.425248
902.1132	6.988895
902.2526	10.61573
902.3919	4.268948
902.5313	8.512966
902.6707	15.72833
