SPECTRUM DATA FILE
SpectrumCount:	1
PixelCount:	3648
UserName:	ToughBook User
SampleName:	
LightSource:	
Comments:	
DeviceName:	Qwave
DeviceManufacturer:	Broadcom
DeviceSerialNo:	11311

Name:	last spectrum
Date:	2024-05-02T15:22:41.0556090+02:00
ExposureTime:	0.02
TemporalAvg:	1
IntensityUnit:	normalizedCounts
CCDLoadLevel:	0.07515053
Temperature:	29.98056
DiagramColor:	200
ProcessingSteps:	335

Wavelength [nm]	Intensity1
334.421	13.21547
334.5891	17.10098
334.7573	17.59668
334.9254	18.36319
335.0935	18.3845
335.2616	13.54713
335.4297	17.8305
335.5978	19.98904
335.7659	13.80072
335.934	9.293572
336.1021	13.47587
336.2701	18.86473
336.4382	12.75627
336.6063	13.5737
336.7744	15.33413
336.9424	15.30979
337.1105	16.78839
337.2785	19.62954
337.4466	20.46208
337.6146	19.03163
337.7827	15.29777
337.9507	15.45447
338.1187	15.05503
338.2867	16.72756
338.4548	14.67751
338.6228	15.37892
338.7908	15.13233
338.9588	15.53597
339.1268	17.63922
339.2948	16.97603
339.4628	14.64106
339.6308	17.1818
339.7988	17.2689
339.9667	16.20418
340.1347	22.54058
340.3027	20.30492
340.4707	19.08542
340.6386	18.94814
340.8066	15.27207
340.9745	17.18441
341.1425	12.92444
341.3104	17.90556
341.4784	19.38762
341.6463	20.14424
341.8142	16.29246
341.9821	14.08244
342.1501	18.06523
342.318	19.03697
342.4859	21.66398
342.6538	18.89487
342.8217	18.90891
342.9896	21.95711
343.1575	19.03644
343.3254	21.66215
343.4933	23.76352
343.6612	17.33381
343.829	21.08605
343.9969	20.76702
344.1648	18.42439
344.3326	13.75775
344.5005	9.496773
344.6683	15.40242
344.8362	18.00292
345.004	19.23282
345.1719	17.4972
345.3397	20.91047
345.5075	20.66673
345.6754	19.00531
345.8432	14.53995
346.011	19.66428
346.1788	16.14663
346.3466	15.74686
346.5144	17.7684
346.6822	24.26927
346.85	26.29882
347.0178	20.51724
347.1856	17.60152
347.3534	17.20739
347.5211	13.86163
347.6889	18.37217
347.8567	17.87703
348.0244	24.2218
348.1922	21.07777
348.3599	23.08549
348.5277	25.63488
348.6954	22.54802
348.8632	20.26206
349.0309	20.65195
349.1986	22.04127
349.3663	21.93973
349.5341	17.1811
349.7018	21.9992
349.8695	23.96967
350.0372	19.74395
350.2049	28.59973
350.3726	25.40627
350.5403	26.89703
350.7079	25.95805
350.8756	28.58268
351.0433	24.79983
351.211	23.51509
351.3786	20.62084
351.5463	20.71652
351.714	22.49249
351.8816	19.71498
352.0493	20.20082
352.2169	23.69906
352.3846	21.66981
352.5522	22.92677
352.7198	21.77068
352.8875	20.21138
353.0551	24.59425
353.2227	22.07879
353.3903	24.03009
353.5579	24.34964
353.7255	28.93407
353.8931	25.00712
354.0607	26.57542
354.2283	27.58967
354.3958	27.97553
354.5634	25.07632
354.731	25.81482
354.8986	35.51752
355.0661	26.03489
355.2337	25.85867
355.4012	24.89552
355.5688	24.42428
355.7363	22.48818
355.9039	28.40985
356.0714	26.28602
356.239	27.32763
356.4065	29.08377
356.574	22.67116
356.7415	19.50865
356.909	21.81469
357.0765	22.704
357.244	26.6203
357.4115	26.04133
357.579	26.44469
357.7465	24.93469
357.914	21.52414
358.0815	22.25599
358.249	18.84996
358.4164	18.25645
358.5839	15.62309
358.7513	21.41033
358.9188	26.14041
359.0862	24.85442
359.2537	29.08142
359.4211	30.3531
359.5886	30.35345
359.756	31.39561
359.9234	32.2011
360.0909	23.10939
360.2583	28.27955
360.4257	24.42013
360.5931	26.16204
360.7605	24.67985
360.9279	23.43031
361.0953	27.02489
361.2627	26.84517
361.4301	28.04273
361.5974	26.53039
361.7648	24.17912
361.9322	23.44771
362.0995	28.18218
362.2669	28.9099
362.4343	27.77969
362.6016	33.04675
362.769	33.18811
362.9363	35.58894
363.1036	33.67283
363.271	27.38731
363.4383	27.55057
363.6056	30.43103
363.7729	33.59247
363.9402	33.42229
364.1075	31.31976
364.2748	29.2984
364.4421	29.86881
364.6094	25.46926
364.7767	31.25554
364.944	29.49734
365.1113	28.26518
365.2786	33.09914
365.4458	37.89436
365.6131	42.24873
365.7803	41.15261
365.9476	43.85897
366.1148	35.11819
366.2821	29.1126
366.4493	29.35117
366.6166	33.98213
366.7838	33.28659
366.951	39.21153
367.1182	35.51356
367.2855	35.32568
367.4527	35.30667
367.6199	33.63967
367.7871	35.03777
367.9543	36.71339
368.1215	26.42089
368.2886	36.03621
368.4558	38.06219
368.623	34.41661
368.7902	34.85734
368.9573	34.38593
369.1245	37.46043
369.2917	40.87505
369.4588	38.30288
369.6259	40.99601
369.7931	41.31076
369.9602	41.65444
370.1274	40.27453
370.2945	32.25224
370.4616	33.30569
370.6287	33.70766
370.7958	35.08647
370.963	35.87475
371.1301	36.02497
371.2971	41.96091
371.4643	47.27517
371.6313	46.4867
371.7984	43.55341
371.9655	33.15608
372.1326	33.94512
372.2997	33.97161
372.4667	39.8098
372.6338	44.53082
372.8008	45.23752
372.9679	40.34879
373.1349	38.03087
373.3019	32.40153
373.469	29.05589
373.636	30.43081
373.803	35.02672
373.9701	38.00973
374.1371	43.14758
374.3041	39.99257
374.4711	37.172
374.6381	30.83442
374.8051	27.7291
374.9721	27.65438
375.1391	35.61506
375.3061	41.61792
375.473	42.61076
375.64	42.17763
375.8069	46.00463
375.9739	42.11474
376.1409	40.97544
376.3078	38.42847
376.4748	39.83856
376.6417	39.79937
376.8087	37.97468
376.9756	45.57561
377.1425	42.78489
377.3094	46.7465
377.4763	49.13911
377.6432	51.29675
377.8102	58.27004
377.9771	51.63655
378.144	50.08635
378.3109	53.06695
378.4777	54.73289
378.6446	46.2021
378.8115	46.17361
378.9784	49.25549
379.1452	48.68178
379.3121	49.46223
379.4789	46.894
379.6458	43.95728
379.8127	38.79478
379.9795	39.87594
380.1463	47.90665
380.3131	51.25646
380.48	51.54503
380.6468	52.8113
380.8136	52.903
380.9804	53.81931
381.1472	51.89926
381.314	49.89124
381.4808	45.84096
381.6476	44.59648
381.8144	44.11425
381.9812	38.45825
382.148	38.3764
382.3147	40.19799
382.4815	38.74847
382.6483	36.95161
382.815	36.36057
382.9818	33.71449
383.1485	35.29269
383.3153	32.54419
383.482	38.28225
383.6487	40.46463
383.8155	37.15431
383.9822	37.72874
384.1489	40.86806
384.3156	47.10926
384.4823	53.22967
384.649	52.9777
384.8157	55.53222
384.9824	52.08503
385.1491	54.79098
385.3158	52.41547
385.4825	48.68089
385.6491	50.12825
385.8158	43.99452
385.9825	41.64447
386.1491	50.76842
386.3157	52.18879
386.4824	55.72666
386.649	51.77307
386.8157	49.48311
386.9823	51.35596
387.1489	44.83154
387.3156	45.47308
387.4821	54.65661
387.6488	50.3774
387.8154	52.9613
387.982	46.06586
388.1486	50.88966
388.3152	49.24214
388.4818	47.58817
388.6483	50.28262
388.8149	52.63689
388.9815	53.13716
389.148	56.22701
389.3146	65.74594
389.4811	62.42399
389.6477	67.09793
389.8142	66.32159
389.9808	64.87868
390.1473	66.10427
390.3138	65.02268
390.4804	60.75804
390.6469	62.36602
390.8134	70.56748
390.9799	75.34744
391.1464	67.59798
391.3129	72.58643
391.4794	71.78522
391.6459	67.41233
391.8124	61.66307
391.9789	63.7681
392.1453	57.8954
392.3118	52.72514
392.4782	62.58236
392.6447	51.89486
392.8112	42.50396
392.9776	35.63771
393.144	29.76299
393.3105	26.49933
393.4769	29.63448
393.6433	34.71011
393.8098	39.3003
393.9762	47.63936
394.1426	56.43117
394.309	53.68827
394.4754	59.17568
394.6418	64.58711
394.8082	70.41837
394.9746	74.16895
395.141	74.05101
395.3073	80.47883
395.4737	79.94101
395.64	80.25033
395.8064	76.94713
395.9728	69.96417
396.1391	59.709
396.3055	48.32989
396.4718	43.20174
396.6381	35.54104
396.8045	34.30983
396.9708	30.07478
397.1371	41.6309
397.3034	45.35629
397.4697	61.50056
397.636	70.75503
397.8023	83.30556
397.9686	90.10856
398.1349	89.57776
398.3012	84.28084
398.4675	83.74455
398.6337	93.45287
398.8	101.823
398.9662	106.4287
399.1325	97.6608
399.2988	92.77253
399.465	97.9783
399.6313	94.07376
399.7975	94.54454
399.9637	100.869
400.1299	102.6855
400.2961	105.9575
400.4624	106.3537
400.6286	97.76572
400.7948	105.3744
400.961	108.1048
401.1272	107.1972
401.2934	103.9928
401.4595	105.0814
401.6257	106.1078
401.7919	106.8266
401.9581	106.9764
402.1242	112.5737
402.2904	109.8172
402.4565	105.8234
402.6227	109.472
402.7888	111.8609
402.955	105.7512
403.1211	100.261
403.2872	99.75574
403.4533	97.05714
403.6194	104.1968
403.7856	112.2678
403.9517	114.378
404.1177	114.3943
404.2838	112.5549
404.4499	102.073
404.616	93.748
404.7821	105.6527
404.9482	104.3689
405.1142	110.9244
405.2803	120.0992
405.4464	113.8086
405.6124	108.0724
405.7784	105.5318
405.9445	114.1389
406.1105	113.7744
406.2766	107.1959
406.4426	100.6016
406.6086	107.0814
406.7746	117.0265
406.9406	116.3433
407.1066	111.2361
407.2726	114.9859
407.4386	111.7777
407.6046	112.1481
407.7706	107.4527
407.9366	112.5156
408.1025	126.0084
408.2685	127.8001
408.4344	125.1462
408.6004	128.3821
408.7664	135.7182
408.9323	135.422
409.0983	136.8065
409.2642	130.1422
409.4301	126.4406
409.596	122.2333
409.762	114.0881
409.9279	108.9821
410.0938	102.2795
410.2597	101.0172
410.4256	111.6442
410.5915	117.8432
410.7574	124.2857
410.9232	131.3203
411.0891	130.1289
411.255	132.188
411.4209	136.7301
411.5867	136.832
411.7526	141.8629
411.9184	137.4615
412.0843	137.6434
412.2501	140.504
412.4159	136.7608
412.5818	129.5573
412.7476	130.5918
412.9134	139.9922
413.0792	128.134
413.245	121.1237
413.4108	128.266
413.5766	133.9953
413.7424	139.9191
413.9082	147.6312
414.074	143.2974
414.2397	132.3922
414.4055	130.8617
414.5713	133.4151
414.737	138.599
414.9028	139.4685
415.0685	150.0172
415.2343	144.2757
415.4	135.9161
415.5658	128.0243
415.7315	129.857
415.8972	138.452
416.0629	146.184
416.2286	146.4347
416.3943	147.225
416.56	151.7408
416.7257	147.6778
416.8914	144.1254
417.0571	145.0748
417.2228	137.5626
417.3884	135.5766
417.5541	136.7915
417.7198	141.2279
417.8854	138.1793
418.0511	140.7192
418.2167	142.9541
418.3824	144.6796
418.548	142.3823
418.7136	138.8407
418.8792	137.6753
419.0449	148.4291
419.2105	150.9071
419.3761	159.587
419.5417	154.2164
419.7073	139.9628
419.8729	138.1964
420.0385	142.7446
420.204	144.0992
420.3696	149.3845
420.5352	153.8316
420.7007	162.0683
420.8663	161.3844
421.0319	165.3007
421.1974	163.7023
421.3629	158.8483
421.5285	155.022
421.694	157.3624
421.8595	155.2388
422.0251	166.4245
422.1906	171.8136
422.3561	159.6254
422.5216	140.3646
422.6871	128.6924
422.8526	141.3266
423.0181	151.6049
423.1835	162.373
423.349	158.9614
423.5145	155.1917
423.68	145.8129
423.8454	157.0132
424.0109	162.2254
424.1763	155.5584
424.3418	166.0023
424.5072	172.928
424.6726	164.7814
424.838	156.3561
425.0035	156.5444
425.1689	158.0376
425.3343	161.0385
425.4997	160.4829
425.6651	165.5487
425.8305	164.0667
425.9959	150.6422
426.1613	151.5212
426.3267	166.5832
426.492	173.2188
426.6574	165.6874
426.8228	163.3783
426.9881	152.0398
427.1534	137.5237
427.3188	138.5238
427.4841	145.1763
427.6495	157.3768
427.8148	167.5308
427.9801	171.0124
428.1454	164.7233
428.3107	157.8408
428.476	161.971
428.6414	153.3579
428.8066	147.0514
428.9719	146.2526
429.1372	149.5123
429.3025	151.6255
429.4678	160.6094
429.633	156.7908
429.7983	137.8637
429.9636	121.7197
430.1288	117.7284
430.294	118.289
430.4593	118.7053
430.6245	120.5368
430.7897	122.1197
430.955	113.2534
431.1202	117.6842
431.2854	134.5552
431.4506	152.7263
431.6158	174.6563
431.781	187.6933
431.9462	194.3415
432.1114	192.9521
432.2766	173.5747
432.4417	153.3519
432.6069	145.8906
432.772	156.2144
432.9372	176.0119
433.1024	188.4029
433.2675	192.37
433.4326	193.7374
433.5977	184.548
433.7629	167.3087
433.928	152.7682
434.0931	144.4518
434.2582	154.3346
434.4233	169.1297
434.5884	183.8175
434.7535	189.6982
434.9186	195.6163
435.0837	186.8666
435.2488	184.0531
435.4138	183.3686
435.5789	188.1282
435.744	189.8414
435.909	194.8109
436.0741	202.9904
436.2391	202.9163
436.4042	213.687
436.5692	215.1403
436.7342	208.2085
436.8992	210.0657
437.0643	201.0869
437.2293	192.1032
437.3943	192.0814
437.5593	196.8762
437.7243	197.7569
437.8893	202.8992
438.0542	197.0287
438.2192	181.0843
438.3842	166.3785
438.5491	168.9729
438.7141	175.3291
438.8791	195.0238
439.044	200.3518
439.209	201.6805
439.3739	200.7211
439.5388	207.7942
439.7037	205.8852
439.8687	206.8297
440.0336	213.6783
440.1985	209.3357
440.3634	196.2226
440.5283	189.3805
440.6932	192.8633
440.8581	199.8928
441.0229	212.9033
441.1878	229.1805
441.3527	224.2679
441.5175	218.2762
441.6824	209.7599
441.8472	221.3583
442.0121	228.5139
442.1769	226.1349
442.3418	225.2
442.5066	217.4282
442.6714	221.3248
442.8362	226.7781
443.001	219.4425
443.1659	222.5049
443.3307	217.7201
443.4955	219.1583
443.6602	226.5405
443.825	232.721
443.9898	232.6513
444.1546	226.4271
444.3193	222.8041
444.4841	220.5475
444.6488	238.7044
444.8136	240.773
444.9783	239.8948
445.1431	243.8453
445.3078	239.6614
445.4725	228.2052
445.6372	211.1119
445.802	208.7692
445.9667	213.8746
446.1314	214.4864
446.2961	226.6577
446.4608	229.9674
446.6255	233.116
446.7901	234.3189
446.9548	229.7269
447.1195	230.1343
447.2841	239.9157
447.4488	254.445
447.6134	258.7191
447.7781	257.7451
447.9427	247.3291
448.1074	238.7328
448.272	230.9535
448.4366	236.7234
448.6012	253.1697
448.7658	262.1656
448.9305	253.8616
449.095	249.2639
449.2596	247.206
449.4242	256.5685
449.5888	251.3196
449.7534	254.8392
449.9179	254.5971
450.0825	264.4785
450.2471	267.0408
450.4116	270.0006
450.5762	278.0271
450.7407	271.5798
450.9052	273.3142
451.0698	270.1695
451.2343	270.1293
451.3988	269.5315
451.5633	267.2601
451.7278	263.7718
451.8923	270.4131
452.0568	268.3447
452.2213	264.4592
452.3858	262.3396
452.5503	253.3553
452.7148	245.9801
452.8792	237.405
453.0437	244.0808
453.2081	244.7303
453.3726	244.6517
453.537	244.6268
453.7015	258.562
453.8659	270.4567
454.0303	276.7245
454.1947	270.9601
454.3592	268.4487
454.5236	276.0399
454.688	269.7155
454.8524	263.2357
455.0168	254.2554
455.1811	258.528
455.3455	260.2262
455.5099	265.2976
455.6743	263.8279
455.8386	267.848
456.003	276.9682
456.1673	283.1541
456.3317	284.0902
456.496	270.7965
456.6603	271.0338
456.8246	263.7504
456.989	265.4867
457.1533	268.1248
457.3176	270.2806
457.4819	277.3552
457.6462	285.0388
457.8105	272.371
457.9748	269.5409
458.1391	268.0505
458.3033	258.9358
458.4676	257.9151
458.6319	253.7516
458.7961	276.0463
458.9604	289.7638
459.1246	278.5923
459.2888	276.0526
459.4531	265.5229
459.6173	268.6733
459.7815	276.2144
459.9457	282.2863
460.11	268.3123
460.2741	265.9611
460.4384	269.0127
460.6025	272.1255
460.7667	279.3636
460.9309	279.1098
461.0951	283.8803
461.2592	281.4248
461.4234	282.5067
461.5876	280.8578
461.7517	283.8275
461.9159	283.9495
462.08	291.206
462.2441	286.4515
462.4082	296.256
462.5724	282.2885
462.7365	283.7683
462.9006	282.7087
463.0647	295.0931
463.2288	288.5215
463.3929	278.3802
463.557	283.0823
463.721	281.1465
463.8851	272.3952
464.0492	278.717
464.2132	286.0598
464.3773	287.4568
464.5414	277.2316
464.7054	275.2263
464.8694	276.1217
465.0334	275.9441
465.1975	289.0222
465.3615	288.2951
465.5255	285.3085
465.6895	277.408
465.8535	285.9005
466.0175	302.3141
466.1815	307.3488
466.3455	294.8095
466.5095	289.3994
466.6734	274.2687
466.8374	268.1508
467.0014	278.4892
467.1653	284.1202
467.3293	292.4291
467.4932	297.3769
467.6571	297.8763
467.8211	291.4011
467.985	289.6813
468.1489	286.2921
468.3128	295.6524
468.4767	303.7326
468.6406	300.4908
468.8045	307.8664
468.9684	296.361
469.1323	296.4356
469.2962	298.0968
469.46	304.7654
469.6239	306.5985
469.7878	301.2552
469.9516	291.6898
470.1154	287.3208
470.2793	282.2262
470.4431	281.3094
470.607	287.4672
470.7708	289.4543
470.9346	288.6042
471.0984	299.9226
471.2622	293.5836
471.426	300.0922
471.5898	299.6075
471.7536	310.6676
471.9174	323.4174
472.0811	321.4406
472.2449	324.1519
472.4087	316.7864
472.5724	314.1625
472.7362	303.1587
472.8999	290.7936
473.0637	293.8869
473.2274	287.3462
473.3911	295.1532
473.5548	294.4669
473.7185	294.625
473.8822	300.7207
474.0459	305.1902
474.2096	302.0763
474.3733	301.6571
474.537	297.8624
474.7007	309.6113
474.8643	317.6878
475.028	316.8904
475.1917	311.1003
475.3553	298.2307
475.519	295.6907
475.6826	298.9607
475.8463	300.1472
476.0099	295.6096
476.1735	296.7602
476.3371	298.5449
476.5007	289.7596
476.6643	286.0508
476.8279	296.9279
476.9915	307.6209
477.1551	301.3392
477.3187	307.1727
477.4823	315.2607
477.6458	325.6843
477.8094	311.9576
477.9729	310.0117
478.1365	310.838
478.3	306.7881
478.4636	310.1258
478.6271	301.6267
478.7906	296.2884
478.9541	302.2229
479.1176	299.1783
479.2812	306.4567
479.4447	311.2198
479.6082	318.051
479.7716	310.3959
479.9351	305.8251
480.0986	309.5503
480.2621	311.6996
480.4255	304.3991
480.589	300.8195
480.7524	303.4271
480.9159	301.1404
481.0793	300.5232
481.2428	301.6415
481.4062	303.8838
481.5696	314.8775
481.733	311.3218
481.8964	320.2323
482.0598	324.0868
482.2232	314.8904
482.3866	308.1598
482.55	306.8711
482.7134	309.2463
482.8768	308.3568
483.0401	301.5701
483.2035	304.2326
483.3668	313.5381
483.5302	318.0417
483.6935	308.7878
483.8568	314.3908
484.0202	305.0639
484.1835	296.4169
484.3468	298.5418
484.5101	305.4675
484.6734	310.5178
484.8367	301.4726
485	300.9483
485.1633	308.1258
485.3266	306.8753
485.4899	297.3844
485.6531	280.8821
485.8164	270.3764
485.9796	250.2793
486.1429	231.7745
486.3061	234.0318
486.4694	254.4651
486.6326	274.7574
486.7958	286.048
486.959	284.4819
487.1223	279.7188
487.2855	280.7346
487.4486	277.362
487.6118	298.6678
487.775	295.9506
487.9382	304.4822
488.1014	307.4657
488.2646	308.6283
488.4277	313.3069
488.5909	301.539
488.754	297.5811
488.9171	284.569
489.0803	291.1854
489.2434	295.5351
489.4066	309.2299
489.5697	325.6102
489.7328	327.4581
489.8959	326.9574
490.059	325.8626
490.2221	310.9073
490.3852	307.8278
490.5482	310.6721
490.7113	320.411
490.8744	311.6904
491.0374	304.5795
491.2005	302.5861
491.3636	310.2346
491.5266	324.1802
491.6896	308.7617
491.8527	290.9794
492.0157	275.8234
492.1787	267.1554
492.3417	280.1013
492.5047	304.6643
492.6677	309.1342
492.8307	325.9206
492.9937	326.6902
493.1567	319.7455
493.3196	308.6488
493.4826	309.3811
493.6456	309.4878
493.8085	305.6449
493.9715	296.6718
494.1344	303.4551
494.2974	307.9111
494.4603	324.1346
494.6232	321.87
494.7861	317.9015
494.949	318.5847
495.1119	317.7294
495.2748	320.0609
495.4377	312.9424
495.6006	309.1221
495.7635	294.2386
495.9264	305.4135
496.0892	321.1257
496.2521	324.0029
496.4149	321.5944
496.5778	314.4196
496.7407	321.3073
496.9035	323.4724
497.0663	319.9484
497.2291	319.6186
497.3919	322.8817
497.5547	329.1622
497.7176	330.4977
497.8804	312.6969
498.0432	305.7299
498.2059	302.636
498.3687	291.2382
498.5315	288.4397
498.6942	310.1684
498.857	319.9017
499.0198	322.3158
499.1825	324.9687
499.3452	322.9775
499.508	314.3148
499.6707	321.6921
499.8334	326.2247
499.9962	321.2554
500.1589	315.0416
500.3216	320.2762
500.4843	311.8359
500.6469	306.7716
500.8096	312.5669
500.9723	309.3973
501.135	312.7957
501.2976	301.685
501.4603	300.9586
501.623	297.1918
501.7856	302.5175
501.9482	311.0956
502.1109	314.9966
502.2735	314.3043
502.4361	308.1317
502.5987	311.044
502.7614	313.6389
502.924	311.3861
503.0865	318.2903
503.2491	329.4015
503.4117	333.977
503.5743	321.9327
503.7368	311.9403
503.8994	299.7725
504.062	301.304
504.2245	293.2726
504.3871	314.266
504.5496	323.1635
504.7121	329.1977
504.8746	332.6946
505.0372	316.5709
505.1997	307.5015
505.3622	333.804
505.5247	338.053
505.6872	338.1206
505.8497	339.3274
506.0121	347.0976
506.1746	340.2339
506.3371	336.9671
506.4995	334.3798
506.662	328.7829
506.8244	330.8741
506.9869	328.2115
507.1493	329.5916
507.3117	327.3424
507.4742	333.8864
507.6366	333.2575
507.799	319.0064
507.9614	311.5294
508.1238	311.3307
508.2862	309.3351
508.4485	317.7137
508.6109	322.9994
508.7733	333.2582
508.9357	333.9238
509.098	333.5962
509.2604	335.5936
509.4227	327.5949
509.5851	336.5627
509.7474	323.8515
509.9097	307.916
510.072	310.8406
510.2343	323.3831
510.3966	333.7238
510.5589	330.2414
510.7212	316.9105
510.8835	314.0929
511.0458	319.2513
511.2081	316.5498
511.3703	324.8175
511.5326	333.3443
511.6949	339.1457
511.8571	334.511
512.0193	332.3472
512.1816	335.9266
512.3438	319.3904
512.506	313.6055
512.6682	307.2304
512.8304	308.8862
512.9926	303.9861
513.1548	311.0818
513.317	309.1861
513.4792	313.3959
513.6414	303.7898
513.8035	306.2895
513.9657	301.6326
514.1279	302.504
514.29	306.8059
514.4521	314.3158
514.6143	319.5686
514.7764	308.9968
514.9385	299.3019
515.1006	300.4583
515.2628	312.4754
515.4249	311.6412
515.587	307.979
515.7491	306.2816
515.9111	315.9946
516.0732	310.2854
516.2353	315.0612
516.3973	303.0847
516.5594	280.8782
516.7214	260.4966
516.8835	247.0795
517.0455	249.1212
517.2076	248.4582
517.3696	252.0959
517.5316	276.4692
517.6937	310.7758
517.8557	317.4734
518.0176	304.7541
518.1796	281.1292
518.3416	256.2977
518.5036	251.835
518.6656	269.1325
518.8275	295.502
518.9895	303.3239
519.1514	296.9221
519.3134	297.3802
519.4753	299.6137
519.6373	304.0389
519.7992	307.9909
519.9611	302.3734
520.123	316.2144
520.2849	317.1808
520.4468	306.1733
520.6087	299.9261
520.7706	300.1621
520.9325	293.7069
521.0944	312.3507
521.2562	316.4735
521.4181	314.7713
521.58	309.05
521.7418	299.2718
521.9036	312.4949
522.0655	320.9293
522.2273	318.3435
522.3891	320.8698
522.551	309.4207
522.7128	293.973
522.8746	297.0729
523.0363	310.7956
523.1981	317.911
523.3599	306.1838
523.5217	308.049
523.6835	310.1341
523.8452	321.256
524.007	333.788
524.1687	334.7739
524.3304	325.8057
524.4922	332.8349
524.6539	330.0277
524.8157	324.8789
524.9774	321.4534
525.1391	317.7794
525.3008	321.2132
525.4625	322.9914
525.6241	330.959
525.7858	335.9733
525.9475	340.3472
526.1092	331.8596
526.2709	311.6824
526.4325	300.3097
526.5942	281.7879
526.7558	283.2206
526.9174	290.3698
527.079	289.9662
527.2407	303.0975
527.4023	304.1375
527.5639	312.2492
527.7255	326.2524
527.8871	328.3265
528.0487	327.8399
528.2103	324.3899
528.3718	321.0686
528.5334	317.2327
528.695	328.1126
528.8565	340.9603
529.0181	349.5448
529.1796	334.3199
529.3412	351.6184
529.5027	343.0831
529.6642	335.5507
529.8257	327.6074
529.9872	313.6686
530.1487	314.1775
530.3102	338.3397
530.4717	338.253
530.6332	341.9673
530.7947	338.1508
530.9562	340.4777
531.1176	341.7039
531.2791	337.894
531.4405	339.9173
531.6019	334.4546
531.7634	331.4985
531.9248	327.7914
532.0862	328.0449
532.2477	321.8909
532.4091	311.2124
532.5704	304.05
532.7319	296.2881
532.8932	288.4597
533.0546	300.5956
533.216	312.1921
533.3774	319.3258
533.5388	318.2746
533.7001	318.3792
533.8615	321.4923
534.0228	310.7533
534.1841	305.7002
534.3455	295.973
534.5068	316.9671
534.6681	322.8876
534.8293	321.637
534.9907	314.2452
535.152	322.643
535.3132	323.8981
535.4745	321.1873
535.6358	331.8868
535.7971	326.3191
535.9583	333.5756
536.1196	334.2427
536.2808	322.1896
536.4421	317.0823
536.6033	299.9136
536.7645	300.4141
536.9258	300.0277
537.087	293.4883
537.2482	297.1529
537.4094	302.8971
537.5706	318.3046
537.7318	326.7111
537.8929	321.9541
538.0541	321.2778
538.2153	310.2816
538.3764	311.3165
538.5376	309.5227
538.6987	315.744
538.8599	312.0983
539.021	311.1299
539.1821	304.6803
539.3432	304.6191
539.5043	301.1298
539.6655	296.7181
539.8265	299.3957
539.9876	298.6739
540.1487	298.9587
540.3098	289.1044
540.4708	284.7048
540.6319	290.8686
540.793	290.2794
540.954	296.5335
541.1151	294.9126
541.2761	305.1502
541.4371	306.9596
541.5981	310.6668
541.7592	312.5729
541.9202	309.9562
542.0812	312.2054
542.2422	301.9341
542.4031	292.7495
542.5641	306.3051
542.7251	309.6732
542.886	303.004
543.0471	299.1859
543.208	297.7493
543.369	298.4983
543.5298	296.4313
543.6908	302.1164
543.8517	307.3257
544.0126	305.4985
544.1736	306.3594
544.3345	304.3507
544.4954	304.1274
544.6563	296.6389
544.8171	299.5292
544.978	305.3979
545.1389	305.6688
545.2997	310.6474
545.4606	305.5871
545.6215	295.2214
545.7823	299.4834
545.9432	306.014
546.104	314.8765
546.2648	298.7372
546.4256	300.692
546.5864	306.6111
546.7473	306.5978
546.908	310.5122
547.0688	312.2914
547.2296	311.5225
547.3904	306.1276
547.5511	298.1308
547.7119	291.5881
547.8727	292.0572
548.0334	300.8471
548.1942	300.2612
548.3549	302.172
548.5156	303.1242
548.6763	308.0364
548.837	309.7441
548.9977	310.2596
549.1584	310.3042
549.3192	309.7297
549.4798	306.3173
549.6405	306.2451
549.8011	301.7594
549.9619	304.6041
550.1225	306.8778
550.2831	304.2765
550.4438	310.6986
550.6044	304.8452
550.765	302.0688
550.9257	302.8331
551.0863	309.1144
551.2469	304.997
551.4075	302.835
551.5681	300.1538
551.7287	305.1043
551.8893	311.3783
552.0498	313.4125
552.2104	315.1578
552.371	314.853
552.5315	309.6238
552.6921	301.7284
552.8526	287.3402
553.0131	290.4819
553.1736	307.5929
553.3342	301.6593
553.4947	305.1812
553.6552	301.8844
553.8157	294.8474
553.9762	294.5062
554.1367	297.6458
554.2971	299.0749
554.4576	296.4722
554.618	299.5741
554.7785	296.4823
554.939	300.3603
555.0994	305.6321
555.2598	294.1563
555.4203	297.0296
555.5807	294.4034
555.7411	301.239
555.9015	297.2261
556.0619	293.2114
556.2223	295.7093
556.3827	293.5726
556.5431	286.0633
556.7034	289.8589
556.8638	288.3059
557.0242	281.9462
557.1845	280.3903
557.3448	280.4981
557.5052	287.9152
557.6655	283.6104
557.8259	289.8186
557.9861	293.2522
558.1465	293.7889
558.3068	291.8929
558.467	285.5147
558.6274	277.0747
558.7877	280.125
558.9479	270.6477
559.1082	270.1473
559.2684	269.6458
559.4287	275.2897
559.5889	277.7433
559.7491	279.1437
559.9094	274.6455
560.0696	271.7272
560.2299	266.5315
560.3901	269.3492
560.5502	273.4448
560.7104	294.5869
560.8707	292.6477
561.0308	290.175
561.191	290.0055
561.3511	286.2635
561.5114	270.3011
561.6714	271.7444
561.8316	280.3453
561.9918	284.855
562.1519	282.3858
562.312	280.8085
562.4722	273.9281
562.6323	275.5744
562.7924	278.4361
562.9525	282.0146
563.1125	283.3201
563.2726	284.9716
563.4327	283.2046
563.5928	275.1358
563.7528	276.9064
563.9129	276.3302
564.0729	270.5236
564.233	278.0059
564.393	277.8576
564.553	279.8929
564.7131	278.4506
564.873	273.6764
565.0331	277.2467
565.1931	285.3159
565.353	285.3604
565.5131	274.3253
565.673	265.2209
565.833	260.3424
565.9929	267.6434
566.1529	265.3099
566.3129	268.0798
566.4728	267.5065
566.6328	270.3379
566.7927	272.8992
566.9526	277.8617
567.1125	274.9552
567.2724	265.7206
567.4323	270.5775
567.5922	268.8217
567.7521	274.1121
567.9119	277.1728
568.0718	274.2269
568.2317	269.7155
568.3915	265.8149
568.5514	261.8738
568.7112	267.5041
568.871	269.5777
569.0309	269.6263
569.1907	273.2422
569.3505	271.496
569.5103	275.1735
569.6701	275.0839
569.8299	275.934
569.9897	271.2482
570.1495	263.2777
570.3092	271.4126
570.469	266.7243
570.6287	257.2064
570.7885	262.4
570.9482	255.7778
571.108	252.25
571.2677	254.0622
571.4274	262.5191
571.5871	270.9824
571.7468	269.2637
571.9066	272.3939
572.0662	275.8453
572.2259	279.6128
572.3856	275.3238
572.5452	272.8782
572.7049	271.1279
572.8646	277.02
573.0242	265.2869
573.1838	263.9075
573.3435	271.6487
573.5031	270.7039
573.6627	266.8123
573.8223	266.1072
573.9819	275.2415
574.1415	265.9002
574.3011	265.2013
574.4607	269.7235
574.6203	265.2234
574.7798	269.9467
574.9394	265.6851
575.099	268.7493
575.2585	262.6538
575.418	252.1102
575.5776	248.9509
575.7371	249.9946
575.8966	259.8973
576.0562	256.6399
576.2156	256.3347
576.3751	262.6598
576.5346	262.5383
576.6941	263.479
576.8536	268.9318
577.0131	267.4071
577.1725	270.2714
577.332	263.0529
577.4914	251.9001
577.6508	257.497
577.8103	260.6418
577.9697	249.0287
578.1291	250.6092
578.2885	254.5901
578.4479	254.415
578.6073	249.5826
578.7667	252.3081
578.9261	256.8989
579.0854	255.8851
579.2448	248.0783
579.4042	248.1054
579.5635	253.2207
579.7229	254.7501
579.8822	253.3517
580.0416	254.7606
580.2009	254.315
580.3602	248.5919
580.5195	251.7576
580.6788	250.5423
580.8381	249.7851
580.9974	257.5126
581.1566	247.5635
581.3159	253.0289
581.4752	252.5602
581.6345	255.4563
581.7937	249.945
581.9529	247.6628
582.1122	255.7465
582.2714	256.627
582.4306	255.1618
582.5898	251.0985
582.749	252.6444
582.9082	255.7402
583.0674	246.5645
583.2266	249.3413
583.3857	252.4299
583.5449	247.6435
583.7041	248.7756
583.8633	252.8173
584.0224	255.6362
584.1815	248.9169
584.3407	245.4253
584.4998	242.8041
584.6589	239.7934
584.818	245.095
584.9771	250.9518
585.1362	250.3599
585.2953	250.3395
585.4544	242.8316
585.6135	241.9233
585.7725	242.2494
585.9316	235.0799
586.0906	238.1196
586.2497	235.6609
586.4087	234.6216
586.5677	242.082
586.7267	243.5297
586.8858	240.4692
587.0448	238.9298
587.2038	241.006
587.3628	240.4241
587.5218	237.0941
587.6807	234.421
587.8397	235.7239
587.9987	236.3803
588.1577	233.2261
588.3166	231.6897
588.4755	230.5308
588.6345	222.0824
588.7934	217.3316
588.9523	205.4651
589.1112	200.5538
589.2701	201.7092
589.429	214.6101
589.5879	214.9197
589.7468	203.7168
589.9056	209.6015
590.0645	224.8896
590.2234	226.5932
590.3822	221.7343
590.5411	220.9236
590.6999	230.7393
590.8588	222.7421
591.0176	221.6724
591.1764	222.0726
591.3352	226.7103
591.494	227.0278
591.6528	218.719
591.8116	212.1794
591.9703	214.2666
592.1291	212.4737
592.2878	221.3162
592.4467	224.6136
592.6053	220.417
592.7641	216.2837
592.9229	224.6037
593.0816	224.6357
593.2403	222.145
593.399	220.863
593.5577	216.2783
593.7164	219.9478
593.8751	218.2078
594.0338	220.1346
594.1924	226.8915
594.3511	212.8822
594.5098	211.9178
594.6684	216.8663
594.8271	219.1001
594.9857	217.1619
595.1443	221.8625
595.303	221.4728
595.4615	217.569
595.6202	213.2607
595.7787	217.2054
595.9374	212.8503
596.0959	224.9505
596.2545	225.5108
596.4131	225.4629
596.5717	222.7727
596.7302	220.6561
596.8887	223.7394
597.0473	222.727
597.2058	222.9718
597.3644	228.5445
597.5229	222.5859
597.6814	212.6481
597.8399	210.2433
597.9984	215.088
598.1569	221.3087
598.3154	219.7099
598.4738	218.8027
598.6323	212.3329
598.7908	214.7041
598.9492	219.6947
599.1076	229.6958
599.2661	222.9852
599.4245	214.9091
599.5829	215.5779
599.7413	223.2068
599.8997	225.4524
600.0581	214.5668
600.2165	217.1207
600.3749	215.9154
600.5333	213.1777
600.6917	216.9023
600.85	212.3656
601.0084	214.0712
601.1667	217.2597
601.325	218.3345
601.4833	220.8354
601.6417	222.5617
601.8	215.0956
601.9583	212.2672
602.1166	205.8641
602.2749	209.5138
602.4332	214.0182
602.5914	216.226
602.7498	213.1851
602.908	217.5733
603.0662	217.5896
603.2245	216.4613
603.3828	217.8117
603.541	227.0661
603.6992	221.6793
603.8574	210.4396
604.0156	219.3769
604.1738	221.2313
604.332	221.3381
604.4902	220.7444
604.6484	218.3473
604.8065	216.5961
604.9647	216.086
605.1229	222.2204
605.281	215.8008
605.4391	214.6079
605.5973	217.3456
605.7554	215.2525
605.9135	214.0447
606.0717	215.157
606.2297	218.7085
606.3878	213.5359
606.5459	213.0481
606.704	214.1755
606.8621	214.5856
607.0201	221.1543
607.1782	221.1734
607.3362	216.6552
607.4943	220.4206
607.6523	224.2468
607.8104	217.3646
607.9684	208.4407
608.1264	214.026
608.2844	210.9745
608.4424	213.9357
608.6003	209.7928
608.7584	212.0266
608.9163	210.3315
609.0743	210.1214
609.2322	205.2278
609.3902	208.1495
609.5482	214.7583
609.7061	209.0637
609.864	207.3287
610.0219	203.6188
610.1798	204.0217
610.3377	205.7585
610.4956	199.1211
610.6535	209.1819
610.8114	206.8894
610.9693	206.7686
611.1271	208.3033
611.285	204.6364
611.4429	201.7318
611.6007	208.0798
611.7585	205.4727
611.9164	204.5581
612.0742	209.9985
612.232	203.5184
612.3898	198.8866
612.5476	195.9263
612.7054	197.7786
612.8632	195.8759
613.0209	194.8562
613.1787	202.5539
613.3365	199.4394
613.4942	200.0983
613.652	197.0941
613.8097	195.9879
613.9674	194.2382
614.1252	201.0458
614.2829	196.2573
614.4406	201.1616
614.5983	206.791
614.756	201.1314
614.9136	205.3059
615.0714	199.1952
615.229	197.1247
615.3867	196.4509
615.5443	194.7201
615.702	191.846
615.8596	194.2491
616.0172	196.7939
616.1748	188.895
616.3325	174.6801
616.4901	180.6177
616.6476	182.9271
616.8052	187.4404
616.9628	186.4105
617.1204	185.9726
617.278	196.4437
617.4355	198.6814
617.5931	196.6548
617.7506	187.5243
617.9081	194.7867
618.0657	197.6091
618.2232	193.3342
618.3807	197.1742
618.5382	190.1355
618.6957	188.4702
618.8532	196.3062
619.0107	194.5138
619.1682	195.469
619.3256	191.7863
619.4831	186.1101
619.6406	189.2091
619.798	191.0478
619.9554	191.7674
620.1129	194.2193
620.2703	189.5559
620.4277	185.973
620.5851	183.9716
620.7425	191.7962
620.8998	195.45
621.0573	192.3073
621.2146	193.9125
621.372	191.1489
621.5294	181.1333
621.6867	179.2563
621.8441	184.3322
622.0013	186.0627
622.1587	185.609
622.316	189.341
622.4733	190.7943
622.6306	184.2935
622.7879	183.5317
622.9452	184.8805
623.1025	181.0222
623.2598	180.8835
623.4171	183.948
623.5743	190.2631
623.7316	178.9438
623.8888	178.3312
624.046	188.0955
624.2032	184.9808
624.3605	180.9064
624.5176	178.5701
624.6749	182.2608
624.8321	185.3946
624.9893	186.5631
625.1464	184.8321
625.3036	185.8091
625.4608	179.7845
625.6179	183.688
625.7751	177.5336
625.9322	179.362
626.0894	182.4211
626.2465	181.1468
626.4036	179.4492
626.5607	182.1011
626.7178	184.222
626.8749	179.111
627.032	183.3156
627.189	182.3638
627.3461	179.1356
627.5032	182.541
627.6602	181.8491
627.8173	172.934
627.9743	173.6893
628.1313	173.4954
628.2884	175.8815
628.4454	180.4223
628.6024	172.4423
628.7594	181.7054
628.9164	174.1668
629.0734	185.1866
629.2303	180.8965
629.3873	173.3375
629.5443	175.8746
629.7012	174.3393
629.8582	181.5672
630.0151	175.5733
630.172	181.1004
630.3289	169.7366
630.4858	170.2371
630.6428	174.8275
630.7996	178.7458
630.9565	177.672
631.1134	173.1352
631.2703	174.3712
631.4272	171.3403
631.584	170.7142
631.7408	167.4146
631.8977	169.1684
632.0546	169.9868
632.2114	170.3255
632.3682	176.2112
632.525	177.5374
632.6818	177.035
632.8386	170.7385
632.9954	179.567
633.1522	178.6546
633.3089	176.8613
633.4657	176.1521
633.6224	168.0002
633.7792	168.285
633.9359	173.4765
634.0927	171.7792
634.2494	176.5292
634.4061	177.131
634.5628	174.9027
634.7195	173.2246
634.8762	172.9574
635.0329	171.4329
635.1895	179.8577
635.3462	174.78
635.5029	172.9373
635.6595	173.2528
635.8162	174.967
635.9728	178.2434
636.1295	176.371
636.2861	166.0871
636.4427	171.4032
636.5992	175.1961
636.7559	176.9237
636.9124	179.812
637.069	178.4701
637.2256	177.0341
637.3821	170.5545
637.5387	169.941
637.6953	172.6323
637.8518	168.6481
638.0084	173.6516
638.1649	173.8751
638.3214	174.6819
638.4779	170.0468
638.6344	167.4839
638.7909	172.9332
638.9474	178.963
639.1038	170.0433
639.2603	171.0197
639.4167	170.7383
639.5732	161.3191
639.7297	167.7215
639.8861	166.9881
640.0425	157.7198
640.199	158.691
640.3553	166.843
640.5118	167.8829
640.6682	163.6598
640.8245	168.0931
640.981	170.3565
641.1373	166.1157
641.2936	169.2148
641.45	162.6459
641.6064	162.0197
641.7627	164.504
641.9191	168.9465
642.0754	168.4735
642.2317	162.7483
642.388	168.5392
642.5443	166.5722
642.7006	170.7152
642.8569	167.2175
643.0131	165.0746
643.1694	161.34
643.3257	157.1443
643.4819	160.852
643.6382	162.5773
643.7944	155.6084
643.9506	157.4969
644.1069	160.2124
644.2631	167.1438
644.4193	162.1499
644.5754	162.6978
644.7316	163.7079
644.8878	156.7459
645.044	153.4258
645.2002	153.625
645.3563	164.4816
645.5125	160.5682
645.6686	151.7649
645.8248	157.2714
645.9809	162.7113
646.137	160.8399
646.2931	155.7996
646.4492	150.6682
646.6053	152.8976
646.7614	155.1025
646.9174	154.0273
647.0735	152.4636
647.2296	153.3121
647.3856	147.808
647.5417	149.5969
647.6977	149.128
647.8537	153.6365
648.0098	145.9533
648.1658	147.9456
648.3218	149.3239
648.4777	150.022
648.6337	150.1354
648.7897	156.8887
648.9457	152.8818
649.1016	152.1825
649.2576	148.402
649.4135	144.8753
649.5695	134.5497
649.7254	137.2409
649.8813	142.9697
650.0372	143.6888
650.1932	154.4594
650.3491	153.739
650.5049	155.1459
650.6608	151.8604
650.8167	151.209
650.9725	156.214
651.1284	153.8892
651.2842	152.7334
651.4401	146.4834
651.5959	149.6155
651.7518	142.6202
651.9076	141.8409
652.0634	139.8318
652.2192	145.4347
652.3749	148.4024
652.5308	150.6816
652.6865	146.7807
652.8423	147.4688
652.998	142.3709
653.1538	150.8072
653.3096	149.3763
653.4653	143.6397
653.621	151.6928
653.7767	155.1828
653.9324	150.5392
654.0881	150.9669
654.2438	148.8481
654.3995	143.7487
654.5552	145.6084
654.7109	137.6063
654.8665	144.3649
655.0222	145.4401
655.1778	147.5486
655.3334	145.5052
655.4891	135.3175
655.6447	133.2312
655.8003	139.7358
655.9559	127.0529
656.1115	118.0601
656.2671	117.0768
656.4227	112.4005
656.5782	121.1904
656.7338	124.9724
656.8893	132.6527
657.0449	139.2927
657.2004	138.3228
657.356	140.2971
657.5115	139.2858
657.667	143.921
657.8225	140.8156
657.978	148.2894
658.1335	143.639
658.289	145.6095
658.4445	153.0134
658.5999	152.2923
658.7554	153.0382
658.9108	148.6882
659.0663	142.9469
659.2217	143.797
659.3771	142.8147
659.5325	140.1611
659.6879	143.3293
659.8433	146.5509
659.9987	144.0443
660.1541	140.6749
660.3095	147.1369
660.4648	144.7635
660.6202	139.9954
660.7756	147.3029
660.9309	145.5091
661.0862	140.9572
661.2416	146.6153
661.3969	148.8702
661.5522	142.313
661.7075	140.9563
661.8628	147.1205
662.0181	146.2981
662.1733	143.4404
662.3286	139.614
662.4839	147.5017
662.6391	149.7401
662.7944	142.7847
662.9496	143.6817
663.1048	148.0557
663.26	150.5945
663.4152	146.6626
663.5704	147.4234
663.7256	140.8347
663.8808	141.4087
664.036	146.3958
664.1912	146.8657
664.3463	144.4959
664.5015	141.1768
664.6566	146.3105
664.8118	145.9537
664.9669	144.5056
665.122	149.0223
665.2771	146.0451
665.4322	145.979
665.5873	143.2308
665.7424	146.5594
665.8975	142.9605
666.0526	144.3424
666.2076	142.9965
666.3627	141.0266
666.5177	139.2986
666.6727	147.2368
666.8278	142.797
666.9828	146.0062
667.1378	143.9291
667.2928	146.6943
667.4478	139.559
667.6028	146.1922
667.7578	140.8455
667.9127	138.4125
668.0677	138.4489
668.2226	137.9957
668.3776	136.994
668.5325	136.7138
668.6874	138.7025
668.8423	135.9743
668.9973	138.7672
669.1522	141.7913
669.3071	142.6257
669.4619	142.4143
669.6168	136.7399
669.7717	141.9666
669.9265	139.2068
670.0814	139.2473
670.2362	135.7733
670.3911	135.3198
670.5459	139.3302
670.7007	135.6036
670.8555	139.7637
671.0103	145.3405
671.1651	135.2634
671.3199	139.3037
671.4747	140.5824
671.6295	134.9188
671.7842	135.5552
671.939	140.785
672.0937	136.7487
672.2484	132.3809
672.4031	135.4749
672.5579	135.2481
672.7126	133.371
672.8673	136.2659
673.022	136.7303
673.1767	136.9377
673.3314	139.2009
673.486	138.5965
673.6407	136.3391
673.7953	138.8321
673.95	141.4542
674.1046	142.2901
674.2592	133.7342
674.4138	135.3795
674.5684	137.2705
674.723	140.1209
674.8776	130.4334
675.0322	126.7285
675.1868	133.9227
675.3414	134.6569
675.4959	131.0038
675.6505	132.3245
675.805	126.2736
675.9595	128.5526
676.1141	127.5947
676.2686	131.1044
676.4231	133.9585
676.5776	133.6203
676.7321	129.2579
676.8866	129.7823
677.041	128.6339
677.1955	128.68
677.35	126.0281
677.5044	124.859
677.6589	124.4501
677.8133	123.4851
677.9677	126.4429
678.1221	126.3074
678.2766	127.2
678.4309	126.721
678.5853	125.5452
678.7397	127.541
678.8941	122.9985
679.0485	126.9646
679.2028	130.5219
679.3571	124.4095
679.5115	124.9821
679.6658	121.7893
679.8201	122.2954
679.9744	122.9256
680.1288	122.7447
680.2831	128.6044
680.4373	122.8706
680.5916	123.4969
680.7459	127.3317
680.9001	122.5002
681.0544	121.2868
681.2087	127.4494
681.3629	117.4921
681.5171	123.0127
681.6713	125.6781
681.8256	118.6873
681.9797	112.2133
682.134	122.0661
682.2881	117.3736
682.4423	116.9162
682.5965	119.538
682.7507	124.6748
682.9048	124.7915
683.059	121.3879
683.2131	124.7577
683.3672	117.4396
683.5213	116.0291
683.6754	112.5249
683.8295	114.9679
683.9836	112.0319
684.1377	109.6222
684.2918	118.7801
684.4459	117.6001
684.5999	113.6427
684.754	116.1169
684.908	116.1832
685.062	112.5875
685.2161	115.666
685.3701	113.9304
685.5241	112.1602
685.6781	114.6158
685.8321	110.3589
685.9861	113.9839
686.14	115.3232
686.294	112.1604
686.4479	116.8037
686.6019	106.5861
686.7559	93.85289
686.9098	86.47461
687.0637	79.23688
687.2176	79.71272
687.3715	83.98155
687.5254	85.86626
687.6793	90.62673
687.8332	99.68357
687.9871	98.08228
688.1409	102.793
688.2947	103.668
688.4486	106.4525
688.6024	103.6512
688.7563	99.3373
688.9101	99.02461
689.0639	96.96201
689.2177	95.57435
689.3715	95.77087
689.5253	98.77298
689.6791	97.43089
689.8328	94.63091
689.9866	93.58684
690.1403	99.26666
690.2941	100.9772
690.4478	96.663
690.6015	97.74738
690.7552	96.86412
690.9089	98.03268
691.0626	106.2731
691.2164	108.522
691.37	111.4338
691.5237	103.3374
691.6774	102.5944
691.831	101.7015
691.9847	102.0492
692.1383	106.8178
692.2919	107.4229
692.4456	108.0222
692.5992	106.2113
692.7527	99.87495
692.9064	100.4393
693.0599	96.51115
693.2136	97.24229
693.3671	100.5211
693.5207	100.1585
693.6742	100.2381
693.8278	95.94833
693.9813	103.8949
694.1348	98.14011
694.2883	95.61115
694.4418	99.68113
694.5953	102.9862
694.7488	99.6829
694.9023	102.256
695.0558	97.02111
695.2093	101.6357
695.3627	99.03791
695.5162	94.81184
695.6696	92.98888
695.8231	93.13293
695.9764	93.90438
696.1299	96.97925
696.2833	98.69248
696.4367	100.1329
696.5901	107.4224
696.7435	100.7741
696.8968	100.2344
697.0502	100.204
697.2036	104.0769
697.3569	101.3396
697.5102	105.2546
697.6635	100.5147
697.8168	101.457
697.9702	94.36949
698.1235	96.46069
698.2768	100.9476
698.4301	103.0751
698.5833	102.5038
698.7366	98.57975
698.8898	95.17413
699.0431	99.29578
699.1964	99.02483
699.3495	93.36317
699.5028	95.64492
699.656	102.2854
699.8092	99.04375
699.9624	96.27434
700.1156	97.22988
700.2688	95.92791
700.4219	90.27309
700.5751	96.75687
700.7283	94.24606
700.8814	97.00477
701.0345	93.75903
701.1877	99.91283
701.3408	100.17
701.4939	100.0761
701.647	98.85348
701.8001	98.87962
701.9532	99.26566
702.1063	100.666
702.2593	97.23075
702.4124	96.52724
702.5654	95.97746
702.7184	93.15728
702.8715	91.8554
703.0245	94.48178
703.1776	95.52669
703.3305	93.57148
703.4835	93.72713
703.6365	95.35757
703.7895	91.21471
703.9424	98.48914
704.0954	102.0644
704.2484	96.36317
704.4013	95.4758
704.5543	100.7524
704.7072	105.8652
704.8601	99.22848
705.013	97.17567
705.1659	89.20409
705.3188	95.91843
705.4717	101.8864
705.6246	97.11652
705.7774	93.34925
705.9303	95.09502
706.0831	100.5457
706.236	99.26324
706.3888	96.62449
706.5416	102.3259
706.6944	97.66706
706.8472	91.19957
707	94.96308
707.1528	94.35045
707.3056	98.76171
707.4583	94.90839
707.6111	95.69032
707.7639	92.60007
707.9166	93.55805
708.0693	96.57861
708.222	103.9659
708.3748	100.1732
708.5275	97.92313
708.6802	96.40988
708.8328	98.71503
708.9855	91.63832
709.1382	97.14537
709.2909	96.82367
709.4435	98.87572
709.5962	98.32019
709.7488	98.51023
709.9014	93.20461
710.054	90.53719
710.2067	97.85348
710.3593	93.66164
710.5118	102.872
710.6644	103.0296
710.817	99.49589
710.9695	96.7359
711.1221	98.2412
711.2747	96.51977
711.4272	94.75585
711.5797	94.83468
711.7322	90.73924
711.8848	100.0238
712.0373	96.18394
712.1898	95.53635
712.3422	92.58023
712.4948	87.16618
712.6472	89.90952
712.7996	88.82787
712.9521	89.41577
713.1046	97.20627
713.257	92.74724
713.4094	93.45094
713.5618	96.21857
713.7142	89.26323
713.8666	85.72398
714.019	85.81808
714.1714	92.61856
714.3237	93.04329
714.4761	88.86193
714.6285	85.40785
714.7808	92.7793
714.9331	88.57407
715.0854	85.50216
715.2378	91.17986
715.3901	90.66183
715.5424	89.05679
715.6947	91.54729
715.8469	94.01845
715.9992	96.27145
716.1515	90.53938
716.3037	87.22556
716.456	82.61446
716.6082	84.50111
716.7604	76.73557
716.9127	74.62482
717.0649	78.43348
717.2171	74.98493
717.3693	77.37329
717.5214	75.46622
717.6736	73.46755
717.8258	72.12453
717.978	75.14355
718.1301	71.83978
718.2822	73.17388
718.4344	70.25711
718.5865	70.06754
718.7386	64.31824
718.8907	68.94078
719.0428	75.00794
719.1949	72.07854
719.3469	72.55722
719.499	72.00355
719.6511	76.17041
719.8031	74.0936
719.9551	67.85612
720.1072	67.94319
720.2592	67.09132
720.4112	73.86709
720.5632	73.82055
720.7152	78.53266
720.8672	80.66152
721.0192	80.15618
721.1711	78.03615
721.3231	79.77466
721.475	79.86691
721.627	82.53951
721.7789	82.36662
721.9308	84.34534
722.0828	85.7432
722.2347	89.40165
722.3866	83.56422
722.5385	85.21465
722.6903	83.25245
722.8422	84.56494
722.9941	81.99345
723.1459	77.37171
723.2977	74.29492
723.4496	73
723.6014	70.51399
723.7532	67.77605
723.905	67.91752
724.0568	69.81126
724.2086	73.03226
724.3604	68.34008
724.5121	72.34118
724.6639	78.8456
724.8157	79.61364
724.9674	79.15053
725.1191	71.61032
725.2709	74.19614
725.4226	69.15532
725.5743	76.20309
725.726	75.50723
725.8777	76.71735
726.0294	74.86324
726.181	69.95758
726.3327	79.5526
726.4844	79.35455
726.636	75.52271
726.7877	72.09712
726.9393	73.87708
727.0909	73.02726
727.2425	76.53867
727.3941	75.42856
727.5457	77.03086
727.6973	71.6095
727.8488	64.82948
728.0004	64.28786
728.1519	75.10207
728.3035	78.54823
728.455	79.20929
728.6066	77.99932
728.7581	77.16484
728.9095	74.29612
729.0611	74.2569
729.2126	68.68525
729.364	69.29507
729.5155	72.89635
729.667	70.82726
729.8184	77.96213
729.9698	83.83125
730.1213	78.80901
730.2727	70.85118
730.4241	71.78003
730.5756	76.14184
730.7269	76.27991
730.8784	78.33655
731.0297	73.50852
731.1811	71.18639
731.3325	69.94473
731.4838	72.79993
731.6351	75.63124
731.7865	72.98019
731.9378	76.88361
732.0891	77.25876
732.2404	79.19624
732.3917	78.1611
732.543	74.98976
732.6943	74.07437
732.8456	69.02603
732.9968	74.5492
733.1481	76.35006
733.2993	78.42731
733.4506	79.22894
733.6018	79.73827
733.753	76.03957
733.9042	77.13158
734.0554	79.38856
734.2066	79.50214
734.3578	80.58361
734.509	80.76691
734.6602	81.45803
734.8113	80.57157
734.9624	81.25153
735.1136	77.45483
735.2647	80.68892
735.4158	76.983
735.5669	79.79311
735.718	79.62788
735.8691	74.07486
736.0201	77.81288
736.1713	77.57228
736.3223	76.47705
736.4733	72.43439
736.6244	74.66806
736.7755	84.03883
736.9265	74.18015
737.0775	79.24926
737.2285	77.31324
737.3795	83.31173
737.5305	85.16316
737.6815	77.52212
737.8324	77.7809
737.9834	80.3364
738.1343	79.90178
738.2853	72.40356
738.4362	72.31097
738.5871	77.21794
738.738	77.23304
738.8889	76.43046
739.0399	75.21478
739.1907	70.29935
739.3416	73.40241
739.4925	75.94347
739.6433	79.53857
739.7942	79.13073
739.945	76.90417
740.0958	80.51441
740.2467	73.10485
740.3975	78.66549
740.5483	74.77252
740.6991	76.46175
740.8499	78.16796
741.0007	73.16438
741.1514	71.97411
741.3022	78.26981
741.4529	74.98055
741.6036	79.43108
741.7544	73.25078
741.9051	70.56733
742.0558	69.3714
742.2065	73.27576
742.3572	73.20168
742.5079	69.97665
742.6586	73.19207
742.8093	74.61909
742.9599	75.56181
743.1105	72.65961
743.2612	79.49862
743.4118	73.97099
743.5624	78.21859
743.7131	80.26989
743.8636	72.96617
744.0142	74.23902
744.1648	71.33904
744.3154	73.51616
744.4659	74.78592
744.6165	69.77359
744.767	71.45148
744.9176	71.75822
745.0681	75.85204
745.2186	72.624
745.3691	71.86478
745.5197	71.82413
745.6702	77.65314
745.8206	72.78118
745.9711	72.60857
746.1215	73.0255
746.272	71.20439
746.4224	69.29105
746.5729	72.4445
746.7233	73.1878
746.8737	71.39735
747.0241	77.66807
747.1745	74.89776
747.3249	73.86333
747.4753	68.09168
747.6257	70.69295
747.776	72.55825
747.9264	77.30794
748.0767	72.6497
748.2271	70.44252
748.3774	68.98682
748.5276	70.4267
748.678	73.47366
748.8282	69.38046
748.9786	69.42007
749.1288	74.21719
749.2791	68.74243
749.4294	66.71004
749.5796	64.10986
749.7299	61.38729
749.8801	67.54281
750.0303	69.71228
750.1805	67.11156
750.3307	68.69608
750.4809	70.88065
750.6311	71.36443
750.7813	68.22329
750.9314	67.33114
751.0816	66.438
751.2318	68.85697
751.3818	71.4456
751.532	64.74882
751.6821	63.22852
751.8322	65.93419
751.9823	69.79291
752.1324	69.24811
752.2825	69.85075
752.4326	68.29648
752.5826	67.6042
752.7327	68.50632
752.8827	69.36589
753.0327	70.63682
753.1827	74.58804
753.3328	69.63434
753.4828	62.97741
753.6328	60.75251
753.7828	69.23669
753.9327	61.79712
754.0827	67.77607
754.2327	65.61773
754.3826	66.96525
754.5325	68.35671
754.6825	63.75351
754.8324	67.07632
754.9823	64.87486
755.1322	61.38788
755.2821	68.6222
755.432	65.11674
755.5818	66.64782
755.7318	68.53068
755.8816	64.81669
756.0314	61.21256
756.1813	65.22675
756.3311	65.70636
756.4809	63.82319
756.6307	66.73992
756.7805	63.21608
756.9303	60.15472
757.0801	68.89891
757.2299	62.26586
757.3796	60.02135
757.5294	62.07324
757.6791	66.33763
757.8289	64.6033
757.9786	64.45387
758.1283	61.15947
758.278	62.91863
758.4277	62.37932
758.5773	61.14882
758.7271	59.87119
758.8767	64.42413
759.0264	63.43648
759.176	54.62903
759.3256	58.04374
759.4753	50.71654
759.6249	41.27631
759.7745	35.92633
759.9241	32.66067
760.0737	30.41582
760.2233	27.02665
760.3729	22.81183
760.5224	25.41642
760.6719	20.33816
760.8215	26.05267
760.971	27.81414
761.1205	22.82873
761.2701	26.91519
761.4196	32.49744
761.5691	29.63982
761.7186	37.85237
761.868	44.00267
762.0175	42.00634
762.167	47.24388
762.3164	38.37628
762.4659	36.96778
762.6153	34.35322
762.7647	34.58507
762.9141	34.6554
763.0635	31.61977
763.2129	31.0708
763.3623	32.60624
763.5117	36.59361
763.661	36.29734
763.8104	33.58444
763.9597	37.08364
764.1091	37.20734
764.2584	36.64395
764.4077	35.10145
764.557	35.22498
764.7063	36.92608
764.8556	38.68052
765.0049	43.52353
765.1541	43.25375
765.3034	45.04178
765.4526	46.7752
765.6019	43.16204
765.7511	45.86409
765.9003	42.80224
766.0496	43.934
766.1987	43.12351
766.348	45.03564
766.4971	48.86362
766.6463	47.93497
766.7955	48.36816
766.9446	51.52744
767.0938	47.76063
767.2429	42.6094
767.392	47.22754
767.5411	52.24852
767.6902	49.66995
767.8394	51.90941
767.9884	54.47013
768.1375	55.23284
768.2866	53.11259
768.4356	51.58485
768.5847	52.61418
768.7337	52.59673
768.8828	50.69659
769.0317	52.74654
769.1808	48.84258
769.3298	54.9941
769.4788	52.82055
769.6277	49.57144
769.7767	56.04128
769.9257	52.44277
770.0746	53.87538
770.2236	54.78495
770.3725	46.76495
770.5214	52.84783
770.6703	55.16159
770.8193	49.33757
770.9681	56.0357
771.1171	54.08929
771.2659	51.66391
771.4148	46.54659
771.5637	53.34167
771.7125	53.59021
771.8613	49.4617
772.0101	52.26294
772.159	49.78433
772.3078	45.07094
772.4566	50.60502
772.6054	48.96264
772.7542	43.175
772.903	47.8169
773.0517	49.36654
773.2004	53.77649
773.3492	49.20954
773.4979	49.69376
773.6467	55.07269
773.7953	50.91532
773.944	48.32464
774.0928	51.03338
774.2415	52.62767
774.3901	55.07104
774.5388	51.51029
774.6874	46.1169
774.8361	46.83371
774.9847	46.85558
775.1334	49.52121
775.282	50.43802
775.4305	47.74116
775.5792	50.8041
775.7277	49.97735
775.8763	49.76944
776.0249	50.72049
776.1735	49.8752
776.322	48.19121
776.4705	42.37216
776.6191	50.26915
776.7676	49.40338
776.9161	48.83226
777.0646	46.96878
777.2131	47.65295
777.3616	49.03508
777.5101	49.82799
777.6585	49.90237
777.8069	44.87798
777.9554	45.68279
778.1038	45.08873
778.2523	51.26709
778.4007	51.24671
778.5491	48.24045
778.6974	43.38919
778.8459	46.49472
778.9942	43.7578
779.1426	44.36324
779.291	47.22803
779.4393	51.77386
779.5876	46.59309
779.736	43.78924
779.8843	45.14735
780.0326	44.2601
780.1809	49.93302
780.3292	49.83889
780.4775	48.72129
780.6257	47.74663
780.774	48.86729
780.9222	49.04465
781.0704	49.09573
781.2187	46.15326
781.3669	47.05074
781.5151	48.12463
781.6633	48.89959
781.8115	46.78721
781.9597	51.74237
782.1078	51.60542
782.256	49.93489
782.4042	45.4609
782.5523	41.16206
782.7004	47.21537
782.8486	49.07964
782.9967	43.88835
783.1448	44.55066
783.2929	44.40998
783.441	44.65566
783.5891	47.33877
783.7371	43.12919
783.8851	41.50715
784.0332	43.49374
784.1812	43.74738
784.3293	39.76726
784.4773	42.089
784.6253	44.29325
784.7733	43.65765
784.9213	42.15349
785.0692	39.87873
785.2172	42.52162
785.3652	47.9306
785.5131	47.58922
785.6611	47.08755
785.809	42.23015
785.9569	44.18088
786.1048	41.90717
786.2527	40.40157
786.4006	43.21075
786.5485	44.74169
786.6964	41.11314
786.8442	44.07692
786.9921	48.359
787.1399	47.04166
787.2877	43.04312
787.4355	35.2027
787.5833	41.75459
787.7311	42.71144
787.8789	41.80592
788.0267	44.82573
788.1745	41.02882
788.3223	45.41238
788.47	46.46162
788.6177	45.60967
788.7654	47.62823
788.9132	43.24837
789.0609	41.10332
789.2086	40.51381
789.3563	41.8348
789.504	44.79202
789.6517	46.04112
789.7993	43.62174
789.947	44.26461
790.0946	38.7758
790.2422	39.65269
790.3898	42.56042
790.5375	40.56829
790.6851	37.79356
790.8326	38.07944
790.9802	44.77051
791.1278	41.75758
791.2754	43.45164
791.423	42.57499
791.5705	42.09217
791.718	40.63067
791.8655	42.21073
792.0131	45.36594
792.1606	40.08902
792.308	42.37206
792.4556	41.52889
792.603	43.30564
792.7505	42.4011
792.8979	40.50993
793.0454	38.87681
793.1928	41.01957
793.3403	36.48592
793.4877	37.47205
793.6351	37.84998
793.7825	37.32331
793.9299	38.12341
794.0772	35.65432
794.2246	41.8858
794.3719	38.75878
794.5193	43.62704
794.6666	41.38538
794.814	39.29911
794.9613	42.29354
795.1086	35.38161
795.2559	42.73826
795.4032	37.22595
795.5505	36.93576
795.6978	35.57792
795.845	39.69547
795.9922	40.92606
796.1395	39.07688
796.2867	39.18469
796.4339	36.46021
796.5811	37.26843
796.7283	40.54617
796.8755	36.81421
797.0227	38.11476
797.1699	37.67588
797.317	34.8686
797.4642	37.82957
797.6113	42.50059
797.7584	40.50953
797.9056	41.46886
798.0527	38.56876
798.1998	38.35631
798.3469	32.06546
798.494	39.31017
798.641	35.24687
798.7881	39.04808
798.9351	40.108
799.0822	37.20014
799.2292	38.6579
799.3762	36.67709
799.5232	36.36291
799.6702	35.85627
799.8172	32.14989
799.9642	34.55882
800.1111	37.47748
800.2581	37.77772
800.4051	33.77464
800.552	31.89361
800.6989	30.15005
800.8458	32.40696
800.9927	34.66143
801.1396	35.99001
801.2866	33.12772
801.4334	32.77
801.5803	37.05882
801.7272	36.92904
801.874	32.78883
802.0209	36.4866
802.1677	33.38906
802.3145	38.61074
802.4613	37.42759
802.6081	32.10091
802.7549	37.90615
802.9017	31.75899
803.0485	28.82743
803.1952	33.66367
803.342	41.49128
803.4887	36.21543
803.6354	32.361
803.7822	33.15537
803.9289	36.07749
804.0756	33.73441
804.2223	32.68226
804.369	33.63312
804.5156	27.70487
804.6623	37.96137
804.8089	39.98418
804.9556	37.32576
805.1022	37.13397
805.2488	33.91266
805.3954	36.16359
805.542	33.81984
805.6886	36.7103
805.8352	34.4702
805.9818	32.28837
806.1283	35.57042
806.2749	36.78136
806.4214	33.71656
806.5679	34.0722
806.7145	30.84895
806.861	35.89714
807.0074	36.41231
807.154	34.4378
807.3004	29.2816
807.4469	31.901
807.5934	31.32119
807.7398	32.24927
807.8862	37.2849
808.0327	35.33329
808.1791	36.91273
808.3255	36.72795
808.4719	30.31919
808.6183	29.80383
808.7647	35.90173
808.9111	31.23575
809.0574	31.65941
809.2037	35.02029
809.3501	34.8409
809.4965	35.50019
809.6428	26.69041
809.7891	30.13923
809.9354	33.11497
810.0817	31.78327
810.2279	30.62394
810.3742	34.88516
810.5204	28.37994
810.6667	30.5718
810.8129	25.96614
810.9592	33.24101
811.1054	32.48732
811.2516	30.63186
811.3978	31.06627
811.5439	28.56359
811.6901	30.84045
811.8363	30.62291
811.9825	28.66448
812.1286	27.50663
812.2748	32.18914
812.4209	30.71476
812.567	31.42418
812.7131	26.65498
812.8592	28.77329
813.0053	26.43128
813.1514	26.15081
813.2974	27.42275
813.4435	27.77157
813.5895	22.18518
813.7356	24.8428
813.8816	27.47638
814.0276	24.54555
814.1736	23.13086
814.3196	27.4637
814.4656	27.82591
814.6116	34.32512
814.7576	31.42768
814.9035	28.16384
815.0494	27.11846
815.1954	24.08039
815.3413	31.21227
815.4872	25.5589
815.6331	27.20575
815.779	26.45188
815.9249	31.70848
816.0707	30.48141
816.2166	26.64472
816.3625	25.3059
816.5083	18.74601
816.6542	26.30275
816.8	23.92221
816.9458	25.52961
817.0916	29.31534
817.2374	27.05013
817.3832	25.2925
817.5289	30.23872
817.6747	27.503
817.8204	21.92852
817.9662	24.05547
818.1119	22.55531
818.2576	23.94967
818.4034	24.76757
818.5491	29.52711
818.6948	22.23409
818.8405	21.15924
818.9861	20.57611
819.1318	23.59668
819.2774	22.63249
819.423	27.65539
819.5687	22.87707
819.7143	19.9771
819.8599	20.45459
820.0055	21.79506
820.1511	21.3479
820.2967	25.87943
820.4422	29.40547
820.5878	32.58106
820.7333	24.3789
820.8788	24.88176
821.0244	25.67198
821.1699	24.8341
821.3154	21.50386
821.4609	29.42002
821.6064	26.34896
821.7519	28.64741
821.8973	23.76777
822.0428	26.50074
822.1882	25.95471
822.3337	19.42352
822.4791	23.07039
822.6245	22.38258
822.7699	21.84649
822.9153	20.15037
823.0607	15.66932
823.2061	18.50603
823.3514	20.10143
823.4968	19.68016
823.6422	20.52415
823.7875	22.67294
823.9328	20.1833
824.0781	22.86991
824.2234	25.03203
824.3687	23.0333
824.514	26.30974
824.6592	28.25314
824.8045	23.04019
824.9498	27.90642
825.095	30.52197
825.2402	26.73137
825.3854	24.71248
825.5306	24.05057
825.6758	25.39161
825.821	24.50118
825.9662	26.41676
826.1114	21.77189
826.2565	24.50826
826.4017	22.25745
826.5468	24.61069
826.692	25.91948
826.837	25.55342
826.9822	25.29763
827.1273	22.71028
827.2723	22.52142
827.4174	25.37262
827.5625	21.83306
827.7075	23.92564
827.8526	23.48276
827.9976	26.11242
828.1426	23.67842
828.2877	25.50719
828.4327	25.2294
828.5776	21.483
828.7227	23.18397
828.8676	21.20408
829.0126	23.82063
829.1575	26.64126
829.3024	28.87407
829.4474	23.64017
829.5923	21.14273
829.7372	26.30468
829.8821	21.98725
830.027	23.17726
830.1719	26.56223
830.3168	21.13182
830.4616	19.21206
830.6064	19.8987
830.7513	24.31988
830.8961	23.97767
831.041	24.78996
831.1857	25.15266
831.3306	23.14056
831.4753	15.87117
831.6201	22.30604
831.7649	21.00059
831.9096	19.10642
832.0544	22.48089
832.1991	22.71167
832.3438	22.59483
832.4885	21.28953
832.6332	18.50483
832.778	18.12862
832.9226	21.83983
833.0673	24.22886
833.2119	24.98922
833.3566	21.70183
833.5012	20.59126
833.6459	25.13289
833.7905	23.10636
833.9351	23.84877
834.0797	22.49711
834.2243	24.95346
834.3688	22.29189
834.5134	23.5226
834.658	24.61897
834.8026	20.73774
834.9471	22.19067
835.0916	22.45343
835.2361	24.6466
835.3806	23.37886
835.5251	23.95882
835.6696	21.44573
835.8141	27.30658
835.9586	22.04968
836.103	22.92996
836.2474	25.2783
836.3918	23.9438
836.5363	26.19427
836.6807	21.8558
836.8251	22.42885
836.9695	22.79749
837.1138	22.10667
837.2582	22.05079
837.4026	20.52768
837.5469	25.22361
837.6913	19.21393
837.8356	20.14762
837.9799	23.73794
838.1242	19.82354
838.2686	21.99237
838.4128	16.23227
838.5571	17.69407
838.7014	18.08975
838.8456	26.00329
838.9899	24.74066
839.1341	24.77667
839.2783	22.53892
839.4225	21.86322
839.5667	21.64975
839.7109	24.62922
839.8551	20.02107
839.9993	19.45972
840.1434	20.04373
840.2876	18.36168
840.4317	20.51222
840.5759	18.33148
840.72	21.5399
840.8641	24.15876
841.0082	23.51042
841.1523	23.6433
841.2963	23.49309
841.4404	21.4315
841.5845	20.45993
841.7285	26.75949
841.8726	21.2169
842.0165	22.78139
842.1606	24.38954
842.3046	21.81609
842.4485	18.72316
842.5925	23.2992
842.7365	22.35653
842.8805	20.41871
843.0244	25.09806
843.1684	24.36346
843.3123	21.13475
843.4562	21.53692
843.6002	18.73931
843.744	23.19289
843.8879	25.95975
844.0318	21.28488
844.1757	19.42981
844.3195	21.30595
844.4634	20.35852
844.6072	24.99979
844.751	21.31144
844.8948	18.04177
845.0386	21.39411
845.1824	20.09548
845.3262	21.39679
845.47	14.55177
845.6138	22.83951
845.7575	22.18831
845.9012	21.29765
846.045	21.49395
846.1887	23.19905
846.3324	23.14878
846.4761	21.80139
846.6198	20.96752
846.7635	14.14842
846.9071	21.38062
847.0508	20.58833
847.1944	16.09003
847.3381	15.13801
847.4817	18.28003
847.6253	19.9521
847.7689	25.51684
847.9125	22.85972
848.0561	19.67937
848.1996	19.28319
848.3432	19.81341
848.4868	19.8954
848.6303	19.66298
848.7738	21.31251
848.9174	18.16529
849.0609	22.27909
849.2043	20.34759
849.3478	17.6584
849.4913	20.80962
849.6348	19.88464
849.7782	14.51198
849.9217	18.16308
850.0651	17.70573
850.2086	14.8533
850.3519	18.3945
850.4954	21.15403
850.6387	19.56738
850.7821	19.31188
850.9255	17.32545
851.0688	19.04741
851.2122	20.38995
851.3555	17.17106
851.4988	23.12918
851.6422	17.48866
851.7855	17.46827
851.9288	17.88222
852.0721	23.80844
852.2153	22.08459
852.3586	21.33751
852.5018	24.58464
852.6451	21.33412
852.7883	18.25273
852.9315	16.19048
853.0748	18.67598
853.218	17.66902
853.3611	21.87902
853.5043	21.00282
853.6475	17.4576
853.7906	19.0195
853.9338	15.7436
854.0769	11.74748
854.22	13.00453
854.3632	16.67101
854.5063	18.02265
854.6494	15.62065
854.7924	19.61122
854.9355	19.28345
855.0786	19.47338
855.2216	17.25967
855.3647	16.45228
855.5077	19.33741
855.6507	21.16699
855.7937	18.45612
855.9367	22.39171
856.0797	22.43071
856.2227	18.67
856.3657	15.51728
856.5086	17.50758
856.6516	19.65059
856.7945	22.32705
856.9374	18.72072
857.0803	17.70034
857.2232	20.99156
857.3661	18.54285
857.509	21.20748
857.6519	16.5809
857.7947	18.14792
857.9376	16.44764
858.0804	16.32405
858.2232	20.11652
858.366	21.61278
858.5089	21.83534
858.6516	20.20377
858.7944	19.67568
858.9372	18.37483
859.08	20.44772
859.2227	17.15135
859.3654	16.83697
859.5082	19.1411
859.6509	18.75982
859.7936	16.50001
859.9363	19.4729
860.079	14.39541
860.2217	21.46099
860.3643	22.68409
860.507	20.10052
860.6496	18.87112
860.7922	14.50039
860.9349	17.20879
861.0775	18.0626
861.2201	13.96585
861.3627	17.94995
861.5052	24.74318
861.6478	18.53559
861.7904	14.55529
861.9329	20.72548
862.0755	17.56177
862.218	16.82267
862.3605	14.7025
862.503	13.85417
862.6455	17.28956
862.788	17.2242
862.9305	17.75113
863.0729	13.9604
863.2154	17.22442
863.3578	21.55294
863.5002	15.34457
863.6426	12.58237
863.7851	16.75313
863.9275	18.66334
864.0698	18.84274
864.2122	21.39878
864.3546	11.90472
864.4969	13.96205
864.6393	13.08031
864.7816	16.74655
864.924	22.73989
865.0662	16.81999
865.2086	17.1347
865.3508	16.06333
865.4931	18.33192
865.6354	16.76588
865.7776	20.14761
865.9199	19.47226
866.0621	12.78867
866.2043	10.82132
866.3466	12.3333
866.4888	12.60102
866.6309	15.08287
866.7731	10.9498
866.9153	10.75933
867.0574	15.257
867.1996	14.13462
867.3417	14.673
867.4839	13.08469
867.626	16.16757
867.7681	15.17136
867.9102	17.12729
868.0522	18.14597
868.1943	21.62099
868.3364	12.89306
868.4785	11.93296
868.6205	13.96422
868.7625	16.72113
868.9045	11.91103
869.0465	17.29484
869.1885	14.67091
869.3305	17.63007
869.4725	14.13781
869.6144	17.85447
869.7564	14.55623
869.8983	15.14379
870.0403	17.10699
870.1822	12.82276
870.3241	15.01648
870.466	17.92257
870.6079	15.76452
870.7498	17.60809
870.8916	16.3434
871.0335	15.34503
871.1754	18.80028
871.3171	19.6813
871.459	17.43797
871.6008	16.31256
871.7426	16.63559
871.8844	16.81499
872.0262	14.87274
872.1679	14.05551
872.3097	14.12878
872.4514	14.15024
872.5931	18.5957
872.7349	16.61635
872.8766	17.76339
873.0183	16.1075
873.16	15.7503
873.3017	13.35202
873.4434	15.77215
873.585	14.38396
873.7266	13.23298
873.8683	19.46542
874.0099	15.83708
874.1516	17.63071
874.2932	15.52274
874.4348	15.09632
874.5763	17.54868
874.7179	15.27449
874.8594	15.88153
875.001	16.23488
875.1425	12.95605
875.2841	19.46284
875.4256	14.96178
875.5671	18.21125
875.7086	12.36429
875.85	11.96404
875.9915	12.3989
876.133	15.58581
876.2744	12.16513
876.4159	15.82478
876.5573	13.00548
876.6987	11.9693
876.8401	17.90549
876.9815	15.93445
877.1229	13.45994
877.2643	14.07941
877.4056	13.53016
877.547	13.25836
877.6884	12.01474
877.8297	16.96182
877.971	18.34644
878.1123	15.61503
878.2536	14.17711
878.3949	10.9627
878.5362	15.31457
878.6774	14.04922
878.8187	14.02416
878.9599	12.92505
879.1011	15.0694
879.2424	16.22497
879.3836	10.90636
879.5248	13.50595
879.666	10.64771
879.8071	13.95145
879.9483	12.27065
880.0895	12.40205
880.2306	8.653463
880.3718	14.29304
880.5129	12.82448
880.654	15.0076
880.7951	15.55424
880.9362	12.68897
881.0773	7.763647
881.2183	11.98511
881.3594	13.23806
881.5004	10.53274
881.6414	12.91925
881.7825	14.94514
881.9235	18.02909
882.0645	13.55065
882.2054	12.12979
882.3464	11.42165
882.4874	13.95023
882.6284	13.2283
882.7693	10.38008
882.9103	8.330143
883.0512	12.96763
883.1921	10.67783
883.333	10.46785
883.4739	15.58929
883.6147	11.42027
883.7556	15.47021
883.8965	12.01595
884.0374	13.76028
884.1782	11.46151
884.319	14.7213
884.4598	17.80135
884.6006	17.72166
884.7414	12.71614
884.8822	13.26554
885.0229	13.94029
885.1637	10.84659
885.3044	10.62032
885.4452	7.424152
885.5859	8.039936
885.7266	9.806582
885.8673	14.07727
886.008	10.03431
886.1487	8.857283
886.2894	13.26791
886.43	13.0634
886.5707	9.706575
886.7113	11.13134
886.8519	10.20996
886.9926	13.49807
887.1331	15.36361
887.2737	11.16192
887.4143	13.7057
887.5549	11.38476
887.6954	6.850465
887.836	9.716916
887.9765	10.42451
888.1171	11.68883
888.2576	11.9641
888.3981	14.36251
888.5386	9.741369
888.679	12.84754
888.8195	14.60219
888.96	14.3024
889.1004	13.3419
889.2408	8.558826
889.3813	11.71247
889.5217	13.58492
889.6621	13.49416
889.8025	12.60635
889.9429	11.47969
890.0833	11.0137
890.2236	12.85329
890.364	14.82393
890.5043	12.79515
890.6446	11.79287
890.7849	14.4649
890.9252	13.65532
891.0655	13.79046
891.2058	14.77376
891.3461	16.2013
891.4863	15.8069
891.6266	18.07242
891.7668	15.45361
891.907	10.12332
892.0472	6.092895
892.1874	9.238456
892.3276	12.10798
892.4678	9.885636
892.608	13.9185
892.7481	13.76642
892.8883	9.573515
893.0284	13.55349
893.1685	16.66786
893.3087	10.58114
893.4487	15.88357
893.5889	15.45972
893.7289	16.84472
893.869	14.41392
894.009	12.09209
894.1491	4.421721
894.2891	13.09438
894.4291	13.52163
894.5692	10.10555
894.7092	3.113953
894.8491	9.101479
894.9891	8.029227
895.1291	11.08911
895.269	10.09326
895.409	13.22194
895.549	12.55064
895.6888	14.22342
895.8288	13.44597
895.9687	9.383525
896.1086	6.797725
896.2484	10.72591
896.3883	10.7834
896.5281	9.535563
896.668	10.30319
896.8079	12.63234
896.9476	7.672642
897.0875	9.254363
897.2272	8.621356
897.3671	11.2524
897.5068	9.577232
897.6466	7.220226
897.7864	6.838434
897.9261	8.941252
898.0658	9.145024
898.2056	12.15958
898.3453	8.419701
898.4849	14.64794
898.6246	8.853652
898.7643	14.24823
898.904	10.94773
899.0436	9.822888
899.1833	6.501426
899.3229	7.1849
899.4625	14.84712
899.6021	14.08424
899.7417	7.992515
899.8813	9.802179
900.0209	12.18559
900.1605	12.17134
900.3	15.66846
900.4395	14.25069
900.579	10.08037
900.7186	8.739717
900.8581	5.513872
900.9976	5.898371
901.1371	5.852072
901.2766	12.51447
901.416	9.937032
901.5555	11.62222
901.6949	8.890622
901.8344	11.52284
901.9738	10.40487
902.1132	9.24566
902.2526	11.95402
902.3919	12.33958
902.5313	5.226903
902.6707	9.062272
