SPECTRUM DATA FILE
SpectrumCount:	1
PixelCount:	3648
UserName:	ToughBook User
SampleName:	
LightSource:	
Comments:	
DeviceName:	Qwave
DeviceManufacturer:	Broadcom
DeviceSerialNo:	11311

Name:	last spectrum
Date:	2024-05-02T15:22:31.2634057+02:00
ExposureTime:	0.02
TemporalAvg:	1
IntensityUnit:	normalizedCounts
CCDLoadLevel:	0.07674116
Temperature:	29.87341
DiagramColor:	200
ProcessingSteps:	335

Wavelength [nm]	Intensity1
334.421	10.96384
334.5891	14.89794
334.7573	16.6022
334.9254	19.15375
335.0935	17.39764
335.2616	10.97356
335.4297	16.65417
335.5978	18.36904
335.7659	15.96612
335.934	14.04313
336.1021	13.08016
336.2701	12.65883
336.4382	12.46448
336.6063	13.25521
336.7744	17.39048
336.9424	18.56826
337.1105	16.74837
337.2785	12.41381
337.4466	17.64203
337.6146	23.65394
337.7827	19.51617
337.9507	16.88631
338.1187	19.57973
338.2867	17.01575
338.4548	13.97329
338.6228	12.83166
338.7908	16.82127
338.9588	17.65662
339.1268	11.52367
339.2948	16.22558
339.4628	19.204
339.6308	19.35014
339.7988	12.67266
339.9667	20.02713
340.1347	21.70763
340.3027	20.60482
340.4707	24.69358
340.6386	20.14166
340.8066	19.25927
340.9745	19.50074
341.1425	19.41645
341.3104	21.02415
341.4784	15.95558
341.6463	18.37757
341.8142	19.69694
341.9821	23.15451
342.1501	12.81117
342.318	21.42799
342.4859	22.29763
342.6538	17.18056
342.8217	23.63983
342.9896	25.44697
343.1575	23.773
343.3254	26.84389
343.4933	24.96603
343.6612	20.41833
343.829	15.67029
343.9969	15.67214
344.1648	19.47071
344.3326	21.80722
344.5005	14.0272
344.6683	12.65946
344.8362	16.80589
345.004	16.46278
345.1719	20.77699
345.3397	21.85958
345.5075	19.11756
345.6754	21.81111
345.8432	19.15926
346.011	18.9111
346.1788	22.15575
346.3466	22.6331
346.5144	20.95675
346.6822	17.93313
346.85	24.66114
347.0178	19.40196
347.1856	18.15103
347.3534	19.52537
347.5211	18.38622
347.6889	17.80672
347.8567	17.58141
348.0244	17.67748
348.1922	18.71099
348.3599	20.44731
348.5277	18.63688
348.6954	17.12658
348.8632	16.23693
349.0309	22.24048
349.1986	17.4513
349.3663	20.29228
349.5341	26.05955
349.7018	20.58778
349.8695	22.87094
350.0372	24.3548
350.2049	23.1275
350.3726	25.53864
350.5403	24.18998
350.7079	24.1775
350.8756	28.404
351.0433	21.27377
351.211	25.05162
351.3786	20.34423
351.5463	22.47382
351.714	26.48488
351.8816	28.48282
352.0493	23.37596
352.2169	23.49364
352.3846	25.25911
352.5522	21.27666
352.7198	23.02873
352.8875	22.98813
353.0551	26.11384
353.2227	23.92635
353.3903	27.46649
353.5579	24.10665
353.7255	26.29952
353.8931	23.17898
354.0607	24.65764
354.2283	29.17852
354.3958	29.81596
354.5634	32.8955
354.731	30.62578
354.8986	27.64021
355.0661	24.13337
355.2337	24.86401
355.4012	26.68672
355.5688	24.61176
355.7363	24.33587
355.9039	25.84398
356.0714	29.1775
356.239	30.32713
356.4065	25.7333
356.574	20.83833
356.7415	19.76273
356.909	17.07742
357.0765	20.8945
357.244	20.8479
357.4115	27.44543
357.579	22.79197
357.7465	21.61052
357.914	19.93126
358.0815	19.95633
358.249	17.44829
358.4164	18.48732
358.5839	20.86195
358.7513	22.1889
358.9188	22.71443
359.0862	26.41563
359.2537	27.04765
359.4211	23.78446
359.5886	24.9996
359.756	30.6089
359.9234	32.33575
360.0909	33.73556
360.2583	26.50646
360.4257	29.43605
360.5931	25.88792
360.7605	26.4942
360.9279	25.06731
361.0953	28.09925
361.2627	26.13827
361.4301	25.5457
361.5974	25.97284
361.7648	26.91687
361.9322	22.56719
362.0995	24.4426
362.2669	27.69448
362.4343	30.77849
362.6016	34.2784
362.769	34.69258
362.9363	33.65055
363.1036	33.28138
363.271	26.23298
363.4383	32.58611
363.6056	31.26843
363.7729	31.13517
363.9402	36.28369
364.1075	35.70169
364.2748	27.17129
364.4421	30.07096
364.6094	32.64538
364.7767	37.10781
364.944	30.42691
365.1113	29.0144
365.2786	39.13787
365.4458	39.07852
365.6131	34.58036
365.7803	38.79227
365.9476	34.55249
366.1148	39.83251
366.2821	36.06214
366.4493	35.41714
366.6166	41.10955
366.7838	39.03927
366.951	35.15339
367.1182	39.49253
367.2855	38.82845
367.4527	36.88926
367.6199	42.01614
367.7871	32.93818
367.9543	35.91201
368.1215	38.68643
368.2886	34.40919
368.4558	33.19036
368.623	36.41576
368.7902	35.15608
368.9573	34.7104
369.1245	40.72846
369.2917	45.20887
369.4588	39.99632
369.6259	42.55109
369.7931	43.40767
369.9602	42.57327
370.1274	41.52799
370.2945	42.14316
370.4616	41.449
370.6287	38.43126
370.7958	33.05939
370.963	32.86531
371.1301	37.83043
371.2971	43.69142
371.4643	52.5207
371.6313	46.80251
371.7984	38.2091
371.9655	31.39187
372.1326	32.75701
372.2997	33.96089
372.4667	37.38626
372.6338	40.02317
372.8008	37.45172
372.9679	35.73228
373.1349	36.14917
373.3019	35.30101
373.469	31.00367
373.636	32.47477
373.803	32.17076
373.9701	38.35248
374.1371	38.55208
374.3041	39.36576
374.4711	38.94402
374.6381	35.87166
374.8051	28.89079
374.9721	31.77244
375.1391	34.77774
375.3061	43.80227
375.473	55.2124
375.64	42.46345
375.8069	39.80128
375.9739	41.28183
376.1409	42.57198
376.3078	44.52485
376.4748	43.01108
376.6417	35.88155
376.8087	38.03656
376.9756	43.2538
377.1425	45.12252
377.3094	52.77878
377.4763	54.7345
377.6432	57.54869
377.8102	54.49254
377.9771	56.33069
378.144	58.05193
378.3109	52.32091
378.4777	52.77624
378.6446	53.94168
378.8115	53.18816
378.9784	46.31256
379.1452	46.43793
379.3121	48.7192
379.4789	41.30736
379.6458	41.41209
379.8127	39.51996
379.9795	45.6045
380.1463	50.90118
380.3131	50.82091
380.48	53.4126
380.6468	54.41123
380.8136	57.12896
380.9804	57.4518
381.1472	58.15368
381.314	52.2734
381.4808	43.97032
381.6476	42.10056
381.8144	46.62114
381.9812	48.95736
382.148	39.73876
382.3147	35.55272
382.4815	37.25232
382.6483	36.13359
382.815	32.44024
382.9818	32.4652
383.1485	36.31431
383.3153	35.3921
383.482	36.68708
383.6487	36.11436
383.8155	36.31591
383.9822	38.91087
384.1489	41.37254
384.3156	47.09832
384.4823	53.54953
384.649	57.6174
384.8157	57.34288
384.9824	54.48291
385.1491	56.47732
385.3158	50.49214
385.4825	51.91157
385.6491	53.1284
385.8158	46.8892
385.9825	47.58842
386.1491	47.42043
386.3157	49.16865
386.4824	54.57722
386.649	54.63694
386.8157	49.89027
386.9823	48.4096
387.1489	50.49382
387.3156	48.16641
387.4821	53.28838
387.6488	53.24385
387.8154	52.18816
387.982	54.14378
388.1486	53.77654
388.3152	53.58222
388.4818	51.49552
388.6483	49.85148
388.8149	48.3482
388.9815	51.30106
389.148	58.97244
389.3146	65.53018
389.4811	65.03591
389.6477	67.82632
389.8142	66.02303
389.9808	66.74618
390.1473	63.44082
390.3138	61.75768
390.4804	58.70817
390.6469	57.27885
390.8134	64.79517
390.9799	66.62534
391.1464	72.35925
391.3129	75.71164
391.4794	73.85639
391.6459	73.22391
391.8124	72.50346
391.9789	66.43586
392.1453	66.55309
392.3118	60.42819
392.4782	56.50147
392.6447	54.61853
392.8112	47.64851
392.9776	40.59005
393.144	33.60072
393.3105	25.36713
393.4769	26.32745
393.6433	33.76723
393.8098	39.17782
393.9762	53.94144
394.1426	59.81656
394.309	58.89831
394.4754	66.89005
394.6418	67.48959
394.8082	74.24407
394.9746	76.29671
395.141	80.51118
395.3073	78.85457
395.4737	78.76397
395.64	80.33968
395.8064	78.53977
395.9728	69.80901
396.1391	65.24914
396.3055	60.12449
396.4718	54.91819
396.6381	44.19541
396.8045	35.62951
396.9708	34.74324
397.1371	40.04153
397.3034	48.99793
397.4697	67.70861
397.636	72.59419
397.8023	82.67259
397.9686	89.74644
398.1349	91.76248
398.3012	84.91236
398.4675	85.31335
398.6337	94.10722
398.8	98.06643
398.9662	97.4011
399.1325	98.02501
399.2988	100.9745
399.465	97.40933
399.6313	94.97113
399.7975	96.1564
399.9637	99.18332
400.1299	100.9035
400.2961	106.2142
400.4624	107.1015
400.6286	94.34589
400.7948	108.1205
400.961	109.5797
401.1272	110.3755
401.2934	109.5881
401.4595	110.8711
401.6257	109.5903
401.7919	113.4244
401.9581	109.4985
402.1242	113.9325
402.2904	114.7322
402.4565	113.104
402.6227	115.1093
402.7888	119.4708
402.955	109.3279
403.1211	102.0447
403.2872	102.2556
403.4533	108.1916
403.6194	109.6587
403.7856	115.1563
403.9517	119.5483
404.1177	123.4713
404.2838	112.5536
404.4499	101.1025
404.616	102.9969
404.7821	103.6091
404.9482	111.8977
405.1142	117.3124
405.2803	122.1304
405.4464	115.7085
405.6124	107.6657
405.7784	109.7785
405.9445	120.0173
406.1105	112.6267
406.2766	110.8102
406.4426	107.7423
406.6086	104.732
406.7746	112.6761
406.9406	119.7963
407.1066	124.4765
407.2726	117.3709
407.4386	117.4611
407.6046	113.8547
407.7706	110.503
407.9366	114.8147
408.1025	124.1871
408.2685	124.9005
408.4344	123.1415
408.6004	127.0235
408.7664	134.8028
408.9323	139.2745
409.0983	137.0575
409.2642	133.4852
409.4301	132.9586
409.596	123.5296
409.762	125.4534
409.9279	115.0544
410.0938	105.6795
410.2597	105.6592
410.4256	113.412
410.5915	123.0661
410.7574	129.2704
410.9232	127.0904
411.0891	138.1315
411.255	138.2766
411.4209	146.0605
411.5867	147.2833
411.7526	148.6229
411.9184	137.8062
412.0843	134.5317
412.2501	137.6783
412.4159	145.693
412.5818	138.0925
412.7476	138.0333
412.9134	130.2071
413.0792	125.7666
413.245	126.5668
413.4108	130.9219
413.5766	133.7754
413.7424	144.032
413.9082	148.1054
414.074	147.3035
414.2397	131.9958
414.4055	129.2286
414.5713	129.094
414.737	136.1918
414.9028	136.2195
415.0685	141.575
415.2343	141.3449
415.4	140.5868
415.5658	137.1806
415.7315	135.2969
415.8972	143.6765
416.0629	141.2652
416.2286	152.7811
416.3943	151.0298
416.56	152.9441
416.7257	148.3716
416.8914	146.9894
417.0571	144.841
417.2228	138.71
417.3884	139.3211
417.5541	145.6658
417.7198	146.1328
417.8854	144.6301
418.0511	148.1981
418.2167	144.2171
418.3824	143.3548
418.548	152.5823
418.7136	145.6743
418.8792	141.613
419.0449	146.6072
419.2105	153.1527
419.3761	156.5457
419.5417	147.2395
419.7073	146.0866
419.8729	138.7553
420.0385	135.8445
420.204	145.2199
420.3696	154.7445
420.5352	159.7173
420.7007	160.8378
420.8663	163.1025
421.0319	168.3994
421.1974	170.297
421.3629	168.8015
421.5285	159.4674
421.694	159.2431
421.8595	160.8556
422.0251	167.7554
422.1906	168.5146
422.3561	156.0238
422.5216	141.4411
422.6871	127.6322
422.8526	145.18
423.0181	158.1889
423.1835	164.1731
423.349	161.7375
423.5145	160.9186
423.68	150.8447
423.8454	150.7054
424.0109	157.796
424.1763	161.927
424.3418	177.8567
424.5072	180.3899
424.6726	167.2345
424.838	160.0942
425.0035	152.4488
425.1689	163.6682
425.3343	159.2802
425.4997	164.2678
425.6651	170.1702
425.8305	164.1181
425.9959	156.5066
426.1613	153.7467
426.3267	160.9485
426.492	172.2034
426.6574	176.6051
426.8228	165.041
426.9881	162.5027
427.1534	146.4389
427.3188	136.0316
427.4841	146.7946
427.6495	162.6238
427.8148	162.3054
427.9801	167.6254
428.1454	162.2806
428.3107	165.4147
428.476	164.3547
428.6414	161.9388
428.8066	156.9362
428.9719	151.7332
429.1372	157.6871
429.3025	154.2142
429.4678	161.8505
429.633	151.1605
429.7983	137.4054
429.9636	127.1151
430.1288	117.3666
430.294	117.683
430.4593	122.4968
430.6245	123.1909
430.7897	118.2386
430.955	113.4212
431.1202	111.8936
431.2854	137.0297
431.4506	159.7655
431.6158	184.0198
431.781	198.5125
431.9462	202.7522
432.1114	192.8718
432.2766	169.8823
432.4417	158.739
432.6069	156.4853
432.772	163.8028
432.9372	178.8233
433.1024	195.0289
433.2675	200.7259
433.4326	198.9048
433.5977	190.4806
433.7629	164.1441
433.928	153.8482
434.0931	149.1056
434.2582	156.4089
434.4233	170.2093
434.5884	186.4595
434.7535	191.8791
434.9186	202.0728
435.0837	189.7683
435.2488	188.4731
435.4138	189.0565
435.5789	190.8756
435.744	205.8858
435.909	203.243
436.0741	206.7845
436.2391	215.2135
436.4042	222.6641
436.5692	216.0029
436.7342	215.1846
436.8992	207.2439
437.0643	205.047
437.2293	204.129
437.3943	193.552
437.5593	191.0872
437.7243	205.5654
437.8893	211.4812
438.0542	205.7739
438.2192	190.2299
438.3842	173.0592
438.5491	168.82
438.7141	179.9704
438.8791	197.0214
439.044	203.2781
439.209	207.2034
439.3739	203.3761
439.5388	202.2608
439.7037	214.8444
439.8687	218.2141
440.0336	215.6042
440.1985	207.1081
440.3634	200.45
440.5283	198.8405
440.6932	197.3866
440.8581	200.8438
441.0229	223.7888
441.1878	228.8954
441.3527	230.015
441.5175	226.7402
441.6824	226.9809
441.8472	231.656
442.0121	232.0421
442.1769	230.577
442.3418	230.8647
442.5066	230.9677
442.6714	238.4952
442.8362	235.418
443.001	233.7614
443.1659	234.0319
443.3307	220.161
443.4955	225.9492
443.6602	228.0177
443.825	234.9194
443.9898	238.9435
444.1546	236.7276
444.3193	232.3504
444.4841	233.3158
444.6488	239.6242
444.8136	248.395
444.9783	241.2153
445.1431	235.1298
445.3078	238.0535
445.4725	231.1334
445.6372	213.5173
445.802	209.8285
445.9667	222.58
446.1314	219.583
446.2961	223.1278
446.4608	234.8142
446.6255	236.5018
446.7901	236.7685
446.9548	233.875
447.1195	241.3185
447.2841	250.6956
447.4488	265.6307
447.6134	261.3868
447.7781	262.1285
447.9427	254.81
448.1074	246.1806
448.272	237.507
448.4366	239.9599
448.6012	257.872
448.7658	261.5999
448.9305	250.659
449.095	249.5659
449.2596	252.5943
449.4242	253.3306
449.5888	252.628
449.7534	262.2231
449.9179	265.6227
450.0825	267.5123
450.2471	272.4024
450.4116	278.0866
450.5762	287.3275
450.7407	283.7954
450.9052	279.3903
451.0698	281.1068
451.2343	284.9476
451.3988	281.5039
451.5633	271.4184
451.7278	268.4095
451.8923	273.0934
452.0568	276.7087
452.2213	270.3615
452.3858	270.735
452.5503	264.3482
452.7148	247.6988
452.8792	244.7362
453.0437	242.7001
453.2081	252.8262
453.3726	251.4747
453.537	251.2014
453.7015	262.4795
453.8659	278.9934
454.0303	281.347
454.1947	277.8954
454.3592	277.9938
454.5236	274.7899
454.688	274.9655
454.8524	263.0502
455.0168	259.8287
455.1811	260.2836
455.3455	264.0874
455.5099	269.8596
455.6743	274.9263
455.8386	279.4813
456.003	281.7891
456.1673	290.8419
456.3317	283.4845
456.496	282.5886
456.6603	270.3839
456.8246	280.4678
456.989	288.0377
457.1533	276.4663
457.3176	282.0781
457.4819	290.6139
457.6462	296.9438
457.8105	283.5107
457.9748	277.13
458.1391	272.0528
458.3033	268.3126
458.4676	269.4198
458.6319	274.8125
458.7961	277.4798
458.9604	285.4107
459.1246	283.5653
459.2888	279.4637
459.4531	280.0273
459.6173	281.4644
459.7815	272.3033
459.9457	266.9082
460.11	270.4562
460.2741	282.4019
460.4384	270.0755
460.6025	283.238
460.7667	289.2658
460.9309	291.9663
461.0951	283.5191
461.2592	277.2379
461.4234	284.5382
461.5876	283.2767
461.7517	282.1235
461.9159	292.31
462.08	291.4318
462.2441	290.4089
462.4082	293.3774
462.5724	286.7095
462.7365	290.4122
462.9006	286.6885
463.0647	299.3623
463.2288	293.7379
463.3929	293.9942
463.557	292.8681
463.721	286.8627
463.8851	283.9735
464.0492	278.1693
464.2132	291.1009
464.3773	294.9942
464.5414	280.3047
464.7054	279.1412
464.8694	269.5475
465.0334	271.8146
465.1975	286.3051
465.3615	287.0096
465.5255	283.7296
465.6895	294.1426
465.8535	300.9944
466.0175	307.57
466.1815	305.1983
466.3455	293.3311
466.5095	283.989
466.6734	273.0965
466.8374	266.0394
467.0014	268.409
467.1653	277.9122
467.3293	294.378
467.4932	303.5054
467.6571	301.9713
467.8211	297.3749
467.985	292.4102
468.1489	291.8489
468.3128	292.7779
468.4767	294.5923
468.6406	300.6223
468.8045	298.9357
468.9684	298.9969
469.1323	309.1123
469.2962	300.9937
469.46	304.0465
469.6239	308.0757
469.7878	301.858
469.9516	299.8607
470.1154	296.5783
470.2793	283.8573
470.4431	290.433
470.607	286.2318
470.7708	287.5947
470.9346	289.991
471.0984	293.9569
471.2622	299.0377
471.426	302.3284
471.5898	304.857
471.7536	316.0757
471.9174	314.5942
472.0811	314.2519
472.2449	310.1508
472.4087	329.0622
472.5724	331.1692
472.7362	315.9438
472.8999	308.2434
473.0637	305.0415
473.2274	303.5723
473.3911	313.5152
473.5548	310.7165
473.7185	310.2772
473.8822	307.8918
474.0459	311.5173
474.2096	318.8285
474.3733	313.9088
474.537	315.7043
474.7007	313.1231
474.8643	314.3626
475.028	309.6138
475.1917	313.7426
475.3553	310.8712
475.519	299.3326
475.6826	305.0822
475.8463	307.6285
476.0099	307.4089
476.1735	302.6976
476.3371	288.7227
476.5007	286.2982
476.6643	295.924
476.8279	294.3887
476.9915	297.6542
477.1551	305.5292
477.3187	307.9463
477.4823	309.4098
477.6458	325.1252
477.8094	321.5195
477.9729	320.3514
478.1365	322.488
478.3	312.614
478.4636	308.1939
478.6271	301.268
478.7906	300.391
478.9541	306.5882
479.1176	307.3795
479.2812	319.453
479.4447	318.6883
479.6082	321.42
479.7716	318.7092
479.9351	310.9724
480.0986	314.0891
480.2621	312.0105
480.4255	312.0092
480.589	315.2827
480.7524	306.2359
480.9159	307.417
481.0793	316.3242
481.2428	309.0179
481.4062	314.0901
481.5696	324.8016
481.733	321.0032
481.8964	325.952
482.0598	325.9198
482.2232	324.5842
482.3866	314.0406
482.55	311.4481
482.7134	313.4583
482.8768	315.2608
483.0401	313.8494
483.2035	314.2883
483.3668	310.3433
483.5302	315.7011
483.6935	314.1608
483.8568	315.8687
484.0202	311.9773
484.1835	305.025
484.3468	304.2769
484.5101	310.5067
484.6734	307.6042
484.8367	313.1753
485	314.7207
485.1633	313.9355
485.3266	322.0466
485.4899	310.5468
485.6531	293.0586
485.8164	281.6161
485.9796	257.6421
486.1429	234.5285
486.3061	234.3427
486.4694	250.9934
486.6326	283.9892
486.7958	301.5033
486.959	293.8303
487.1223	290.1271
487.2855	294.2239
487.4486	296.9515
487.6118	304.6082
487.775	313.0877
487.9382	312.5258
488.1014	318.3923
488.2646	311.1266
488.4277	304.0229
488.5909	297.2397
488.754	300.6867
488.9171	289.3549
489.0803	290.7575
489.2434	299.05
489.4066	313.7997
489.5697	332.1051
489.7328	332.4134
489.8959	333.8184
490.059	328.1762
490.2221	325.5283
490.3852	326.2975
490.5482	327.7859
490.7113	326.1653
490.8744	324.1051
491.0374	311.4028
491.2005	304.0666
491.3636	316.8082
491.5266	326.3549
491.6896	316.5856
491.8527	299.2433
492.0157	284.935
492.1787	280.1251
492.3417	290.0034
492.5047	308.2872
492.6677	314.7199
492.8307	319.0353
492.9937	330.7909
493.1567	331.5125
493.3196	310.4318
493.4826	315.7907
493.6456	306.2881
493.8085	301.5948
493.9715	304.56
494.1344	311.7852
494.2974	318.5858
494.4603	328.8329
494.6232	325.1103
494.7861	331.074
494.949	332.2233
495.1119	333.8682
495.2748	329.3368
495.4377	321.9627
495.6006	307.6433
495.7635	296.7737
495.9264	300.4745
496.0892	319.9254
496.2521	332.592
496.4149	327.5763
496.5778	322.062
496.7407	318.61
496.9035	314.887
497.0663	317.4615
497.2291	329.2024
497.3919	329.9129
497.5547	332.4252
497.7176	323.568
497.8804	319.0515
498.0432	314.1771
498.2059	313.6625
498.3687	293.5782
498.5315	294.9002
498.6942	310.3632
498.857	318.7352
499.0198	332.2095
499.1825	329.6753
499.3452	325.9631
499.508	326.7319
499.6707	329.3114
499.8334	328.1841
499.9962	321.5928
500.1589	319.4357
500.3216	314.9301
500.4843	305.9391
500.6469	310.604
500.8096	311.223
500.9723	317.878
501.135	319.1964
501.2976	308.5475
501.4603	308.3328
501.623	307.4168
501.7856	315.3399
501.9482	308.4977
502.1109	314.1072
502.2735	310.1583
502.4361	320.2944
502.5987	317.8792
502.7614	318.6054
502.924	322.6137
503.0865	322.231
503.2491	335.4297
503.4117	338.7328
503.5743	333.98
503.7368	324.0769
503.8994	312.7646
504.062	300.0721
504.2245	302.0015
504.3871	308.7178
504.5496	332.4061
504.7121	333.7964
504.8746	332.1931
505.0372	323.5441
505.1997	328.4755
505.3622	330.1831
505.5247	338.4749
505.6872	341.9363
505.8497	342.0125
506.0121	349.6549
506.1746	354.7054
506.3371	342.6629
506.4995	339.3712
506.662	341.7628
506.8244	332.2944
506.9869	329.9932
507.1493	336.7936
507.3117	330.3955
507.4742	333.6234
507.6366	329.9077
507.799	318.617
507.9614	317.4253
508.1238	319.7955
508.2862	316.0229
508.4485	326.4217
508.6109	340.0879
508.7733	348.0627
508.9357	341.9177
509.098	342.0171
509.2604	340.3902
509.4227	344.3035
509.5851	337.3882
509.7474	327.4126
509.9097	318.242
510.072	318.0096
510.2343	329.8103
510.3966	338.1613
510.5589	329.9564
510.7212	325.3923
510.8835	326.1204
511.0458	325.367
511.2081	329.3872
511.3703	337.1839
511.5326	334.1774
511.6949	336.1509
511.8571	344.3293
512.0193	343.7601
512.1816	329.7775
512.3438	325.3062
512.506	320.1705
512.6682	312.9709
512.8304	318.3393
512.9926	313.6862
513.1548	323.2611
513.317	323.4068
513.4792	328.1048
513.6414	316.0551
513.8035	313.8756
513.9657	304.9459
514.1279	301.9123
514.29	306.7031
514.4521	316.8001
514.6143	321.5571
514.7764	311.8035
514.9385	316.2864
515.1006	315.5028
515.2628	311.5814
515.4249	315.0908
515.587	311.501
515.7491	320.3584
515.9111	322.8283
516.0732	319.2825
516.2353	316.1358
516.3973	306.2485
516.5594	291.0276
516.7214	268.9116
516.8835	259.2756
517.0455	261.4709
517.2076	256.5935
517.3696	263.8063
517.5316	279.3117
517.6937	311.3876
517.8557	321.3782
518.0176	308.9507
518.1796	292.6048
518.3416	263.7181
518.5036	260.8737
518.6656	277.2161
518.8275	304.6157
518.9895	312.3967
519.1514	300.3576
519.3134	290.0809
519.4753	298.6213
519.6373	305.0911
519.7992	314.6989
519.9611	326.4754
520.123	325.9706
520.2849	320.5177
520.4468	313.9298
520.6087	305.4689
520.7706	299.0014
520.9325	298.8101
521.0944	307.2468
521.2562	318.9165
521.4181	330.7496
521.58	315.6643
521.7418	314.9824
521.9036	324.3688
522.0655	326.9568
522.2273	327.9381
522.3891	325.1586
522.551	310.9546
522.7128	293.3972
522.8746	300.7236
523.0363	321.6825
523.1981	327.7054
523.3599	322.5993
523.5217	313.7047
523.6835	326.2473
523.8452	335.1532
524.007	336.0558
524.1687	337.8672
524.3304	344.2228
524.4922	333.1552
524.6539	338.5132
524.8157	335.9909
524.9774	331.6516
525.1391	335.4432
525.3008	333.1327
525.4625	329.7614
525.6241	332.6966
525.7858	335.9326
525.9475	337.4247
526.1092	322.0541
526.2709	317.8043
526.4325	300.6905
526.5942	289.2388
526.7558	290.3592
526.9174	284.9401
527.079	285.9975
527.2407	301.375
527.4023	310.2199
527.5639	316.5418
527.7255	331.6429
527.8871	332.0669
528.0487	333.7189
528.2103	331.2006
528.3718	316.4976
528.5334	318.134
528.695	332.9927
528.8565	346.1636
529.0181	351.5046
529.1796	350.1341
529.3412	351.3378
529.5027	342.1586
529.6642	328.7288
529.8257	325.2384
529.9872	323.8545
530.1487	326.9915
530.3102	337.8802
530.4717	337.1871
530.6332	331.659
530.7947	333.1578
530.9562	340.3896
531.1176	346.0618
531.2791	350.5018
531.4405	346.2415
531.6019	332.0187
531.7634	338.17
531.9248	333.1225
532.0862	339.2523
532.2477	331.42
532.4091	314.8109
532.5704	316.8784
532.7319	304.2717
532.8932	301.7585
533.0546	314.6635
533.216	321.065
533.3774	324.4093
533.5388	335.2302
533.7001	325.6073
533.8615	319.7842
534.0228	325.6365
534.1841	316.7346
534.3455	317.3649
534.5068	323.7569
534.6681	323.1104
534.8293	322.4372
534.9907	320.7361
535.152	326.5822
535.3132	332.8808
535.4745	328.8757
535.6358	329.6208
535.7971	336.8145
535.9583	340.1504
536.1196	334.8445
536.2808	329.9016
536.4421	319.7366
536.6033	314.343
536.7645	313.9055
536.9258	306.9061
537.087	298.5976
537.2482	305.3775
537.4094	315.4272
537.5706	316.1091
537.7318	325.5177
537.8929	331.2209
538.0541	321.3659
538.2153	313.0753
538.3764	314.8301
538.5376	323.6816
538.6987	321.6275
538.8599	319.0186
539.021	321.3926
539.1821	316.5602
539.3432	307.2504
539.5043	308.9192
539.6655	308.9304
539.8265	310.2401
539.9876	309.7668
540.1487	311.193
540.3098	309.5216
540.4708	295.6176
540.6319	292.2185
540.793	292.1886
540.954	297.7469
541.1151	305.6634
541.2761	299.5561
541.4371	308.5615
541.5981	305.6868
541.7592	305.3443
541.9202	313.9407
542.0812	317.5822
542.2422	311.2874
542.4031	306.7343
542.5641	309.4016
542.7251	314.6241
542.886	304.9014
543.0471	297.9265
543.208	293.8736
543.369	295.1054
543.5298	305.5918
543.6908	314.3093
543.8517	308.2483
544.0126	318.1253
544.1736	319.5826
544.3345	317.469
544.4954	309.7235
544.6563	298.2681
544.8171	293.4196
544.978	296.7445
545.1389	318.1222
545.2997	321.0011
545.4606	309.9715
545.6215	305.3682
545.7823	313.4756
545.9432	328.8399
546.104	325.6362
546.2648	311.9713
546.4256	297.6227
546.5864	294.9417
546.7473	309.4246
546.908	317.8094
547.0688	315.8487
547.2296	308.3923
547.3904	310.2608
547.5511	303.7685
547.7119	300.5251
547.8727	295.8119
548.0334	301.3748
548.1942	295.726
548.3549	311.3625
548.5156	318.4175
548.6763	312.6322
548.837	318.4221
548.9977	314.7292
549.1584	308.3066
549.3192	306.4669
549.4798	314.6493
549.6405	309.0288
549.8011	310.5665
549.9619	309.1082
550.1225	307.6269
550.2831	312.2963
550.4438	302.95
550.6044	300.9275
550.765	302.9
550.9257	315.4238
551.0863	311.1494
551.2469	303.0416
551.4075	303.9492
551.5681	307.072
551.7287	300.8654
551.8893	315.2618
552.0498	316.149
552.2104	311.792
552.371	316.5157
552.5315	315.4648
552.6921	309.4869
552.8526	301.5972
553.0131	296.5828
553.1736	301.7762
553.3342	309.7216
553.4947	303.0624
553.6552	299.4993
553.8157	308.7514
553.9762	306.7108
554.1367	300.5447
554.2971	299.8204
554.4576	297.8628
554.618	305.2992
554.7785	311.3203
554.939	318.3944
555.0994	313.002
555.2598	306.8786
555.4203	304.7688
555.5807	306.4812
555.7411	309.2287
555.9015	305.4367
556.0619	304.959
556.2223	298.7765
556.3827	295.309
556.5431	292.2401
556.7034	293.8786
556.8638	288.253
557.0242	286.0373
557.1845	282.6553
557.3448	297.2295
557.5052	292.2867
557.6655	288.4723
557.8259	293.3758
557.9861	297.1588
558.1465	297.5819
558.3068	300.5298
558.467	288.7262
558.6274	281.9165
558.7877	268.9081
558.9479	270.9726
559.1082	284.081
559.2684	289.5588
559.4287	289.0877
559.5889	288.5926
559.7491	285.1962
559.9094	282.4693
560.0696	278.0749
560.2299	268.7627
560.3901	282.8769
560.5502	284.2517
560.7104	284.4059
560.8707	291.7201
561.0308	289.0651
561.191	295.8531
561.3511	289.8404
561.5114	278.2787
561.6714	265.2021
561.8316	272.9505
561.9918	278.7917
562.1519	283.2695
562.312	282.8574
562.4722	278.6964
562.6323	273.0172
562.7924	285.1269
562.9525	291.5932
563.1125	284.6993
563.2726	286.6317
563.4327	281.9154
563.5928	287.7923
563.7528	275.5668
563.9129	282.7021
564.0729	280.3238
564.233	277.6743
564.393	281.6807
564.553	283.4063
564.7131	283.7487
564.873	286.919
565.0331	286.5135
565.1931	281.1666
565.353	282.3313
565.5131	284.1437
565.673	271.7343
565.833	270.7424
565.9929	272.7705
566.1529	274.2155
566.3129	273.1371
566.4728	275.5045
566.6328	274.8675
566.7927	273.927
566.9526	277.2279
567.1125	273.2545
567.2724	285.6568
567.4323	284.4815
567.5922	288.0085
567.7521	281.5049
567.9119	281.8708
568.0718	279.7181
568.2317	270.8325
568.3915	268.4619
568.5514	272.2575
568.7112	269.968
568.871	272.3814
569.0309	265.2345
569.1907	265.8228
569.3505	275.1697
569.5103	267.7032
569.6701	276.7679
569.8299	276.8003
569.9897	270.4991
570.1495	257.2198
570.3092	254.871
570.469	254.6494
570.6287	264.315
570.7885	265.5965
570.9482	260.518
571.108	256.1924
571.2677	259.3457
571.4274	264.8802
571.5871	261.5085
571.7468	270.8129
571.9066	265.7422
572.0662	265.9138
572.2259	274.9958
572.3856	272.8724
572.5452	272.1289
572.7049	281.8319
572.8646	271.2963
573.0242	271.1155
573.1838	269.213
573.3435	274.2487
573.5031	269.341
573.6627	279.3681
573.8223	269.0107
573.9819	272.5656
574.1415	269.5882
574.3011	271.8558
574.4607	276.6647
574.6203	275.9651
574.7798	266.1631
574.9394	272.8477
575.099	268.8512
575.2585	256.4338
575.418	253.8642
575.5776	261.2199
575.7371	264.8343
575.8966	263.1711
576.0562	263.4322
576.2156	266.8161
576.3751	267.6458
576.5346	265.1307
576.6941	265.2322
576.8536	263.3295
577.0131	263.9743
577.1725	267.0523
577.332	263.695
577.4914	263.2977
577.6508	264.8834
577.8103	261.7008
577.9697	269.9426
578.1291	265.1259
578.2885	254.8419
578.4479	253.6951
578.6073	257.3769
578.7667	266.4279
578.9261	257.9742
579.0854	260.4688
579.2448	263.856
579.4042	252.0182
579.5635	250.538
579.7229	257.3742
579.8822	254.419
580.0416	262.5774
580.2009	258.5447
580.3602	261.0442
580.5195	257.9931
580.6788	257.3781
580.8381	254.1321
580.9974	254.8445
581.1566	260.6298
581.3159	259.6441
581.4752	254.0041
581.6345	251.646
581.7937	257.9682
581.9529	250.7707
582.1122	258.6809
582.2714	254.2448
582.4306	244.2306
582.5898	248.5609
582.749	252.8091
582.9082	259.7323
583.0674	258.0486
583.2266	253.7927
583.3857	254.4785
583.5449	253.4986
583.7041	249.1263
583.8633	246.5905
584.0224	253.4548
584.1815	250.4694
584.3407	251.7133
584.4998	251.0309
584.6589	252.0524
584.818	246.4581
584.9771	243.6698
585.1362	237.9256
585.2953	234.4642
585.4544	236.1079
585.6135	241.5133
585.7725	245.0718
585.9316	243.1579
586.0906	238.5078
586.2497	244.6439
586.4087	249.6156
586.5677	247.2726
586.7267	239.1825
586.8858	241.7434
587.0448	239.7285
587.2038	237.7683
587.3628	234.8174
587.5218	235.8022
587.6807	232.4192
587.8397	237.7418
587.9987	246.5175
588.1577	243.4121
588.3166	234.2939
588.4755	232.5668
588.6345	220.7927
588.7934	222.4996
588.9523	207.0232
589.1112	201.6418
589.2701	213.1332
589.429	210.0778
589.5879	205.9126
589.7468	202.358
589.9056	213.4745
590.0645	220.5901
590.2234	213.7526
590.3822	220.9261
590.5411	228.9098
590.6999	233.5829
590.8588	229.1532
591.0176	231.041
591.1764	222.9346
591.3352	222.582
591.494	223.4096
591.6528	220.2617
591.8116	220.9495
591.9703	222.9265
592.1291	224.6132
592.2878	229.44
592.4467	229.3011
592.6053	221.2406
592.7641	216.0763
592.9229	216.0441
593.0816	224.4281
593.2403	220.5218
593.399	218.6637
593.5577	225.2201
593.7164	226.5299
593.8751	226.839
594.0338	227.1638
594.1924	225.4352
594.3511	229.8949
594.5098	222.2761
594.6684	209.2665
594.8271	218.2948
594.9857	217.4894
595.1443	224.7011
595.303	220.8486
595.4615	220.0525
595.6202	223.3675
595.7787	223.1828
595.9374	226.9648
596.0959	218.4401
596.2545	227.6171
596.4131	224.2269
596.5717	220.9835
596.7302	221.2764
596.8887	221.689
597.0473	222.249
597.2058	225.9441
597.3644	222.2472
597.5229	222.5303
597.6814	217.4299
597.8399	212.2853
597.9984	217.6983
598.1569	223.2077
598.3154	225.3828
598.4738	224.6756
598.6323	223.2716
598.7908	216.5378
598.9492	221.4063
599.1076	223.2142
599.2661	218.4413
599.4245	227.8193
599.5829	226.7957
599.7413	224.2542
599.8997	228.4424
600.0581	226.8012
600.2165	221.7944
600.3749	216.7383
600.5333	229.849
600.6917	226.1431
600.85	221.6943
601.0084	218.869
601.1667	221.3227
601.325	219.449
601.4833	220.8657
601.6417	212.8483
601.8	214.8537
601.9583	221.0293
602.1166	215.9634
602.2749	217.733
602.4332	221.3308
602.5914	216.5851
602.7498	227.5725
602.908	221.1768
603.0662	215.1323
603.2245	217.8318
603.3828	220.4196
603.541	222.3632
603.6992	222.552
603.8574	217.1794
604.0156	218.3965
604.1738	219.415
604.332	218.1631
604.4902	220.9164
604.6484	216.9337
604.8065	218.367
604.9647	225.7166
605.1229	222.3571
605.281	221.3944
605.4391	217.6382
605.5973	219.9635
605.7554	213.6511
605.9135	213.3582
606.0717	218.1874
606.2297	221.3092
606.3878	222.0822
606.5459	212.8141
606.704	214.1664
606.8621	214.7628
607.0201	227.5151
607.1782	220.2851
607.3362	221.5974
607.4943	224.0857
607.6523	226.6739
607.8104	221.6061
607.9684	211.6345
608.1264	220.8553
608.2844	218.3071
608.4424	219.9555
608.6003	209.0437
608.7584	207.6938
608.9163	214.2109
609.0743	209.2507
609.2322	212.999
609.3902	216.8195
609.5482	206.2534
609.7061	205.6503
609.864	208.1067
610.0219	202.7705
610.1798	200.3507
610.3377	201.6899
610.4956	201.5115
610.6535	204.8753
610.8114	209.2558
610.9693	214.3426
611.1271	213.9674
611.285	210.5756
611.4429	211.0882
611.6007	215.6702
611.7585	211.7136
611.9164	209.4001
612.0742	204.2904
612.232	197.9882
612.3898	206.7767
612.5476	202.2113
612.7054	199.1234
612.8632	200.652
613.0209	207.075
613.1787	210.1977
613.3365	204.5842
613.4942	211.5904
613.652	203.7786
613.8097	199.3594
613.9674	197.7388
614.1252	200.3059
614.2829	199.5684
614.4406	200.1356
614.5983	203.3041
614.756	196.8246
614.9136	196.1092
615.0714	202.1792
615.229	200.9022
615.3867	199.019
615.5443	198.7432
615.702	199.723
615.8596	197.287
616.0172	195.0116
616.1748	185.9483
616.3325	188.3063
616.4901	182.4151
616.6476	188.0241
616.8052	196.4468
616.9628	189.3922
617.1204	193.3336
617.278	189.1624
617.4355	195.0232
617.5931	196.2665
617.7506	185.0147
617.9081	190.2971
618.0657	195.7662
618.2232	192.4175
618.3807	192.885
618.5382	204.2654
618.6957	199.8512
618.8532	198.5063
619.0107	188.3741
619.1682	184.3156
619.3256	189.9862
619.4831	186.1248
619.6406	190.2247
619.798	197.0237
619.9554	197.1298
620.1129	195.7912
620.2703	192.5902
620.4277	197.5527
620.5851	192.1097
620.7425	195.3679
620.8998	198.7922
621.0573	194.2699
621.2146	187.2988
621.372	191.83
621.5294	192.8957
621.6867	189.5339
621.8441	194.3285
622.0013	189.573
622.1587	190.7651
622.316	187.6357
622.4733	191.0683
622.6306	184.9333
622.7879	184.7174
622.9452	187.0921
623.1025	182.1159
623.2598	183.0772
623.4171	189.9626
623.5743	191.5084
623.7316	191.0258
623.8888	193.9406
624.046	195.4681
624.2032	198.4232
624.3605	180.9096
624.5176	180.6303
624.6749	183.6823
624.8321	179.1705
624.9893	189.1719
625.1464	186.3408
625.3036	181.8621
625.4608	187.2317
625.6179	183.2619
625.7751	178.6248
625.9322	180.9288
626.0894	182.5215
626.2465	182.379
626.4036	185.998
626.5607	188.0844
626.7178	194.5531
626.8749	191.2713
627.032	176.1854
627.189	178.581
627.3461	184.3899
627.5032	183.3068
627.6602	173.7933
627.8173	176.9619
627.9743	172.7148
628.1313	170.7609
628.2884	178.9929
628.4454	177.1116
628.6024	182.5457
628.7594	182.7722
628.9164	182.2145
629.0734	184.7814
629.2303	174.2293
629.3873	178.8569
629.5443	179.0722
629.7012	176.5023
629.8582	171.8199
630.0151	170.6308
630.172	171.5874
630.3289	171.1364
630.4858	174.6822
630.6428	175.9496
630.7996	183.4587
630.9565	179.5396
631.1134	180.2646
631.2703	180.7428
631.4272	176.5934
631.584	170.5335
631.7408	172.3547
631.8977	180.1687
632.0546	172.5623
632.2114	175.2159
632.3682	173.5609
632.525	178.433
632.6818	177.9864
632.8386	178.1355
632.9954	171.4602
633.1522	175.7062
633.3089	173.4764
633.4657	175.475
633.6224	179.308
633.7792	170.9789
633.9359	172.4336
634.0927	168.9518
634.2494	175.0351
634.4061	175.7011
634.5628	171.9379
634.7195	176.5754
634.8762	176.3442
635.0329	173.8762
635.1895	176.8132
635.3462	176.1897
635.5029	171.836
635.6595	170.9351
635.8162	168.7121
635.9728	173.4677
636.1295	168.3276
636.2861	173.0722
636.4427	169.7504
636.5992	173.6734
636.7559	172.0834
636.9124	169.7561
637.069	175.1013
637.2256	178.4057
637.3821	179.6322
637.5387	180.5022
637.6953	178.9127
637.8518	172.9857
638.0084	174.4483
638.1649	176.5444
638.3214	175.2439
638.4779	168.7571
638.6344	176.7003
638.7909	179.2032
638.9474	177.1806
639.1038	174.5553
639.2603	171.4272
639.4167	177.1971
639.5732	172.1548
639.7297	176.1778
639.8861	171.6379
640.0425	167.3399
640.199	171.6058
640.3553	169.2414
640.5118	166.1591
640.6682	168.9661
640.8245	167.1512
640.981	163.4984
641.1373	162.3556
641.2936	169.0787
641.45	170.963
641.6064	170.6463
641.7627	167.5935
641.9191	174.3797
642.0754	160.6092
642.2317	164.0251
642.388	170.7348
642.5443	166.7967
642.7006	169.1337
642.8569	170.6784
643.0131	167.2356
643.1694	166.5502
643.3257	164.7216
643.4819	163.298
643.6382	159.9657
643.7944	163.2551
643.9506	164.9818
644.1069	159.4337
644.2631	165.2548
644.4193	164.8465
644.5754	167.3587
644.7316	167.1553
644.8878	164.8417
645.044	156.9614
645.2002	160.549
645.3563	158.9915
645.5125	168.4675
645.6686	162.8624
645.8248	154.5276
645.9809	155.5165
646.137	157.394
646.2931	159.8037
646.4492	160.6404
646.6053	163.6523
646.7614	158.3458
646.9174	157.5218
647.0735	157.1175
647.2296	155.3488
647.3856	152.5319
647.5417	151.2854
647.6977	151.535
647.8537	157.6284
648.0098	165.0973
648.1658	153.3414
648.3218	144.0447
648.4777	146.7773
648.6337	152.6179
648.7897	157.6508
648.9457	152.0455
649.1016	151.0374
649.2576	145.8961
649.4135	146.7745
649.5695	149.6558
649.7254	145.9265
649.8813	145.7575
650.0372	151.1604
650.1932	157.6909
650.3491	153.5444
650.5049	151.2212
650.6608	148.5439
650.8167	150.788
650.9725	152.3764
651.1284	153.0991
651.2842	150.6183
651.4401	146.3589
651.5959	141.0006
651.7518	143.7147
651.9076	145.051
652.0634	151.0847
652.2192	152.5904
652.3749	151.3174
652.5308	147.2393
652.6865	148.6209
652.8423	155.5603
652.998	150.984
653.1538	149.0318
653.3096	154.5549
653.4653	152.2226
653.621	156.8138
653.7767	147.7187
653.9324	151.1039
654.0881	148.3162
654.2438	149.0033
654.3995	149.4447
654.5552	138.2802
654.7109	144.7112
654.8665	146.7574
655.0222	146.3813
655.1778	145.5235
655.3334	140.3761
655.4891	143.6801
655.6447	140.37
655.8003	140.9194
655.9559	134.3436
656.1115	128.4045
656.2671	113.2484
656.4227	116.5914
656.5782	120.4643
656.7338	123.8814
656.8893	135.0866
657.0449	137.4257
657.2004	144.1183
657.356	138.1977
657.5115	146.1806
657.667	145.1176
657.8225	143.8274
657.978	148.2421
658.1335	147.0333
658.289	148.5065
658.4445	146.189
658.5999	147.95
658.7554	145.9748
658.9108	148.8255
659.0663	146.8322
659.2217	146.4296
659.3771	142.7372
659.5325	143.9828
659.6879	147.4951
659.8433	145.1615
659.9987	153.6177
660.1541	149.0115
660.3095	144.1032
660.4648	142.6756
660.6202	142.3823
660.7756	145.5873
660.9309	149.9399
661.0862	151.6766
661.2416	156.6169
661.3969	146.8986
661.5522	143.4894
661.7075	143.7598
661.8628	142.1371
662.0181	148.0693
662.1733	144.888
662.3286	143.1062
662.4839	142.1356
662.6391	142.1385
662.7944	139.8859
662.9496	140.1748
663.1048	143.2092
663.26	143.1219
663.4152	145.255
663.5704	140.6252
663.7256	139.9829
663.8808	143.4027
664.036	144.2082
664.1912	148.2266
664.3463	147.5794
664.5015	147.1593
664.6566	141.9881
664.8118	143.8325
664.9669	145.2712
665.122	143.4313
665.2771	151.3466
665.4322	145.9478
665.5873	145.7093
665.7424	141.6666
665.8975	138.7113
666.0526	147.6462
666.2076	145.6214
666.3627	144.1998
666.5177	139.6509
666.6727	142.1507
666.8278	147.2751
666.9828	146.7656
667.1378	144.6776
667.2928	140.5864
667.4478	140.2605
667.6028	143.943
667.7578	146.8462
667.9127	143.1725
668.0677	142.3895
668.2226	139.968
668.3776	140.4737
668.5325	149.4774
668.6874	151.6137
668.8423	141.2654
668.9973	140.634
669.1522	138.9426
669.3071	138.2817
669.4619	137.7257
669.6168	138.6366
669.7717	139.9921
669.9265	139.7794
670.0814	140.9049
670.2362	138.4688
670.3911	141.6283
670.5459	133.1444
670.7007	133.1697
670.8555	135.8014
671.0103	139.0921
671.1651	135.8359
671.3199	137.3405
671.4747	139.527
671.6295	139.4879
671.7842	126.5294
671.939	136.0472
672.0937	133.8296
672.2484	134.7123
672.4031	134.825
672.5579	139.6482
672.7126	137.5124
672.8673	138.3729
673.022	134.7703
673.1767	137.0504
673.3314	137.5777
673.486	136.0052
673.6407	136.9775
673.7953	136.5323
673.95	133.7788
674.1046	134.6751
674.2592	134.7312
674.4138	138.3897
674.5684	142.4787
674.723	135.0177
674.8776	138.4277
675.0322	130.9422
675.1868	133.8021
675.3414	129.6906
675.4959	130.1086
675.6505	139.3717
675.805	135.5612
675.9595	139.0497
676.1141	132.9946
676.2686	132.31
676.4231	132.136
676.5776	132.9548
676.7321	132.6438
676.8866	132.3828
677.041	127.7994
677.1955	131.6809
677.35	127.0367
677.5044	130.7617
677.6589	133.0249
677.8133	131.7592
677.9677	131.3106
678.1221	131.1675
678.2766	125.7207
678.4309	127.5986
678.5853	126.4348
678.7397	129.5483
678.8941	128.8089
679.0485	130.5495
679.2028	125.2343
679.3571	126.022
679.5115	123.1309
679.6658	122.7659
679.8201	128.522
679.9744	128.1826
680.1288	129.7258
680.2831	124.885
680.4373	125.0584
680.5916	131.9891
680.7459	129.5191
680.9001	127.2681
681.0544	119.1712
681.2087	121.3837
681.3629	125.5931
681.5171	127.8602
681.6713	127.4119
681.8256	127.7325
681.9797	117.0921
682.134	121.4109
682.2881	119.5354
682.4423	118.2404
682.5965	122.9091
682.7507	119.7806
682.9048	116.9132
683.059	120.8197
683.2131	117.7941
683.3672	117.5208
683.5213	120.7776
683.6754	115.8119
683.8295	120.6459
683.9836	125.1673
684.1377	116.9178
684.2918	115.3485
684.4459	115.091
684.5999	111.7895
684.754	110.7999
684.908	118.5389
685.062	118.9575
685.2161	117.6964
685.3701	119.4229
685.5241	113.7841
685.6781	116.2656
685.8321	115.3816
685.9861	109.7072
686.14	116.9383
686.294	116.1224
686.4479	113.8066
686.6019	107.9524
686.7559	101.5706
686.9098	90.70351
687.0637	84.41026
687.2176	85.32465
687.3715	85.0135
687.5254	88.50127
687.6793	94.47623
687.8332	91.02405
687.9871	96.42477
688.1409	105.9283
688.2947	106.6811
688.4486	100.2579
688.6024	95.30045
688.7563	100.9479
688.9101	106.0961
689.0639	99.16276
689.2177	99.27258
689.3715	96.72553
689.5253	97.48143
689.6791	98.73831
689.8328	99.6188
689.9866	96.85043
690.1403	93.82485
690.2941	97.9781
690.4478	99.77055
690.6015	100.7719
690.7552	98.53221
690.9089	101.2192
691.0626	98.64787
691.2164	100.0884
691.37	99.07399
691.5237	95.93383
691.6774	96.30279
691.831	108.4313
691.9847	109.4942
692.1383	104.3656
692.2919	102.2758
692.4456	102.4425
692.5992	99.62077
692.7527	97.26694
692.9064	97.51432
693.0599	103.3798
693.2136	96.825
693.3671	92.45786
693.5207	91.74504
693.6742	102.2777
693.8278	98.02433
693.9813	95.4653
694.1348	94.55123
694.2883	95.42502
694.4418	97.2865
694.5953	101.5308
694.7488	103.5588
694.9023	102.2088
695.0558	97.5104
695.2093	102.9608
695.3627	99.73396
695.5162	99.09081
695.6696	93.51198
695.8231	94.04614
695.9764	96.65104
696.1299	103.6031
696.2833	99.30706
696.4367	112.5132
696.5901	106.8937
696.7435	105.6252
696.8968	105.0304
697.0502	108.5591
697.2036	102.7014
697.3569	96.37414
697.5102	103.3848
697.6635	105.747
697.8168	104.5265
697.9702	103.6063
698.1235	103.4077
698.2768	105.307
698.4301	102.1463
698.5833	104.5862
698.7366	101.9437
698.8898	98.73809
699.0431	101.2428
699.1964	105.4079
699.3495	98.72342
699.5028	100.6854
699.656	103.4234
699.8092	97.26172
699.9624	98.12366
700.1156	101.2496
700.2688	92.59629
700.4219	92.7679
700.5751	91.80037
700.7283	97.61282
700.8814	97.57893
701.0345	99.15625
701.1877	96.43084
701.3408	94.80411
701.4939	92.9887
701.647	94.44183
701.8001	94.92894
701.9532	93.67035
702.1063	94.97346
702.2593	99.53243
702.4124	94.16428
702.5654	94.63995
702.7184	97.46425
702.8715	93.74547
703.0245	93.70824
703.1776	95.69815
703.3305	98.89146
703.4835	99.29483
703.6365	96.54526
703.7895	97.25957
703.9424	96.6101
704.0954	94.59367
704.2484	99.50925
704.4013	100.3692
704.5543	99.54594
704.7072	103.7813
704.8601	101.9018
705.013	100.8082
705.1659	101.2702
705.3188	100.7143
705.4717	102.3334
705.6246	96.5709
705.7774	91.61143
705.9303	94.63577
706.0831	99.75335
706.236	99.52706
706.3888	98.32578
706.5416	98.47221
706.6944	99.17776
706.8472	100.3634
707	103.9607
707.1528	94.57217
707.3056	96.44675
707.4583	97.72356
707.6111	95.47849
707.7639	100.4272
707.9166	100.3383
708.0693	105.7036
708.222	100.9955
708.3748	98.83588
708.5275	95.64748
708.6802	97.12959
708.8328	92.10297
708.9855	93.39894
709.1382	92.30135
709.2909	97.16786
709.4435	92.01428
709.5962	91.66719
709.7488	93.61341
709.9014	94.8371
710.054	93.95106
710.2067	94.4763
710.3593	96.89671
710.5118	95.66232
710.6644	93.40103
710.817	96.17968
710.9695	95.70231
711.1221	96.58675
711.2747	97.56475
711.4272	95.5024
711.5797	98.61273
711.7322	96.90561
711.8848	96.32706
712.0373	95.09992
712.1898	99.2514
712.3422	91.97469
712.4948	90.40379
712.6472	94.34613
712.7996	94.01009
712.9521	92.52129
713.1046	93.33173
713.257	88.63559
713.4094	91.56661
713.5618	87.67921
713.7142	86.83572
713.8666	89.88246
714.019	91.61781
714.1714	91.74046
714.3237	98.63058
714.4761	90.22208
714.6285	90.42355
714.7808	86.24487
714.9331	82.60845
715.0854	90.43976
715.2378	90.55138
715.3901	87.8906
715.5424	90.24606
715.6947	87.61425
715.8469	95.4477
715.9992	94.25067
716.1515	81.38672
716.3037	84.99101
716.456	86.23125
716.6082	81.70243
716.7604	78.53425
716.9127	82.47143
717.0649	81.82367
717.2171	75.2075
717.3693	70.47736
717.5214	72.72411
717.6736	75.84618
717.8258	74.50096
717.978	83.84592
718.1301	84.49126
718.2822	76.36164
718.4344	69.314
718.5865	63.15823
718.7386	72.40269
718.8907	76.91631
719.0428	79.56628
719.1949	72.95416
719.3469	72.31915
719.499	69.9595
719.6511	75.02083
719.8031	72.93237
719.9551	71.73962
720.1072	70.7823
720.2592	76.13425
720.4112	76.15337
720.5632	75.48869
720.7152	74.67992
720.8672	77.53362
721.0192	80.52626
721.1711	81.10582
721.3231	80.52688
721.475	86.06198
721.627	87.09095
721.7789	86.96603
721.9308	78.7467
722.0828	78.72274
722.2347	79.32662
722.3866	79.83156
722.5385	78.02942
722.6903	78.96677
722.8422	78.20491
722.9941	80.39249
723.1459	79.66676
723.2977	75.21494
723.4496	68.5006
723.6014	71.35025
723.7532	77.00805
723.905	71.83894
724.0568	73.06166
724.2086	73.13085
724.3604	74.88103
724.5121	74.42053
724.6639	78.42773
724.8157	78.04739
724.9674	73.93947
725.1191	72.10207
725.2709	71.03722
725.4226	74.82009
725.5743	75.29801
725.726	79.18919
725.8777	75.26434
726.0294	74.62132
726.181	67.76083
726.3327	71.11308
726.4844	74.15592
726.636	71.89079
726.7877	74.87762
726.9393	76.91065
727.0909	74.11631
727.2425	79.13653
727.3941	79.30708
727.5457	69.17589
727.6973	72.55804
727.8488	68.38371
728.0004	69.48864
728.1519	72.62011
728.3035	81.07079
728.455	77.58987
728.6066	78.522
728.7581	73.52778
728.9095	73.70349
729.0611	72.69215
729.2126	68.83538
729.364	66.81427
729.5155	69.38908
729.667	73.32664
729.8184	78.23979
729.9698	79.14998
730.1213	73.7603
730.2727	73.51581
730.4241	79.97101
730.5756	75.03809
730.7269	69.05911
730.8784	80.64564
731.0297	75.93117
731.1811	73.16537
731.3325	77.21276
731.4838	73.67348
731.6351	77.57238
731.7865	77.19978
731.9378	73.20221
732.0891	75.78122
732.2404	78.04969
732.3917	80.30486
732.543	79.08693
732.6943	77.73404
732.8456	80.05788
732.9968	77.5845
733.1481	70.5555
733.2993	72.40688
733.4506	77.47886
733.6018	76.42625
733.753	81.71405
733.9042	81.92599
734.0554	82.15893
734.2066	79.57179
734.3578	80.34843
734.509	79.03703
734.6602	73.00117
734.8113	81.62872
734.9624	80.00166
735.1136	77.08897
735.2647	80.17268
735.4158	79.06541
735.5669	75.32872
735.718	80.85114
735.8691	74.98832
736.0201	80.2056
736.1713	78.95228
736.3223	80.76375
736.4733	77.16538
736.6244	76.35289
736.7755	79.07951
736.9265	76.6599
737.0775	79.1805
737.2285	76.12252
737.3795	78.27584
737.5305	79.10781
737.6815	78.16167
737.8324	78.91096
737.9834	83.79495
738.1343	79.5507
738.2853	70.01179
738.4362	75.57066
738.5871	71.06091
738.738	69.7719
738.8889	75.74194
739.0399	77.25911
739.1907	75.44018
739.3416	76.3996
739.4925	75.36412
739.6433	77.71741
739.7942	76.93867
739.945	79.42091
740.0958	73.74021
740.2467	74.09795
740.3975	75.68498
740.5483	75.83363
740.6991	79.32687
740.8499	78.44295
741.0007	78.56767
741.1514	75.21753
741.3022	80.48539
741.4529	80.0445
741.6036	76.26665
741.7544	75.99886
741.9051	75.71367
742.0558	80.65988
742.2065	77.18975
742.3572	78.95805
742.5079	77.04425
742.6586	75.19937
742.8093	74.05035
742.9599	76.95786
743.1105	72.11442
743.2612	73.10207
743.4118	74.56271
743.5624	82.08114
743.7131	74.87265
743.8636	79.69419
744.0142	74.3766
744.1648	76.09859
744.3154	77.96233
744.4659	71.31744
744.6165	70.66971
744.767	73.22996
744.9176	75.39587
745.0681	73.93335
745.2186	75.16824
745.3691	73.28201
745.5197	74.56638
745.6702	74.42313
745.8206	73.07597
745.9711	72.03816
746.1215	69.92843
746.272	75.54395
746.4224	74.00142
746.5729	71.3093
746.7233	74.66164
746.8737	70.90366
747.0241	72.09412
747.1745	77.51985
747.3249	72.41454
747.4753	74.45831
747.6257	69.86105
747.776	68.12356
747.9264	68.1403
748.0767	67.23107
748.2271	69.84
748.3774	73.5601
748.5276	70.58178
748.678	72.36182
748.8282	69.93414
748.9786	64.09615
749.1288	71.18179
749.2791	70.84148
749.4294	68.16673
749.5796	73.82944
749.7299	73.34242
749.8801	65.96769
750.0303	70.66764
750.1805	65.8843
750.3307	70.67358
750.4809	70.68991
750.6311	71.96788
750.7813	68.72267
750.9314	70.86222
751.0816	69.80766
751.2318	69.97797
751.3818	69.38277
751.532	65.41919
751.6821	70.53642
751.8322	68.48193
751.9823	69.22079
752.1324	65.38847
752.2825	69.74087
752.4326	71.82648
752.5826	68.39903
752.7327	66.03933
752.8827	70.13725
753.0327	68.51124
753.1827	69.21165
753.3328	68.44501
753.4828	59.72041
753.6328	68.44473
753.7828	70.46886
753.9327	64.82539
754.0827	65.74033
754.2327	64.71185
754.3826	65.29326
754.5325	70.96898
754.6825	70.84769
754.8324	61.91009
754.9823	60.14283
755.1322	66.87137
755.2821	66.37402
755.432	62.94665
755.5818	65.07935
755.7318	59.92612
755.8816	65.65278
756.0314	63.17708
756.1813	62.57324
756.3311	60.80229
756.4809	61.93611
756.6307	67.48736
756.7805	68.88296
756.9303	62.64808
757.0801	65.24718
757.2299	62.41018
757.3796	65.54441
757.5294	61.77889
757.6791	60.14397
757.8289	64.91571
757.9786	63.14055
758.1283	62.73547
758.278	60.19603
758.4277	65.19288
758.5773	57.92006
758.7271	61.97631
758.8767	57.69503
759.0264	64.58851
759.176	64.71905
759.3256	52.86805
759.4753	45.11376
759.6249	40.67903
759.7745	34.41259
759.9241	30.4208
760.0737	25.40959
760.2233	27.76142
760.3729	24.32502
760.5224	21.17061
760.6719	27.48042
760.8215	23.51625
760.971	26.47725
761.1205	27.80941
761.2701	25.87944
761.4196	34.44508
761.5691	40.10944
761.7186	41.23645
761.868	41.02945
762.0175	49.52008
762.167	48.98882
762.3164	42.98378
762.4659	32.65114
762.6153	35.68485
762.7647	31.24869
762.9141	29.7033
763.0635	27.91511
763.2129	29.97108
763.3623	33.92197
763.5117	30.9086
763.661	34.3614
763.8104	36.36552
763.9597	36.05486
764.1091	37.52203
764.2584	36.80196
764.4077	36.93676
764.557	36.45366
764.7063	37.39842
764.8556	39.53705
765.0049	38.23503
765.1541	44.32159
765.3034	47.70642
765.4526	44.07417
765.6019	41.91646
765.7511	52.07618
765.9003	50.04816
766.0496	47.14634
766.1987	44.85748
766.348	49.68976
766.4971	49.60559
766.6463	49.71451
766.7955	43.40389
766.9446	47.9621
767.0938	51.92026
767.2429	52.04308
767.392	53.34698
767.5411	50.76421
767.6902	48.89333
767.8394	50.44105
767.9884	49.50282
768.1375	51.50725
768.2866	48.75768
768.4356	52.41194
768.5847	52.27769
768.7337	52.56275
768.8828	48.50311
769.0317	54.34274
769.1808	54.9304
769.3298	56.03893
769.4788	50.12468
769.6277	50.06199
769.7767	52.9874
769.9257	49.55295
770.0746	53.09442
770.2236	55.55125
770.3725	50.60471
770.5214	51.22329
770.6703	55.51091
770.8193	50.86164
770.9681	47.23209
771.1171	46.31789
771.2659	52.08694
771.4148	49.1958
771.5637	46.12229
771.7125	50.02878
771.8613	47.41998
772.0101	49.12303
772.159	45.98887
772.3078	54.46024
772.4566	54.70471
772.6054	47.99505
772.7542	49.96679
772.903	49.77669
773.0517	54.09939
773.2004	55.26335
773.3492	48.94427
773.4979	53.77588
773.6467	49.38549
773.7953	49.91296
773.944	48.12318
774.0928	52.63709
774.2415	49.88896
774.3901	49.06748
774.5388	46.71297
774.6874	50.20452
774.8361	48.99094
774.9847	49.18726
775.1334	49.20385
775.282	46.31596
775.4305	44.07334
775.5792	44.52024
775.7277	48.21367
775.8763	52.17034
776.0249	48.02452
776.1735	47.8034
776.322	54.00545
776.4705	56.41801
776.6191	48.42811
776.7676	51.28757
776.9161	49.22186
777.0646	50.0218
777.2131	49.53051
777.3616	46.49077
777.5101	38.54845
777.6585	46.87328
777.8069	50.00653
777.9554	42.13584
778.1038	47.98385
778.2523	45.34781
778.4007	45.32978
778.5491	43.77209
778.6974	46.95619
778.8459	48.28855
778.9942	48.03493
779.1426	46.44049
779.291	43.7445
779.4393	46.63285
779.5876	47.45205
779.736	47.96313
779.8843	46.9187
780.0326	48.13642
780.1809	46.25558
780.3292	48.79343
780.4775	53.57037
780.6257	47.75374
780.774	43.51205
780.9222	48.17241
781.0704	46.07209
781.2187	48.70162
781.3669	47.7263
781.5151	46.59485
781.6633	46.76975
781.8115	47.58391
781.9597	44.82465
782.1078	41.84647
782.256	45.9428
782.4042	46.94007
782.5523	48.1722
782.7004	44.4431
782.8486	42.01136
782.9967	43.51068
783.1448	43.89999
783.2929	42.97878
783.441	43.07329
783.5891	46.87474
783.7371	44.55898
783.8851	46.49131
784.0332	48.59205
784.1812	44.67974
784.3293	43.31776
784.4773	41.47142
784.6253	45.46576
784.7733	46.64173
784.9213	44.3744
785.0692	44.4939
785.2172	44.86626
785.3652	45.96572
785.5131	41.54631
785.6611	45.04324
785.809	42.67884
785.9569	41.37512
786.1048	46.93649
786.2527	45.91183
786.4006	46.18387
786.5485	41.30857
786.6964	39.15815
786.8442	41.75742
786.9921	45.88046
787.1399	42.14398
787.2877	43.47665
787.4355	39.75853
787.5833	39.42239
787.7311	44.10011
787.8789	46.01514
788.0267	40.54272
788.1745	44.36488
788.3223	46.34883
788.47	43.62639
788.6177	41.90459
788.7654	42.40508
788.9132	41.67368
789.0609	36.70044
789.2086	38.53952
789.3563	43.3794
789.504	38.21187
789.6517	42.33518
789.7993	43.05754
789.947	36.84787
790.0946	38.42112
790.2422	38.1002
790.3898	40.8392
790.5375	41.63605
790.6851	39.91946
790.8326	38.31741
790.9802	32.58413
791.1278	38.53845
791.2754	41.73787
791.423	35.95219
791.5705	41.52142
791.718	38.96568
791.8655	43.04355
792.0131	43.31118
792.1606	40.91633
792.308	35.55397
792.4556	39.77957
792.603	41.38879
792.7505	39.4925
792.8979	38.26967
793.0454	37.54164
793.1928	37.55202
793.3403	39.15689
793.4877	40.12762
793.6351	43.39888
793.7825	36.86954
793.9299	37.68731
794.0772	41.64564
794.2246	42.37126
794.3719	40.08229
794.5193	41.52681
794.6666	40.89594
794.814	42.14814
794.9613	42.81799
795.1086	42.3142
795.2559	40.85219
795.4032	41.11743
795.5505	41.43968
795.6978	37.9945
795.845	37.35067
795.9922	35.21793
796.1395	37.86848
796.2867	40.86689
796.4339	41.40525
796.5811	32.50375
796.7283	35.30241
796.8755	33.24147
797.0227	34.47605
797.1699	34.96499
797.317	35.94632
797.4642	36.13043
797.6113	33.24462
797.7584	35.8639
797.9056	39.86709
798.0527	34.38811
798.1998	33.45129
798.3469	32.32559
798.494	39.20835
798.641	37.58962
798.7881	37.64445
798.9351	37.28552
799.0822	37.66619
799.2292	35.89634
799.3762	34.07018
799.5232	36.22491
799.6702	39.51671
799.8172	39.57375
799.9642	32.76879
800.1111	36.79811
800.2581	37.34111
800.4051	32.81861
800.552	37.5877
800.6989	36.79373
800.8458	35.59655
800.9927	34.49503
801.1396	38.93917
801.2866	35.81591
801.4334	35.54055
801.5803	31.14198
801.7272	38.16268
801.874	34.47442
802.0209	34.51918
802.1677	34.68907
802.3145	34.45566
802.4613	34.07833
802.6081	42.63286
802.7549	37.54902
802.9017	31.94493
803.0485	33.63398
803.1952	28.78474
803.342	35.83389
803.4887	34.91581
803.6354	32.97121
803.7822	34.3332
803.9289	38.62392
804.0756	38.95917
804.2223	35.35557
804.369	33.36782
804.5156	32.36027
804.6623	33.78648
804.8089	32.26994
804.9556	33.18346
805.1022	35.54642
805.2488	37.19416
805.3954	34.79653
805.542	29.70843
805.6886	32.86789
805.8352	34.26951
805.9818	33.78927
806.1283	30.472
806.2749	34.14367
806.4214	32.90709
806.5679	31.2391
806.7145	32.87732
806.861	36.65923
807.0074	32.12375
807.154	37.30031
807.3004	32.46158
807.4469	31.75117
807.5934	32.9935
807.7398	34.7627
807.8862	35.42184
808.0327	36.8651
808.1791	37.07611
808.3255	33.19032
808.4719	29.5142
808.6183	30.94785
808.7647	32.78977
808.9111	29.59247
809.0574	32.83394
809.2037	32.98334
809.3501	32.1365
809.4965	32.57116
809.6428	29.7951
809.7891	32.06519
809.9354	30.31638
810.0817	31.86635
810.2279	31.61605
810.3742	35.43147
810.5204	31.52834
810.6667	29.616
810.8129	29.29198
810.9592	33.06226
811.1054	30.10428
811.2516	31.56274
811.3978	36.25404
811.5439	32.70737
811.6901	31.09067
811.8363	36.47367
811.9825	28.8222
812.1286	32.19738
812.2748	32.5004
812.4209	30.0253
812.567	30.65429
812.7131	32.95866
812.8592	27.15553
813.0053	27.10566
813.1514	30.86797
813.2974	24.11422
813.4435	28.60786
813.5895	28.665
813.7356	28.63718
813.8816	29.62761
814.0276	28.84265
814.1736	24.45698
814.3196	23.47967
814.4656	21.50002
814.6116	30.50605
814.7576	24.90734
814.9035	23.20245
815.0494	25.25556
815.1954	28.65381
815.3413	30.36356
815.4872	31.96332
815.6331	29.92668
815.779	26.67467
815.9249	28.6406
816.0707	26.23095
816.2166	26.07068
816.3625	28.43804
816.5083	25.56311
816.6542	25.87402
816.8	26.90526
816.9458	24.44
817.0916	22.05666
817.2374	25.51933
817.3832	27.39937
817.5289	26.5267
817.6747	23.71773
817.8204	24.17054
817.9662	26.71247
818.1119	27.13995
818.2576	26.35106
818.4034	23.87083
818.5491	26.11404
818.6948	33.4171
818.8405	21.96889
818.9861	23.50298
819.1318	24.65657
819.2774	24.90409
819.423	19.32681
819.5687	22.81429
819.7143	22.01269
819.8599	20.36367
820.0055	23.37184
820.1511	22.54151
820.2967	25.95667
820.4422	27.6387
820.5878	27.45575
820.7333	25.40047
820.8788	25.09815
821.0244	22.85752
821.1699	22.4505
821.3154	29.0775
821.4609	25.64069
821.6064	30.06845
821.7519	26.26972
821.8973	17.93296
822.0428	22.93228
822.1882	23.97442
822.3337	24.12172
822.4791	22.9796
822.6245	23.12156
822.7699	23.46883
822.9153	20.55327
823.0607	15.52604
823.2061	17.56037
823.3514	21.47971
823.4968	16.88942
823.6422	20.85592
823.7875	23.6114
823.9328	18.95479
824.0781	26.23439
824.2234	20.03576
824.3687	23.40714
824.514	22.75372
824.6592	21.44553
824.8045	26.67464
824.9498	29.63572
825.095	20.81339
825.2402	21.55094
825.3854	27.66325
825.5306	29.26453
825.6758	21.83652
825.821	25.6081
825.9662	25.05827
826.1114	27.3527
826.2565	24.6784
826.4017	16.43386
826.5468	21.30307
826.692	23.69721
826.837	26.62592
826.9822	25.03292
827.1273	26.21997
827.2723	22.15059
827.4174	20.22783
827.5625	24.37674
827.7075	20.42338
827.8526	23.68136
827.9976	21.96218
828.1426	25.11854
828.2877	25.67805
828.4327	25.42373
828.5776	22.24542
828.7227	26.54984
828.8676	20.66549
829.0126	22.04959
829.1575	22.00441
829.3024	23.48253
829.4474	21.84962
829.5923	17.61279
829.7372	20.34116
829.8821	20.73553
830.027	24.28673
830.1719	22.85896
830.3168	20.48388
830.4616	19.33528
830.6064	24.69119
830.7513	24.05512
830.8961	18.57987
831.041	25.56099
831.1857	22.01681
831.3306	24.87327
831.4753	27.48387
831.6201	22.71036
831.7649	20.92739
831.9096	26.23727
832.0544	20.57489
832.1991	22.31226
832.3438	21.60439
832.4885	21.92259
832.6332	20.45584
832.778	25.02813
832.9226	26.86393
833.0673	22.14722
833.2119	19.54638
833.3566	22.54248
833.5012	18.08494
833.6459	19.68143
833.7905	20.41926
833.9351	19.3241
834.0797	19.45698
834.2243	26.77174
834.3688	18.92383
834.5134	20.23587
834.658	26.25953
834.8026	23.48444
834.9471	22.3661
835.0916	22.72045
835.2361	27.69119
835.3806	25.16993
835.5251	22.45985
835.6696	22.4657
835.8141	20.98747
835.9586	25.23262
836.103	27.27314
836.2474	22.00404
836.3918	26.93905
836.5363	27.53078
836.6807	22.68857
836.8251	19.49369
836.9695	22.33464
837.1138	23.54725
837.2582	25.27499
837.4026	21.74673
837.5469	24.34471
837.6913	21.60494
837.8356	22.24799
837.9799	20.84064
838.1242	18.56221
838.2686	22.83373
838.4128	21.00292
838.5571	21.77308
838.7014	19.01871
838.8456	20.59244
838.9899	20.35639
839.1341	22.93809
839.2783	22.06496
839.4225	23.35728
839.5667	25.87699
839.7109	21.02156
839.8551	21.68878
839.9993	25.9106
840.1434	21.95369
840.2876	22.41891
840.4317	19.80198
840.5759	21.54983
840.72	22.54531
840.8641	23.2543
841.0082	21.40132
841.1523	17.09221
841.2963	20.48875
841.4404	18.88438
841.5845	19.94301
841.7285	23.45984
841.8726	18.93978
842.0165	21.9473
842.1606	17.55957
842.3046	17.85252
842.4485	17.26093
842.5925	21.55676
842.7365	25.79556
842.8805	26.17599
843.0244	22.16607
843.1684	20.41572
843.3123	23.57462
843.4562	23.4697
843.6002	19.50145
843.744	25.26322
843.8879	19.69396
844.0318	22.0302
844.1757	20.84341
844.3195	16.10144
844.4634	20.83455
844.6072	17.07848
844.751	17.35123
844.8948	20.50041
845.0386	19.25872
845.1824	19.80292
845.3262	21.3931
845.47	23.3177
845.6138	19.9581
845.7575	21.21448
845.9012	19.39399
846.045	19.89572
846.1887	18.19551
846.3324	21.6777
846.4761	21.86102
846.6198	22.07163
846.7635	20.3683
846.9071	18.76915
847.0508	19.4608
847.1944	20.95422
847.3381	25.59326
847.4817	17.09632
847.6253	17.34015
847.7689	19.637
847.9125	19.55255
848.0561	17.6424
848.1996	19.47032
848.3432	23.3648
848.4868	22.10191
848.6303	19.74604
848.7738	14.95366
848.9174	13.79591
849.0609	16.81006
849.2043	16.39845
849.3478	15.72285
849.4913	13.99002
849.6348	19.96684
849.7782	18.75095
849.9217	15.56127
850.0651	19.40339
850.2086	14.34817
850.3519	20.42452
850.4954	18.8628
850.6387	21.4832
850.7821	19.40505
850.9255	19.71682
851.0688	19.7698
851.2122	16.35831
851.3555	22.79668
851.4988	17.69117
851.6422	20.35411
851.7855	25.32261
851.9288	24.02523
852.0721	21.929
852.2153	21.11532
852.3586	23.40032
852.5018	18.72731
852.6451	17.21338
852.7883	20.32973
852.9315	17.7278
853.0748	19.86312
853.218	17.01221
853.3611	21.21057
853.5043	19.56043
853.6475	22.96731
853.7906	17.36304
853.9338	18.19577
854.0769	17.96318
854.22	15.99109
854.3632	16.80569
854.5063	18.828
854.6494	19.45909
854.7924	18.73394
854.9355	21.58574
855.0786	18.88568
855.2216	21.0446
855.3647	17.83913
855.5077	13.77445
855.6507	17.56428
855.7937	20.55024
855.9367	21.98228
856.0797	23.91532
856.2227	19.78266
856.3657	18.12432
856.5086	17.89821
856.6516	16.77213
856.7945	20.48119
856.9374	14.43664
857.0803	18.68512
857.2232	18.09131
857.3661	18.10125
857.509	17.20909
857.6519	17.20442
857.7947	16.97891
857.9376	20.01726
858.0804	16.03706
858.2232	18.80958
858.366	21.02859
858.5089	23.54742
858.6516	16.87288
858.7944	20.08765
858.9372	17.05386
859.08	16.66009
859.2227	15.22038
859.3654	22.05472
859.5082	23.00065
859.6509	18.42143
859.7936	16.2314
859.9363	14.46288
860.079	16.35529
860.2217	17.47056
860.3643	17.66453
860.507	15.24621
860.6496	18.18569
860.7922	21.60071
860.9349	16.37609
861.0775	16.66285
861.2201	12.38471
861.3627	17.47105
861.5052	15.84793
861.6478	14.56265
861.7904	15.69598
861.9329	19.72623
862.0755	17.8298
862.218	14.83815
862.3605	15.59237
862.503	19.99735
862.6455	19.34488
862.788	18.4876
862.9305	19.02581
863.0729	17.8531
863.2154	17.43385
863.3578	18.87914
863.5002	13.79867
863.6426	15.42084
863.7851	17.87037
863.9275	16.69141
864.0698	16.18098
864.2122	15.19393
864.3546	17.74
864.4969	13.98151
864.6393	13.39386
864.7816	12.50477
864.924	12.24631
865.0662	16.66597
865.2086	15.90348
865.3508	19.16672
865.4931	12.1654
865.6354	18.89541
865.7776	18.48502
865.9199	13.97904
866.0621	12.48956
866.2043	11.56899
866.3466	13.5001
866.4888	14.6907
866.6309	11.52339
866.7731	12.59259
866.9153	15.74556
867.0574	17.3948
867.1996	16.63377
867.3417	12.9913
867.4839	12.41792
867.626	14.76577
867.7681	12.66028
867.9102	12.27859
868.0522	16.08336
868.1943	18.47024
868.3364	19.63379
868.4785	19.10828
868.6205	15.18524
868.7625	18.06654
868.9045	20.09658
869.0465	17.97055
869.1885	19.7287
869.3305	16.29558
869.4725	12.28476
869.6144	12.42042
869.7564	16.33644
869.8983	13.46839
870.0403	15.13776
870.1822	16.489
870.3241	16.45088
870.466	12.72427
870.6079	16.62344
870.7498	12.87987
870.8916	15.17754
871.0335	16.42602
871.1754	11.24237
871.3171	12.98204
871.459	17.03143
871.6008	16.24477
871.7426	14.87231
871.8844	15.46841
872.0262	16.83755
872.1679	15.81918
872.3097	14.11258
872.4514	13.40785
872.5931	13.707
872.7349	18.37419
872.8766	12.12098
873.0183	15.13013
873.16	16.05351
873.3017	16.59702
873.4434	19.01202
873.585	16.74081
873.7266	15.84481
873.8683	17.33038
874.0099	14.61425
874.1516	13.43798
874.2932	15.66893
874.4348	16.25547
874.5763	14.63772
874.7179	18.14763
874.8594	12.62726
875.001	15.37114
875.1425	18.76912
875.2841	17.09491
875.4256	11.99344
875.5671	13.28043
875.7086	16.22207
875.85	17.14803
875.9915	14.42057
876.133	16.85122
876.2744	21.26024
876.4159	17.64572
876.5573	16.97638
876.6987	17.747
876.8401	15.1647
876.9815	15.82049
877.1229	15.69125
877.2643	12.74074
877.4056	14.6159
877.547	10.16277
877.6884	13.96058
877.8297	11.65197
877.971	13.44608
878.1123	14.64904
878.2536	14.2082
878.3949	17.00057
878.5362	13.02768
878.6774	14.9758
878.8187	18.163
878.9599	17.35392
879.1011	11.32821
879.2424	9.092949
879.3836	9.876451
879.5248	13.96583
879.666	13.25593
879.8071	13.36744
879.9483	12.38888
880.0895	10.77796
880.2306	13.11745
880.3718	13.08217
880.5129	12.81461
880.654	9.427522
880.7951	13.04594
880.9362	14.20625
881.0773	14.03655
881.2183	13.78115
881.3594	17.31921
881.5004	19.48041
881.6414	17.55487
881.7825	18.19113
881.9235	12.35836
882.0645	11.45259
882.2054	9.771885
882.3464	14.57944
882.4874	11.45687
882.6284	6.964842
882.7693	13.41013
882.9103	14.02413
883.0512	10.89545
883.1921	14.01626
883.333	15.50287
883.4739	11.83046
883.6147	11.45682
883.7556	11.59653
883.8965	9.110715
884.0374	9.692597
884.1782	10.71261
884.319	8.679106
884.4598	13.05365
884.6006	16.70373
884.7414	15.41815
884.8822	12.3461
885.0229	8.83792
885.1637	12.87141
885.3044	13.08591
885.4452	14.13772
885.5859	15.61991
885.7266	14.78107
885.8673	14.97232
886.008	12.75384
886.1487	14.71963
886.2894	12.32241
886.43	14.92536
886.5707	17.88806
886.7113	14.204
886.8519	17.92322
886.9926	14.04625
887.1331	15.56852
887.2737	16.10717
887.4143	13.49852
887.5549	8.416772
887.6954	10.57158
887.836	14.57318
887.9765	14.02504
888.1171	11.70744
888.2576	13.0121
888.3981	12.41036
888.5386	15.41482
888.679	15.26562
888.8195	10.18413
888.96	10.69823
889.1004	9.08579
889.2408	8.688632
889.3813	13.76594
889.5217	14.75961
889.6621	10.98256
889.8025	8.183931
889.9429	9.938861
890.0833	11.56447
890.2236	9.076158
890.364	10.17818
890.5043	9.145059
890.6446	14.47478
890.7849	19.48993
890.9252	16.33803
891.0655	12.96349
891.2058	10.17108
891.3461	9.868254
891.4863	12.15265
891.6266	12.38889
891.7668	10.18088
891.907	15.9226
892.0472	12.09189
892.1874	16.47845
892.3276	18.27392
892.4678	12.73095
892.608	15.52826
892.7481	9.385035
892.8883	13.95753
893.0284	9.252347
893.1685	11.0402
893.3087	14.1109
893.4487	13.48667
893.5889	14.55645
893.7289	11.8653
893.869	8.617058
894.009	12.08752
894.1491	12.73522
894.2891	14.34094
894.4291	12.10222
894.5692	11.57294
894.7092	15.3168
894.8491	14.11918
894.9891	11.2659
895.1291	13.24095
895.269	13.06847
895.409	11.13846
895.549	10.4037
895.6888	7.897145
895.8288	10.83676
895.9687	6.423654
896.1086	10.84284
896.2484	14.10747
896.3883	7.476817
896.5281	7.678581
896.668	9.765357
896.8079	10.0364
896.9476	10.20939
897.0875	13.07444
897.2272	12.40751
897.3671	8.085416
897.5068	7.172689
897.6466	10.09091
897.7864	11.15078
897.9261	14.34576
898.0658	9.309718
898.2056	12.23046
898.3453	8.537964
898.4849	9.571258
898.6246	12.32409
898.7643	11.41814
898.904	7.627346
899.0436	8.595793
899.1833	3.220979
899.3229	7.703121
899.4625	9.198937
899.6021	7.533747
899.7417	10.63581
899.8813	9.238611
900.0209	7.058968
900.1605	9.876873
900.3	7.208965
900.4395	7.536112
900.579	5.82738
900.7186	5.968429
900.8581	7.393599
900.9976	9.036423
901.1371	8.776875
901.2766	7.713881
901.416	15.3036
901.5555	10.10328
901.6949	8.192953
901.8344	6.87946
901.9738	10.1961
902.1132	9.459496
902.2526	11.51613
902.3919	5.841441
902.5313	6.169268
902.6707	4.692875
