SPECTRUM DATA FILE
SpectrumCount:	1
PixelCount:	3648
UserName:	ToughBook User
SampleName:	
LightSource:	
Comments:	
DeviceName:	Qwave
DeviceManufacturer:	Broadcom
DeviceSerialNo:	11311

Name:	last spectrum
Date:	2024-05-02T15:21:57.0824100+02:00
ExposureTime:	0.02
TemporalAvg:	1
IntensityUnit:	normalizedCounts
CCDLoadLevel:	0.0770725
Temperature:	29.87341
DiagramColor:	200
ProcessingSteps:	335

Wavelength [nm]	Intensity1
334.421	14.85184
334.5891	14.02714
334.7573	14.34644
334.9254	14.67616
335.0935	17.56994
335.2616	18.06118
335.4297	22.47835
335.5978	18.59172
335.7659	16.80322
335.934	20.74282
336.1021	13.05596
336.2701	11.26152
336.4382	17.23202
336.6063	15.39571
336.7744	9.735999
336.9424	13.29275
337.1105	14.52554
337.2785	17.87683
337.4466	17.58005
337.6146	14.74807
337.7827	20.19496
337.9507	15.684
338.1187	14.21327
338.2867	18.27083
338.4548	19.26328
338.6228	17.94846
338.7908	17.346
338.9588	15.10575
339.1268	15.68225
339.2948	18.10182
339.4628	20.14728
339.6308	21.85577
339.7988	18.36094
339.9667	16.73253
340.1347	19.46099
340.3027	15.32612
340.4707	17.11323
340.6386	18.79268
340.8066	15.61652
340.9745	15.6772
341.1425	16.95525
341.3104	16.98869
341.4784	14.56974
341.6463	17.29303
341.8142	16.49346
341.9821	18.94102
342.1501	18.87263
342.318	15.18444
342.4859	18.80863
342.6538	23.36851
342.8217	18.33968
342.9896	20.97954
343.1575	21.25455
343.3254	21.2511
343.4933	20.96896
343.6612	21.8849
343.829	18.97639
343.9969	14.01239
344.1648	10.48233
344.3326	17.94241
344.5005	18.64846
344.6683	16.27772
344.8362	20.86713
345.004	20.66437
345.1719	20.9886
345.3397	21.99574
345.5075	21.12185
345.6754	23.04389
345.8432	15.68988
346.011	14.34792
346.1788	16.4193
346.3466	22.81401
346.5144	21.07126
346.6822	21.1453
346.85	19.71675
347.0178	15.2761
347.1856	15.95488
347.3534	21.15467
347.5211	17.60106
347.6889	15.19109
347.8567	17.37233
348.0244	17.78645
348.1922	16.52661
348.3599	16.30115
348.5277	17.16978
348.6954	17.40399
348.8632	13.00999
349.0309	19.94335
349.1986	14.10422
349.3663	19.24685
349.5341	19.36138
349.7018	20.84023
349.8695	23.40414
350.0372	21.79699
350.2049	24.09758
350.3726	24.30275
350.5403	24.65985
350.7079	27.37951
350.8756	25.32497
351.0433	20.20313
351.211	18.72562
351.3786	20.70871
351.5463	23.52152
351.714	25.66722
351.8816	26.54232
352.0493	21.83237
352.2169	21.44529
352.3846	23.93423
352.5522	17.73804
352.7198	17.91271
352.8875	19.27713
353.0551	26.24447
353.2227	25.35953
353.3903	21.8283
353.5579	22.3253
353.7255	27.87352
353.8931	24.29784
354.0607	25.36193
354.2283	29.28327
354.3958	27.17422
354.5634	25.82205
354.731	23.68325
354.8986	32.13088
355.0661	28.26665
355.2337	29.40239
355.4012	27.67924
355.5688	22.12329
355.7363	20.8921
355.9039	24.72066
356.0714	25.32388
356.239	25.2754
356.4065	26.12937
356.574	26.04755
356.7415	25.85629
356.909	25.38391
357.0765	22.03655
357.244	21.77597
357.4115	17.93031
357.579	20.97088
357.7465	20.04098
357.914	21.90277
358.0815	19.65486
358.249	21.45383
358.4164	16.36688
358.5839	20.49593
358.7513	16.37445
358.9188	20.49118
359.0862	21.10349
359.2537	24.65363
359.4211	31.17984
359.5886	30.47925
359.756	29.10993
359.9234	28.8117
360.0909	29.68639
360.2583	28.29865
360.4257	25.4809
360.5931	23.65002
360.7605	22.37153
360.9279	20.78404
361.0953	22.8784
361.2627	22.27863
361.4301	25.63791
361.5974	21.07329
361.7648	26.28396
361.9322	23.04268
362.0995	24.94917
362.2669	23.69641
362.4343	24.42629
362.6016	29.60001
362.769	31.10925
362.9363	29.71597
363.1036	27.08564
363.271	24.74878
363.4383	30.46062
363.6056	29.7161
363.7729	28.42552
363.9402	31.54703
364.1075	33.90985
364.2748	33.54496
364.4421	26.54849
364.6094	27.26672
364.7767	30.67623
364.944	30.96873
365.1113	26.98604
365.2786	32.99059
365.4458	36.16751
365.6131	37.42494
365.7803	37.16169
365.9476	40.23954
366.1148	41.20564
366.2821	40.72539
366.4493	33.81123
366.6166	34.31345
366.7838	36.59089
366.951	37.01336
367.1182	35.71667
367.2855	32.38295
367.4527	35.35528
367.6199	32.83466
367.7871	36.45779
367.9543	33.40808
368.1215	37.95271
368.2886	34.50449
368.4558	36.88375
368.623	33.99455
368.7902	35.41209
368.9573	34.82998
369.1245	38.05224
369.2917	42.56563
369.4588	42.29812
369.6259	34.54591
369.7931	37.9067
369.9602	41.16417
370.1274	37.73628
370.2945	35.85664
370.4616	36.083
370.6287	34.43387
370.7958	32.9997
370.963	33.33894
371.1301	38.67831
371.2971	41.26671
371.4643	42.31033
371.6313	43.21074
371.7984	38.2189
371.9655	35.57306
372.1326	31.58259
372.2997	35.18054
372.4667	36.30855
372.6338	42.48008
372.8008	42.2279
372.9679	40.5041
373.1349	34.67157
373.3019	37.27972
373.469	31.64519
373.636	26.44239
373.803	33.73751
373.9701	40.71563
374.1371	44.21346
374.3041	37.49165
374.4711	32.791
374.6381	28.7275
374.8051	28.34402
374.9721	36.19389
375.1391	36.92122
375.3061	41.15834
375.473	45.77816
375.64	41.61493
375.8069	40.06887
375.9739	38.5159
376.1409	46.60655
376.3078	43.05881
376.4748	39.02148
376.6417	38.73913
376.8087	42.26394
376.9756	40.04147
377.1425	44.38945
377.3094	48.20858
377.4763	54.60643
377.6432	52.17777
377.8102	55.95009
377.9771	57.06585
378.144	53.03016
378.3109	55.98643
378.4777	53.02715
378.6446	46.64005
378.8115	40.77494
378.9784	42.51056
379.1452	46.93534
379.3121	47.68583
379.4789	43.8542
379.6458	39.30401
379.8127	36.86071
379.9795	39.0901
380.1463	44.31894
380.3131	48.35205
380.48	53.00809
380.6468	50.51884
380.8136	48.16454
380.9804	50.92352
381.1472	47.62103
381.314	46.97165
381.4808	45.76505
381.6476	39.16708
381.8144	42.4467
381.9812	45.14274
382.148	42.85915
382.3147	34.91491
382.4815	38.72774
382.6483	38.20007
382.815	34.97747
382.9818	34.29337
383.1485	40.98152
383.3153	34.41726
383.482	32.93788
383.6487	29.95897
383.8155	36.04857
383.9822	34.14893
384.1489	37.62237
384.3156	43.60251
384.4823	54.62469
384.649	55.83071
384.8157	47.72675
384.9824	50.43688
385.1491	55.22858
385.3158	53.94608
385.4825	53.51881
385.6491	46.82499
385.8158	43.06223
385.9825	46.28981
386.1491	44.22861
386.3157	45.93112
386.4824	52.34874
386.649	52.51307
386.8157	53.26803
386.9823	45.40779
387.1489	46.30643
387.3156	52.35447
387.4821	50.37014
387.6488	45.0782
387.8154	48.29663
387.982	51.65424
388.1486	48.71609
388.3152	50.95061
388.4818	47.87962
388.6483	49.76859
388.8149	47.31876
388.9815	54.93798
389.148	58.64493
389.3146	62.12459
389.4811	58.25271
389.6477	66.60919
389.8142	62.87095
389.9808	67.88465
390.1473	62.96214
390.3138	59.99124
390.4804	60.62346
390.6469	58.11314
390.8134	67.32014
390.9799	68.00661
391.1464	71.47569
391.3129	70.74812
391.4794	74.40134
391.6459	71.1501
391.8124	63.68002
391.9789	62.73775
392.1453	59.38757
392.3118	61.88482
392.4782	61.02744
392.6447	53.56515
392.8112	44.13585
392.9776	42.40875
393.144	32.93855
393.3105	25.11032
393.4769	27.01403
393.6433	28.60302
393.8098	38.69021
393.9762	47.87809
394.1426	54.98275
394.309	58.1537
394.4754	56.46281
394.6418	64.4351
394.8082	68.73542
394.9746	68.37978
395.141	74.55238
395.3073	79.28847
395.4737	77.63009
395.64	83.88283
395.8064	79.30322
395.9728	71.13355
396.1391	59.03636
396.3055	49.3323
396.4718	47.18803
396.6381	45.73662
396.8045	34.37717
396.9708	38.04815
397.1371	45.88223
397.3034	52.1652
397.4697	59.8381
397.636	68.79288
397.8023	77.04278
397.9686	88.81142
398.1349	92.80962
398.3012	88.26886
398.4675	91.58502
398.6337	91.20927
398.8	94.70056
398.9662	98.8429
399.1325	101.8481
399.2988	99.74133
399.465	99.48518
399.6313	100.1875
399.7975	97.58131
399.9637	98.69465
400.1299	103.5393
400.2961	100.7733
400.4624	100.0906
400.6286	97.33314
400.7948	96.51761
400.961	102.3437
401.1272	109.4026
401.2934	107.1042
401.4595	102.594
401.6257	106.9528
401.7919	109.5857
401.9581	109.1292
402.1242	108.5203
402.2904	112.5364
402.4565	115.2308
402.6227	113.5629
402.7888	111.6667
402.955	113.8558
403.1211	104.8702
403.2872	96.78334
403.4533	100.6096
403.6194	104.7346
403.7856	113.1325
403.9517	116.1996
404.1177	110.5438
404.2838	107.542
404.4499	96.2987
404.616	101.3187
404.7821	105.5696
404.9482	106.9222
405.1142	121.544
405.2803	117.6967
405.4464	111.836
405.6124	110.3694
405.7784	108.1454
405.9445	112.0991
406.1105	109.471
406.2766	103.7599
406.4426	102.8288
406.6086	102.768
406.7746	111.9279
406.9406	116.6336
407.1066	116.0642
407.2726	117.9031
407.4386	119.9661
407.6046	116.51
407.7706	113.7257
407.9366	116.3414
408.1025	125.6319
408.2685	132.774
408.4344	127.2085
408.6004	125.5077
408.7664	129.9292
408.9323	134.1364
409.0983	130.9306
409.2642	129.8867
409.4301	131.2017
409.596	126.3477
409.762	119.2912
409.9279	109.2893
410.0938	104.9349
410.2597	103.9573
410.4256	109.3146
410.5915	120.5274
410.7574	125.5642
410.9232	123.9516
411.0891	122.9634
411.255	130.9948
411.4209	144.9964
411.5867	144.0781
411.7526	140.4272
411.9184	139.7035
412.0843	134.0531
412.2501	131.8247
412.4159	138.9198
412.5818	137.0922
412.7476	137.2054
412.9134	132.6198
413.0792	136.0815
413.245	128.9491
413.4108	131.2399
413.5766	134.3827
413.7424	137.8685
413.9082	145.485
414.074	148.3566
414.2397	143.4593
414.4055	132.4567
414.5713	133.3927
414.737	137.3127
414.9028	139.1713
415.0685	140.7393
415.2343	136.0502
415.4	128.1999
415.5658	137.5151
415.7315	134.4016
415.8972	136.6055
416.0629	143.401
416.2286	153.2278
416.3943	153.3807
416.56	155.0072
416.7257	147.6532
416.8914	149.1086
417.0571	143.3347
417.2228	143.6666
417.3884	134.6872
417.5541	132.2912
417.7198	147.9936
417.8854	147.3672
418.0511	145.7316
418.2167	143.9783
418.3824	147.9738
418.548	135.6608
418.7136	140.442
418.8792	139.5654
419.0449	146.3848
419.2105	152.22
419.3761	164.1433
419.5417	157.3333
419.7073	144.4716
419.8729	138.8185
420.0385	139.2484
420.204	141.3233
420.3696	148.0656
420.5352	156.5502
420.7007	166.8247
420.8663	164.6308
421.0319	161.313
421.1974	157.6377
421.3629	163.5531
421.5285	163.1498
421.694	157.6253
421.8595	154.6596
422.0251	168.314
422.1906	165.7735
422.3561	157.5514
422.5216	146.8282
422.6871	131.3978
422.8526	138.3782
423.0181	158.918
423.1835	163.0016
423.349	164.1148
423.5145	161.0043
423.68	155.8171
423.8454	155.3387
424.0109	156.9876
424.1763	167.2182
424.3418	165.0679
424.5072	164.0853
424.6726	167.6103
424.838	163.0766
425.0035	157.489
425.1689	157.0101
425.3343	160.4485
425.4997	163.6141
425.6651	165.713
425.8305	163.6238
425.9959	155.8353
426.1613	147.7196
426.3267	158.4199
426.492	173.0869
426.6574	178.9012
426.8228	168.2899
426.9881	161.0864
427.1534	144.3459
427.3188	139.3179
427.4841	143.5439
427.6495	158.8834
427.8148	172.9461
427.9801	171.0566
428.1454	167.4453
428.3107	172.2227
428.476	161.6703
428.6414	167.3748
428.8066	158.5796
428.9719	156.0596
429.1372	154.1633
429.3025	155.9488
429.4678	158.8198
429.633	155.736
429.7983	142.4795
429.9636	128.1533
430.1288	122.2432
430.294	116.3156
430.4593	128.6117
430.6245	122.5767
430.7897	116.283
430.955	118.8656
431.1202	118.4818
431.2854	133.5284
431.4506	152.5116
431.6158	179.4804
431.781	199.176
431.9462	199.9671
432.1114	195.8207
432.2766	176.9594
432.4417	156.1485
432.6069	149.4926
432.772	157.3569
432.9372	180.2406
433.1024	188.8997
433.2675	192.2852
433.4326	201.9382
433.5977	197.3124
433.7629	173.3949
433.928	155.9279
434.0931	143.6307
434.2582	155.4797
434.4233	173.3152
434.5884	186.4493
434.7535	198.633
434.9186	199.1387
435.0837	194.4021
435.2488	186.7888
435.4138	184.2336
435.5789	192.9852
435.744	204.0672
435.909	206.4675
436.0741	212.4828
436.2391	212.4821
436.4042	205.8561
436.5692	211.6978
436.7342	212.8333
436.8992	203.4706
437.0643	205.568
437.2293	208.6621
437.3943	197.6307
437.5593	195.292
437.7243	197.1332
437.8893	207.8533
438.0542	211.4093
438.2192	186.5426
438.3842	168.4086
438.5491	168.1992
438.7141	183.9694
438.8791	192.7904
439.044	195.5426
439.209	204.4456
439.3739	202.8294
439.5388	206.4288
439.7037	216.2732
439.8687	211.8016
440.0336	208.0542
440.1985	201.5248
440.3634	192.6275
440.5283	188.7702
440.6932	197.5089
440.8581	212.5406
441.0229	225.7014
441.1878	226.5018
441.3527	226.5288
441.5175	214.2254
441.6824	216.3239
441.8472	220.4056
442.0121	233.2935
442.1769	232.3781
442.3418	230.2988
442.5066	224.0516
442.6714	231.8054
442.8362	230.6158
443.001	226.8567
443.1659	222.5262
443.3307	228.3087
443.4955	212.0168
443.6602	218.3179
443.825	236.7833
443.9898	237.1159
444.1546	232.1816
444.3193	231.213
444.4841	233.1828
444.6488	241.1625
444.8136	239.5099
444.9783	237.0406
445.1431	242.3804
445.3078	237.506
445.4725	213.3947
445.6372	209.8325
445.802	213.995
445.9667	222.2519
446.1314	220.2535
446.2961	225.833
446.4608	236.1228
446.6255	241.3631
446.7901	237.2982
446.9548	235.5114
447.1195	242.9582
447.2841	249.6844
447.4488	259.3862
447.6134	265.5904
447.7781	263.9167
447.9427	252.1294
448.1074	240.3914
448.272	243.8439
448.4366	250.6927
448.6012	253.9768
448.7658	262.8942
448.9305	259.0968
449.095	254.4342
449.2596	252.2175
449.4242	252.8538
449.5888	250.2953
449.7534	258.7628
449.9179	268.413
450.0825	272.4057
450.2471	273.5187
450.4116	275.9827
450.5762	282.1202
450.7407	285.2569
450.9052	284.9919
451.0698	287.0052
451.2343	275.7991
451.3988	276.2267
451.5633	279.6778
451.7278	273.9236
451.8923	278.986
452.0568	279.6496
452.2213	268.2162
452.3858	272.2548
452.5503	267.8001
452.7148	253.1205
452.8792	246.7138
453.0437	246.5476
453.2081	249.2645
453.3726	260.5581
453.537	258.5323
453.7015	268.6661
453.8659	275.3435
454.0303	279.9347
454.1947	276.132
454.3592	275.3816
454.5236	275.7896
454.688	270.7733
454.8524	262.4475
455.0168	261.3795
455.1811	264.0192
455.3455	272.899
455.5099	271.7394
455.6743	269.7839
455.8386	271.0836
456.003	281.3155
456.1673	280.0056
456.3317	270.5983
456.496	272.8797
456.6603	274.5676
456.8246	276.6548
456.989	278.5869
457.1533	278.7742
457.3176	276.5538
457.4819	289.5356
457.6462	287.023
457.8105	286.3052
457.9748	288.2649
458.1391	269.1552
458.3033	266.3766
458.4676	273.209
458.6319	270.6912
458.7961	274.8857
458.9604	285.7667
459.1246	289.8487
459.2888	278.2735
459.4531	268.4238
459.6173	274.8173
459.7815	271.9551
459.9457	274.1897
460.11	276.4615
460.2741	278.3711
460.4384	285.1352
460.6025	281.0534
460.7667	281.2417
460.9309	291.5018
461.0951	285.705
461.2592	288.6062
461.4234	285.7618
461.5876	290.2484
461.7517	286.8521
461.9159	285.9849
462.08	290.5913
462.2441	286.5589
462.4082	287.187
462.5724	291.2881
462.7365	293.7074
462.9006	289.5944
463.0647	299.7859
463.2288	300.5216
463.3929	293.6467
463.557	289.205
463.721	283.9498
463.8851	286.6595
464.0492	290.2166
464.2132	289.2171
464.3773	290.5797
464.5414	278.4388
464.7054	275.961
464.8694	277.4968
465.0334	277.6119
465.1975	291.9924
465.3615	298.1002
465.5255	291.0463
465.6895	290.339
465.8535	304.6418
466.0175	310.8241
466.1815	307.3883
466.3455	300.6801
466.5095	292.0131
466.6734	279.1473
466.8374	272.9816
467.0014	277.9
467.1653	286.8813
467.3293	294.0914
467.4932	298.7727
467.6571	294.144
467.8211	301.7875
467.985	295.1947
468.1489	292.122
468.3128	297.0233
468.4767	302.8883
468.6406	304.4747
468.8045	302.772
468.9684	307.2943
469.1323	302.9149
469.2962	308.0047
469.46	310.6935
469.6239	316.4568
469.7878	309.3499
469.9516	297.7047
470.1154	295.5555
470.2793	293.1782
470.4431	288.8232
470.607	290.3364
470.7708	292.093
470.9346	294.9547
471.0984	298.1097
471.2622	296.6917
471.426	305.7957
471.5898	299.1065
471.7536	302.8934
471.9174	308.8743
472.0811	321.3427
472.2449	321.0233
472.4087	320.1966
472.5724	322.1077
472.7362	318.1647
472.8999	302.0352
473.0637	298.8318
473.2274	303.2546
473.3911	306.5857
473.5548	304.2393
473.7185	302.6972
473.8822	308.6105
474.0459	303.7377
474.2096	306.641
474.3733	307.4706
474.537	311.1874
474.7007	319.7431
474.8643	314.9183
475.028	311.2049
475.1917	322.4746
475.3553	310.7993
475.519	300.4636
475.6826	294.3486
475.8463	303.4964
476.0099	305.4872
476.1735	305.9094
476.3371	300.512
476.5007	295.762
476.6643	299.0565
476.8279	295.2975
476.9915	309.35
477.1551	311.4355
477.3187	313.2648
477.4823	313.6928
477.6458	316.3196
477.8094	321.8953
477.9729	327.6954
478.1365	327.1983
478.3	310.1456
478.4636	307.9861
478.6271	303.2328
478.7906	305.5464
478.9541	309.2885
479.1176	313.121
479.2812	316.6662
479.4447	318.76
479.6082	326.224
479.7716	328.4917
479.9351	311.0981
480.0986	302.585
480.2621	312.2778
480.4255	317.9108
480.589	318.3498
480.7524	311.1434
480.9159	311.2935
481.0793	308.6289
481.2428	314.6163
481.4062	325.1122
481.5696	316.3981
481.733	324.1588
481.8964	325.8016
482.0598	323.8018
482.2232	314.1178
482.3866	312.8113
482.55	315.196
482.7134	322.0528
482.8768	311.8919
483.0401	313.426
483.2035	312.213
483.3668	319.9709
483.5302	320.6876
483.6935	312.5479
483.8568	318.1871
484.0202	316.1484
484.1835	309.5669
484.3468	310.7484
484.5101	314.6488
484.6734	317.8991
484.8367	318.1163
485	312.277
485.1633	313.297
485.3266	303.357
485.4899	301.6363
485.6531	294.9738
485.8164	271.0406
485.9796	252.0644
486.1429	232.1462
486.3061	232.8036
486.4694	254.0671
486.6326	274.3801
486.7958	297.6624
486.959	288.8593
487.1223	276.851
487.2855	281.9181
487.4486	289.1875
487.6118	296.8258
487.775	301.2519
487.9382	312.2146
488.1014	319.8902
488.2646	322.2317
488.4277	314.4245
488.5909	310.6243
488.754	308.6399
488.9171	296.8089
489.0803	290.2274
489.2434	296.1419
489.4066	310.4647
489.5697	331.2282
489.7328	340.9032
489.8959	333.6796
490.059	322.7822
490.2221	319.5694
490.3852	319.4543
490.5482	325.5348
490.7113	325.8419
490.8744	314.4987
491.0374	305.1838
491.2005	306.5534
491.3636	311.0849
491.5266	326.4755
491.6896	327.3289
491.8527	307.6317
492.0157	279.043
492.1787	276.6566
492.3417	295.3907
492.5047	304.2745
492.6677	316.7446
492.8307	318.2627
492.9937	324.7321
493.1567	331.0464
493.3196	320.2597
493.4826	312.9437
493.6456	308.8785
493.8085	303.0954
493.9715	298.4308
494.1344	312.7159
494.2974	326.0496
494.4603	334.6452
494.6232	335.1385
494.7861	331.4625
494.949	329.2618
495.1119	327.9838
495.2748	328.4028
495.4377	325.9666
495.6006	319.2633
495.7635	294.809
495.9264	300.6429
496.0892	318.2467
496.2521	330.3555
496.4149	332.5775
496.5778	326.9172
496.7407	320.5523
496.9035	316.0705
497.0663	322.2931
497.2291	321.5013
497.3919	329.206
497.5547	342.195
497.7176	328.2759
497.8804	324.8996
498.0432	320.8383
498.2059	309.3223
498.3687	293.4918
498.5315	289.666
498.6942	302.6328
498.857	332.6365
499.0198	328.4638
499.1825	324.9543
499.3452	326.5149
499.508	331.1319
499.6707	336.9799
499.8334	337.1734
499.9962	325.3391
500.1589	323.5959
500.3216	320.4398
500.4843	308.6895
500.6469	301.2501
500.8096	313.7623
500.9723	323.8812
501.135	327.1642
501.2976	314.038
501.4603	305.9599
501.623	311.1799
501.7856	310.5211
501.9482	310.0247
502.1109	317.6771
502.2735	325.0523
502.4361	325.3607
502.5987	325.3893
502.7614	326.8893
502.924	325.1471
503.0865	327.0902
503.2491	334.866
503.4117	340.343
503.5743	329.1112
503.7368	322.0947
503.8994	319.1388
504.062	309.0929
504.2245	298.3026
504.3871	312.4175
504.5496	337.7504
504.7121	346.7122
504.8746	334.5731
505.0372	325.46
505.1997	323.2072
505.3622	328.7065
505.5247	333.2556
505.6872	348.5823
505.8497	353.7209
506.0121	351.3814
506.1746	351.0468
506.3371	342.8468
506.4995	334.5931
506.662	334.9761
506.8244	339.1165
506.9869	338.1983
507.1493	334.7149
507.3117	331.3804
507.4742	335.3981
507.6366	335.6318
507.799	335.4774
507.9614	324.5071
508.1238	321.3058
508.2862	312.2048
508.4485	322.1944
508.6109	339.5772
508.7733	332.6003
508.9357	337.4469
509.098	347.3662
509.2604	345.9879
509.4227	351.467
509.5851	344.0465
509.7474	335.8234
509.9097	325.0079
510.072	326.5314
510.2343	341.5214
510.3966	342.1889
510.5589	333.0645
510.7212	331.8031
510.8835	332.8873
511.0458	321.4626
511.2081	336.0079
511.3703	348.2511
511.5326	339.7848
511.6949	342.4053
511.8571	337.4271
512.0193	338.5929
512.1816	337.1213
512.3438	321.9842
512.506	314.6309
512.6682	316.8329
512.8304	315.8594
512.9926	316.0702
513.1548	319.3133
513.317	323.3048
513.4792	329.5766
513.6414	325.6443
513.8035	310.9981
513.9657	300.0439
514.1279	299.7429
514.29	301.9781
514.4521	313.7075
514.6143	318.6787
514.7764	316.3485
514.9385	320.8349
515.1006	325.502
515.2628	321.8683
515.4249	320.1716
515.587	330.0205
515.7491	327.9011
515.9111	320.2702
516.0732	326.3278
516.2353	316.5547
516.3973	301.0374
516.5594	297.085
516.7214	269.2989
516.8835	251.8936
517.0455	265.924
517.2076	263.0631
517.3696	265.445
517.5316	278.029
517.6937	299.9135
517.8557	323.5553
518.0176	317.6487
518.1796	297.1882
518.3416	267.676
518.5036	253.2686
518.6656	270.2201
518.8275	292.3176
518.9895	306.7747
519.1514	307.2874
519.3134	309.1175
519.4753	305.3598
519.6373	311.6724
519.7992	313.1938
519.9611	318.8619
520.123	327.8884
520.2849	323.7137
520.4468	318.8906
520.6087	309.0747
520.7706	300.2782
520.9325	298.2251
521.0944	319.0699
521.2562	325.0118
521.4181	325.572
521.58	323.6911
521.7418	313.1602
521.9036	317.3251
522.0655	322.4579
522.2273	340.7944
522.3891	334.3633
522.551	319.8967
522.7128	306.7167
522.8746	301.4297
523.0363	310.5942
523.1981	316.6447
523.3599	320.6395
523.5217	316.6775
523.6835	319.838
523.8452	338.1456
524.007	340.2029
524.1687	342.0181
524.3304	341.2758
524.4922	335.0969
524.6539	330.9565
524.8157	335.8062
524.9774	338.35
525.1391	326.7844
525.3008	332.7521
525.4625	334.1985
525.6241	330.2606
525.7858	334.6314
525.9475	335.1162
526.1092	337.9772
526.2709	314.5455
526.4325	306.9018
526.5942	303.5868
526.7558	290.7632
526.9174	290.0234
527.079	289.8755
527.2407	300.3366
527.4023	309.394
527.5639	311.1795
527.7255	321.8566
527.8871	331.1383
528.0487	332.4417
528.2103	326.1893
528.3718	328.6268
528.5334	329.2158
528.695	337.6369
528.8565	340.9589
529.0181	351.6821
529.1796	356.676
529.3412	350.4011
529.5027	343.87
529.6642	334.2072
529.8257	326.9024
529.9872	326.0748
530.1487	331.2513
530.3102	329.1783
530.4717	332.248
530.6332	347.2276
530.7947	346.7698
530.9562	338.3682
531.1176	345.995
531.2791	350.3541
531.4405	339.8333
531.6019	327.8989
531.7634	336.2083
531.9248	334.2395
532.0862	337.4812
532.2477	328.676
532.4091	320.4812
532.5704	318.5357
532.7319	307.4208
532.8932	296.3702
533.0546	301.922
533.216	310.9459
533.3774	319.8822
533.5388	322.1311
533.7001	321.7556
533.8615	318.2339
534.0228	322.5782
534.1841	319.6318
534.3455	321.0189
534.5068	324.902
534.6681	325.0947
534.8293	321.7269
534.9907	328.1804
535.152	320.5385
535.3132	324.0169
535.4745	334.0125
535.6358	340.949
535.7971	334.7759
535.9583	332.514
536.1196	327.9992
536.2808	325.5284
536.4421	322.1821
536.6033	321.0003
536.7645	314.8789
536.9258	306.6055
537.087	302.2869
537.2482	311.0426
537.4094	313.7429
537.5706	319.7212
537.7318	333.3239
537.8929	328.2896
538.0541	318.6916
538.2153	310.8212
538.3764	317.6659
538.5376	315.0342
538.6987	322.1593
538.8599	322.9326
539.021	325.4332
539.1821	311.8981
539.3432	302.453
539.5043	307.4025
539.6655	304.8838
539.8265	311.9037
539.9876	298.1943
540.1487	306.6232
540.3098	310.0158
540.4708	293.0778
540.6319	285.4807
540.793	293.0942
540.954	297.8138
541.1151	302.3884
541.2761	297.1141
541.4371	300.7326
541.5981	306.2141
541.7592	313.102
541.9202	312.1895
542.0812	312.9046
542.2422	313.8351
542.4031	308.4007
542.5641	307.1448
542.7251	309.3257
542.886	313.2035
543.0471	304.9124
543.208	302.2012
543.369	304.6868
543.5298	301.3008
543.6908	306.978
543.8517	310.0763
544.0126	319.0943
544.1736	326.2188
544.3345	320.2489
544.4954	314.4984
544.6563	307.4048
544.8171	303.8509
544.978	306.7898
545.1389	320.3789
545.2997	319.3265
545.4606	309.7341
545.6215	308.7489
545.7823	310.8709
545.9432	317.0066
546.104	314.3557
546.2648	318.4134
546.4256	307.9558
546.5864	306.3412
546.7473	319.0213
546.908	316.1432
547.0688	314.061
547.2296	315.4139
547.3904	307.1005
547.5511	298.3551
547.7119	297.36
547.8727	296.977
548.0334	305.7776
548.1942	300.4161
548.3549	300.7442
548.5156	313.8664
548.6763	312.0928
548.837	320.5236
548.9977	311.5037
549.1584	314.6505
549.3192	317.5989
549.4798	313.0571
549.6405	304.856
549.8011	309.2171
549.9619	311.2075
550.1225	314.1561
550.2831	310.5861
550.4438	311.0454
550.6044	317.6266
550.765	319.5889
550.9257	310.635
551.0863	313.9794
551.2469	319.9633
551.4075	304.9254
551.5681	307.046
551.7287	307.1426
551.8893	312.7082
552.0498	318.0965
552.2104	319.1979
552.371	316.2588
552.5315	308.1796
552.6921	308.2378
552.8526	295.1239
553.0131	294.117
553.1736	308.3935
553.3342	311.9436
553.4947	310.1342
553.6552	303.8875
553.8157	291.267
553.9762	303.8825
554.1367	305.8848
554.2971	309.7694
554.4576	310.5102
554.618	308.7461
554.7785	308.3571
554.939	309.2424
555.0994	310.6492
555.2598	304.4618
555.4203	307.2252
555.5807	306.1407
555.7411	305.7676
555.9015	299.7383
556.0619	295.4281
556.2223	291.5744
556.3827	295.3844
556.5431	294.8855
556.7034	293.4111
556.8638	297.506
557.0242	293.8443
557.1845	293.1122
557.3448	289.0631
557.5052	284.8819
557.6655	288.9495
557.8259	289.885
557.9861	296.0511
558.1465	287.3186
558.3068	297.9106
558.467	297.9006
558.6274	278.0576
558.7877	271.9971
558.9479	273.568
559.1082	273.9809
559.2684	279.5708
559.4287	280.1407
559.5889	282.1522
559.7491	285.6569
559.9094	279.156
560.0696	279.6028
560.2299	275.4716
560.3901	275.9573
560.5502	288.6551
560.7104	296.976
560.8707	295.9655
561.0308	303.3218
561.191	296.7046
561.3511	292.7081
561.5114	287.6909
561.6714	280.1518
561.8316	275.3336
561.9918	280.8278
562.1519	284.8406
562.312	281.989
562.4722	289.758
562.6323	281.4068
562.7924	283.9243
562.9525	283.5656
563.1125	285.212
563.2726	288.6841
563.4327	285.0615
563.5928	282.335
563.7528	279.8831
563.9129	282.4449
564.0729	277.4518
564.233	284.2689
564.393	284.014
564.553	283.1231
564.7131	281.4975
564.873	276.2427
565.0331	279.5816
565.1931	284.2697
565.353	285.8618
565.5131	283.7542
565.673	278.0717
565.833	266.6685
565.9929	267.9742
566.1529	272.2042
566.3129	272.8586
566.4728	275.1553
566.6328	271.262
566.7927	276.9583
566.9526	268.9575
567.1125	276.8223
567.2724	280.0048
567.4323	272.0557
567.5922	285.626
567.7521	286.1163
567.9119	283.3754
568.0718	275.7772
568.2317	270.566
568.3915	260.4451
568.5514	266.4038
568.7112	263.7831
568.871	264.1226
569.0309	265.2748
569.1907	274.644
569.3505	275.9117
569.5103	278.5845
569.6701	281.112
569.8299	273.9883
569.9897	275.67
570.1495	271.2681
570.3092	264.0401
570.469	266.4358
570.6287	267.5522
570.7885	254.9441
570.9482	250.2355
571.108	251.8961
571.2677	252.1469
571.4274	262.5168
571.5871	277.1656
571.7468	277.1917
571.9066	267.0769
572.0662	267.2075
572.2259	273.7964
572.3856	276.0869
572.5452	276.1696
572.7049	275.0668
572.8646	275.808
573.0242	273.5855
573.1838	270.8564
573.3435	274.9147
573.5031	275.6554
573.6627	277.1056
573.8223	274.0624
573.9819	269.323
574.1415	272.5392
574.3011	272.3464
574.4607	271.827
574.6203	267.1617
574.7798	266.9457
574.9394	267.4367
575.099	269.0515
575.2585	262.9702
575.418	258.7618
575.5776	260.2142
575.7371	259.7775
575.8966	268.7496
576.0562	267.3591
576.2156	252.7097
576.3751	255.6638
576.5346	261.5052
576.6941	253.1103
576.8536	264.815
577.0131	267.6512
577.1725	272.5487
577.332	266.2623
577.4914	264.9209
577.6508	264.0107
577.8103	262.6309
577.9697	267.1472
578.1291	257.5347
578.2885	255.5464
578.4479	252.6513
578.6073	255.5247
578.7667	256.9231
578.9261	254.3591
579.0854	252.408
579.2448	251.3663
579.4042	251.5808
579.5635	257.4673
579.7229	253.658
579.8822	263.2256
580.0416	257.9871
580.2009	257.9533
580.3602	256.2658
580.5195	252.911
580.6788	244.0113
580.8381	256.5015
580.9974	256.1287
581.1566	258.597
581.3159	252.8741
581.4752	252.0523
581.6345	253.5069
581.7937	254.5512
581.9529	251.5618
582.1122	255.7749
582.2714	250.4454
582.4306	250.7452
582.5898	245.09
582.749	245.7275
582.9082	254.4911
583.0674	263.5773
583.2266	262.0043
583.3857	247.9975
583.5449	251.0181
583.7041	254.2318
583.8633	252.6599
584.0224	255.4381
584.1815	251.2539
584.3407	252.1462
584.4998	257.4041
584.6589	248.9091
584.818	251.355
584.9771	252.7544
585.1362	248.5844
585.2953	241.4139
585.4544	235.594
585.6135	236.7127
585.7725	235.9532
585.9316	236.8915
586.0906	239.2901
586.2497	234.4783
586.4087	233.4957
586.5677	240.7979
586.7267	243.4466
586.8858	243.8471
587.0448	242.6194
587.2038	241.137
587.3628	239.8846
587.5218	240.5797
587.6807	237.5791
587.8397	237.2364
587.9987	239.4035
588.1577	236.7182
588.3166	231.9504
588.4755	222.4017
588.6345	224.1522
588.7934	211.1378
588.9523	210.9485
589.1112	211.2749
589.2701	211.0748
589.429	207.8294
589.5879	215.9523
589.7468	214.0234
589.9056	212.5552
590.0645	214.8633
590.2234	224.9732
590.3822	229.5683
590.5411	229.3752
590.6999	232.0366
590.8588	228.0617
591.0176	220.1866
591.1764	226.5806
591.3352	229.51
591.494	231.6691
591.6528	221.601
591.8116	221.0256
591.9703	221.777
592.1291	224.3375
592.2878	222.6636
592.4467	216.3548
592.6053	214.9357
592.7641	221.5777
592.9229	219.4592
593.0816	221.1203
593.2403	220.7507
593.399	219.0729
593.5577	221.0054
593.7164	220.9278
593.8751	223.8161
594.0338	226.0898
594.1924	225.6269
594.3511	224.0624
594.5098	222.3336
594.6684	224.5723
594.8271	222.5148
594.9857	216.3368
595.1443	221.5583
595.303	218.8451
595.4615	220.4326
595.6202	221.5635
595.7787	224.9649
595.9374	219.1472
596.0959	220.4192
596.2545	225.9227
596.4131	223.444
596.5717	227.4783
596.7302	228.5716
596.8887	229.0318
597.0473	219.1524
597.2058	223.4823
597.3644	217.7856
597.5229	211.9916
597.6814	223.194
597.8399	224.7061
597.9984	223.1261
598.1569	219.5028
598.3154	224.4916
598.4738	220.174
598.6323	224.2248
598.7908	229.5754
598.9492	221.6428
599.1076	225.7222
599.2661	224.746
599.4245	221.078
599.5829	224.843
599.7413	217.5011
599.8997	221.9348
600.0581	220.8905
600.2165	213.0695
600.3749	220.0212
600.5333	216.9502
600.6917	216.5829
600.85	214.8187
601.0084	220.9468
601.1667	223.4452
601.325	213.4738
601.4833	215.1095
601.6417	216.237
601.8	216.1827
601.9583	217.0965
602.1166	218.3563
602.2749	220.1427
602.4332	218.3873
602.5914	215.9918
602.7498	217.548
602.908	218.6687
603.0662	225.0779
603.2245	228.2922
603.3828	225.5237
603.541	218.8918
603.6992	217.4532
603.8574	217.6609
604.0156	221.754
604.1738	221.1532
604.332	216.182
604.4902	213.5096
604.6484	213.1656
604.8065	220.8414
604.9647	220.948
605.1229	220.5208
605.281	223.5249
605.4391	219.3076
605.5973	216.6731
605.7554	216.5954
605.9135	221.7298
606.0717	217.1733
606.2297	213.3867
606.3878	216.7923
606.5459	209.6337
606.704	209.5652
606.8621	218.2644
607.0201	215.1734
607.1782	218.331
607.3362	218.6281
607.4943	216.4289
607.6523	220.5905
607.8104	217.7437
607.9684	213.6174
608.1264	207.7879
608.2844	210.1816
608.4424	211.9698
608.6003	215.56
608.7584	214.1906
608.9163	207.9792
609.0743	209.2473
609.2322	216.9875
609.3902	215.2424
609.5482	217.4281
609.7061	212.0638
609.864	212.6476
610.0219	213.1546
610.1798	205.0331
610.3377	200.696
610.4956	206.0477
610.6535	207.4886
610.8114	208.1276
610.9693	208.628
611.1271	207.7172
611.285	212.9148
611.4429	207.9086
611.6007	202.5672
611.7585	211.9713
611.9164	201.8627
612.0742	198.4178
612.232	201.7558
612.3898	200.0028
612.5476	199.2679
612.7054	197.9845
612.8632	205.7873
613.0209	205.0479
613.1787	206.1102
613.3365	201.2489
613.4942	205.1294
613.652	195.7529
613.8097	194.1774
613.9674	198.0262
614.1252	200.9273
614.2829	196.4496
614.4406	196.2312
614.5983	199.6886
614.756	201.5667
614.9136	201.9633
615.0714	199.7017
615.229	202.9946
615.3867	203.2161
615.5443	203.1025
615.702	194.0978
615.8596	196.4282
616.0172	189.4664
616.1748	192.4872
616.3325	189.5481
616.4901	183.7564
616.6476	190.2838
616.8052	195.0746
616.9628	183.7157
617.1204	184.2841
617.278	193.8077
617.4355	198.1108
617.5931	199.6521
617.7506	192.3447
617.9081	191.7814
618.0657	191.3563
618.2232	197.9357
618.3807	197.4664
618.5382	192.166
618.6957	197.8275
618.8532	196.8243
619.0107	190.6114
619.1682	190.4959
619.3256	195.1441
619.4831	190.4326
619.6406	197.2478
619.798	195.2511
619.9554	194.6463
620.1129	199.5363
620.2703	197.3094
620.4277	187.8849
620.5851	193.88
620.7425	194.3812
620.8998	199.5425
621.0573	197.2875
621.2146	191.205
621.372	180.4634
621.5294	183.1288
621.6867	189.4791
621.8441	187.957
622.0013	188.8566
622.1587	188.3481
622.316	189.0846
622.4733	191.0133
622.6306	187.7785
622.7879	191.3276
622.9452	189.8319
623.1025	185.9363
623.2598	186.7217
623.4171	192.6899
623.5743	195.5896
623.7316	185.8379
623.8888	191.427
624.046	193.3321
624.2032	188.9924
624.3605	185.7451
624.5176	184.8293
624.6749	181.0327
624.8321	185.392
624.9893	187.9807
625.1464	184.8272
625.3036	186.6758
625.4608	184.9677
625.6179	181.3923
625.7751	185.2902
625.9322	176.3653
626.0894	172.238
626.2465	177.623
626.4036	182.7301
626.5607	185.8153
626.7178	187.6436
626.8749	184.1577
627.032	185.5854
627.189	180.1442
627.3461	179.2742
627.5032	186.4669
627.6602	181.0199
627.8173	178.8044
627.9743	176.8309
628.1313	170.6733
628.2884	174.8041
628.4454	179.4145
628.6024	188.7454
628.7594	186.157
628.9164	175.1409
629.0734	182.0732
629.2303	174.3629
629.3873	177.9542
629.5443	179.6385
629.7012	172.2103
629.8582	173.5038
630.0151	179.8859
630.172	174.7289
630.3289	174.9756
630.4858	180.5196
630.6428	183.2573
630.7996	193.0775
630.9565	184.566
631.1134	177.9685
631.2703	176.7407
631.4272	174.5235
631.584	174.4992
631.7408	177.3916
631.8977	169.7237
632.0546	169.5821
632.2114	175.5887
632.3682	177.3788
632.525	180.4944
632.6818	174.7261
632.8386	175.6635
632.9954	181.7135
633.1522	178.0138
633.3089	173.4948
633.4657	171.7914
633.6224	172.3256
633.7792	171.642
633.9359	172.6288
634.0927	176.4998
634.2494	178.5672
634.4061	173.9549
634.5628	170.1747
634.7195	169.9384
634.8762	173.9103
635.0329	179.6605
635.1895	177.759
635.3462	179.1943
635.5029	172.6147
635.6595	173.2241
635.8162	168.0063
635.9728	172.0711
636.1295	171.7804
636.2861	173.4447
636.4427	165.5718
636.5992	165.4305
636.7559	171.0557
636.9124	171.2479
637.069	172.3852
637.2256	166.2971
637.3821	177.3764
637.5387	177.8688
637.6953	175.6326
637.8518	176.2519
638.0084	173.1342
638.1649	171.553
638.3214	170.7201
638.4779	171.8503
638.6344	170.8041
638.7909	174.8121
638.9474	176.1276
639.1038	173.2535
639.2603	170.0101
639.4167	173.3484
639.5732	167.9958
639.7297	168.1843
639.8861	161.2634
640.0425	169.3321
640.199	164.4693
640.3553	168.501
640.5118	166.9403
640.6682	159.8399
640.8245	163.4865
640.981	164.397
641.1373	164.5534
641.2936	168.228
641.45	169.7338
641.6064	164.9155
641.7627	166.2124
641.9191	161.2612
642.0754	162.8298
642.2317	162.6083
642.388	165.2929
642.5443	165.415
642.7006	170.0359
642.8569	163.1619
643.0131	165.2318
643.1694	156.5033
643.3257	158.3219
643.4819	168.2034
643.6382	163.5143
643.7944	161.1695
643.9506	159.0824
644.1069	163.4823
644.2631	162.8475
644.4193	160.2617
644.5754	161.6634
644.7316	161.1932
644.8878	158.194
645.044	160.5697
645.2002	155.8028
645.3563	155.3984
645.5125	158.3168
645.6686	159.6614
645.8248	162.3274
645.9809	160.4403
646.137	153.6847
646.2931	153.2458
646.4492	151.0977
646.6053	152.5739
646.7614	156.9936
646.9174	155.0948
647.0735	153.9578
647.2296	154.8469
647.3856	149.7951
647.5417	152.9117
647.6977	148.3667
647.8537	153.8658
648.0098	153.5595
648.1658	148.2016
648.3218	152.0151
648.4777	154.3167
648.6337	148.0964
648.7897	147.6305
648.9457	151.3822
649.1016	146.263
649.2576	151.0418
649.4135	142.968
649.5695	143.0649
649.7254	139.1743
649.8813	143.7836
650.0372	147.7666
650.1932	150.4296
650.3491	147.8943
650.5049	156.3676
650.6608	157.9006
650.8167	150.8014
650.9725	151.8212
651.1284	149.7374
651.2842	149.2339
651.4401	144.8126
651.5959	140.817
651.7518	138.081
651.9076	146.7853
652.0634	146.1893
652.2192	147.2943
652.3749	145.1196
652.5308	146.2528
652.6865	148.6525
652.8423	146.9464
652.998	150.078
653.1538	149.0815
653.3096	143.7668
653.4653	151.2256
653.621	148.3237
653.7767	149.8869
653.9324	147.4099
654.0881	150.7009
654.2438	147.7714
654.3995	146.7814
654.5552	145.0183
654.7109	149.2526
654.8665	143.0789
655.0222	141.8258
655.1778	139.985
655.3334	140.9302
655.4891	136.1988
655.6447	137.9067
655.8003	135.2673
655.9559	134.5654
656.1115	121.5684
656.2671	114.3612
656.4227	111.1807
656.5782	119.0293
656.7338	127.0073
656.8893	130.8286
657.0449	132.4178
657.2004	139.059
657.356	143.2253
657.5115	136.082
657.667	138.7808
657.8225	149.0791
657.978	142.7475
658.1335	148.9899
658.289	141.9532
658.4445	139.3085
658.5999	144.865
658.7554	146.078
658.9108	144.2453
659.0663	144.8107
659.2217	146.506
659.3771	146.8008
659.5325	148.9285
659.6879	138.3866
659.8433	142.5651
659.9987	140.0047
660.1541	139.9078
660.3095	142.8497
660.4648	147.9667
660.6202	142.8789
660.7756	142.0059
660.9309	146.0187
661.0862	146.5452
661.2416	142.2969
661.3969	143.4305
661.5522	142.8338
661.7075	146.2715
661.8628	147.0236
662.0181	146.3831
662.1733	142.5647
662.3286	142.8888
662.4839	142.0606
662.6391	149.2258
662.7944	152.3601
662.9496	143.6995
663.1048	136.3494
663.26	140.6957
663.4152	139.9508
663.5704	144.1399
663.7256	145.3591
663.8808	142.9632
664.036	148.4523
664.1912	136.7626
664.3463	147.1222
664.5015	148.8127
664.6566	139.1597
664.8118	145.192
664.9669	142.0447
665.122	142.1073
665.2771	144.378
665.4322	146.7314
665.5873	140.2448
665.7424	140.3443
665.8975	142.9922
666.0526	143.3175
666.2076	144.47
666.3627	137.2876
666.5177	139.9824
666.6727	139.8228
666.8278	142.6204
666.9828	140.9536
667.1378	143.0989
667.2928	136.2323
667.4478	141.2277
667.6028	141.1531
667.7578	133.0076
667.9127	135.6414
668.0677	136.1091
668.2226	142.7495
668.3776	135.4282
668.5325	143.2122
668.6874	147.1732
668.8423	139.0674
668.9973	135.9914
669.1522	138.7806
669.3071	144.2328
669.4619	141.3961
669.6168	138.1938
669.7717	137.7038
669.9265	132.8904
670.0814	137.9685
670.2362	138.1494
670.3911	136.9637
670.5459	137.4398
670.7007	141.6952
670.8555	138.4727
671.0103	142.5862
671.1651	136.4822
671.3199	134.7098
671.4747	130.373
671.6295	127.8489
671.7842	141.1188
671.939	134.393
672.0937	127.6194
672.2484	129.3475
672.4031	136.9578
672.5579	136.79
672.7126	135.7457
672.8673	139.2258
673.022	137.1235
673.1767	136.0418
673.3314	133.0213
673.486	134.9069
673.6407	139.8242
673.7953	140.0276
673.95	138.415
674.1046	140.7176
674.2592	133.6703
674.4138	129.6782
674.5684	129.2889
674.723	135.1645
674.8776	136.8279
675.0322	127.9259
675.1868	131.1967
675.3414	134.9122
675.4959	133.5654
675.6505	132.8029
675.805	136.4514
675.9595	136.1023
676.1141	133.2836
676.2686	130.3432
676.4231	126.0096
676.5776	131.5539
676.7321	123.182
676.8866	125.8834
677.041	127.0068
677.1955	132.0597
677.35	132.7655
677.5044	123.6502
677.6589	125.9785
677.8133	132.8949
677.9677	123.8474
678.1221	126.3003
678.2766	127.6554
678.4309	130.2224
678.5853	119.4724
678.7397	125.9082
678.8941	124.6998
679.0485	128.8453
679.2028	125.3218
679.3571	127.8434
679.5115	122.799
679.6658	126.8666
679.8201	124.8889
679.9744	120.5938
680.1288	120.6323
680.2831	118.7605
680.4373	119.5714
680.5916	119.0238
680.7459	124.0564
680.9001	125.6468
681.0544	124.8139
681.2087	117.1422
681.3629	121.608
681.5171	126.1475
681.6713	128.4987
681.8256	114.5257
681.9797	116.7672
682.134	120.2727
682.2881	121.2414
682.4423	121.6571
682.5965	121.2581
682.7507	123.7322
682.9048	122.5161
683.059	117.7461
683.2131	121.7533
683.3672	115.5612
683.5213	115.2136
683.6754	113.4967
683.8295	115.9962
683.9836	113.2853
684.1377	110.1706
684.2918	113.082
684.4459	117.3223
684.5999	115.6354
684.754	114.1679
684.908	118.0235
685.062	118.08
685.2161	115.5612
685.3701	114.4349
685.5241	118.1797
685.6781	113.5694
685.8321	114.2921
685.9861	113.9647
686.14	105.0165
686.294	109.0718
686.4479	112.9244
686.6019	104.2932
686.7559	86.42017
686.9098	80.64519
687.0637	81.57001
687.2176	82.7938
687.3715	83.52323
687.5254	88.81438
687.6793	91.52735
687.8332	89.36821
687.9871	95.54359
688.1409	100.0527
688.2947	103.1922
688.4486	103.8298
688.6024	96.28731
688.7563	92.76588
688.9101	93.27104
689.0639	92.81919
689.2177	93.64186
689.3715	90.4154
689.5253	96.50896
689.6791	95.45493
689.8328	97.14577
689.9866	97.4979
690.1403	93.12833
690.2941	97.26245
690.4478	98.99039
690.6015	97.1994
690.7552	97.94398
690.9089	98.31336
691.0626	96.56081
691.2164	102.9957
691.37	103.3301
691.5237	95.55409
691.6774	94.86701
691.831	98.64139
691.9847	102.1601
692.1383	100.1344
692.2919	96.40436
692.4456	98.20584
692.5992	100.2117
692.7527	99.21533
692.9064	95.96782
693.0599	97.27742
693.2136	97.47939
693.3671	98.15624
693.5207	95.76863
693.6742	89.6604
693.8278	95.77569
693.9813	92.35139
694.1348	94.77925
694.2883	98.65222
694.4418	100.6091
694.5953	99.26604
694.7488	100.7542
694.9023	95.86785
695.0558	98.37672
695.2093	95.50531
695.3627	99.45782
695.5162	100.4205
695.6696	95.79636
695.8231	94.64181
695.9764	95.39709
696.1299	100.2163
696.2833	104.1717
696.4367	101.3145
696.5901	108.4185
696.7435	105.689
696.8968	104.6727
697.0502	106.9267
697.2036	104.1015
697.3569	102.3467
697.5102	96.31007
697.6635	100.9896
697.8168	93.49255
697.9702	96.51501
698.1235	98.3935
698.2768	95.25136
698.4301	96.75793
698.5833	100.4883
698.7366	98.57693
698.8898	95.23923
699.0431	100.1696
699.1964	92.70999
699.3495	93.71113
699.5028	96.53764
699.656	91.28375
699.8092	92.29132
699.9624	91.06363
700.1156	90.50057
700.2688	96.09322
700.4219	93.25896
700.5751	93.08241
700.7283	90.89231
700.8814	93.95686
701.0345	91.29784
701.1877	94.52991
701.3408	94.96653
701.4939	94.78848
701.647	91.97019
701.8001	94.48624
701.9532	96.20495
702.1063	96.81316
702.2593	94.3013
702.4124	94.69836
702.5654	92.92297
702.7184	93.82378
702.8715	90.29576
703.0245	92.55975
703.1776	100.3671
703.3305	95.62756
703.4835	94.49007
703.6365	100.8036
703.7895	92.45368
703.9424	93.38084
704.0954	92.70333
704.2484	91.45829
704.4013	95.71056
704.5543	96.76131
704.7072	93.09624
704.8601	89.27759
705.013	90.49437
705.1659	95.03836
705.3188	95.99961
705.4717	98.09966
705.6246	94.57729
705.7774	94.69806
705.9303	92.30611
706.0831	97.44987
706.236	96.39082
706.3888	94.25356
706.5416	93.27169
706.6944	95.77404
706.8472	100.3826
707	99.14709
707.1528	98.0118
707.3056	97.87061
707.4583	96.62903
707.6111	94.82607
707.7639	97.26991
707.9166	98.64802
708.0693	95.81052
708.222	90.76437
708.3748	96.21295
708.5275	96.08344
708.6802	92.15228
708.8328	96.65674
708.9855	94.30241
709.1382	88.22041
709.2909	94.14349
709.4435	96.05183
709.5962	96.97472
709.7488	90.87782
709.9014	88.66663
710.054	93.43839
710.2067	95.01988
710.3593	93.54816
710.5118	96.6571
710.6644	94.04994
710.817	93.1413
710.9695	94.7819
711.1221	96.50893
711.2747	92.96211
711.4272	94.08393
711.5797	94.28519
711.7322	90.09566
711.8848	92.48271
712.0373	90.5985
712.1898	86.30298
712.3422	83.71222
712.4948	86.99734
712.6472	91.71301
712.7996	94.404
712.9521	94.2746
713.1046	91.23485
713.257	92.38132
713.4094	96.48643
713.5618	98.97255
713.7142	97.84018
713.8666	92.97802
714.019	91.54903
714.1714	97.5546
714.3237	91.48248
714.4761	86.21894
714.6285	89.7372
714.7808	86.92978
714.9331	83.16891
715.0854	84.66766
715.2378	84.50665
715.3901	87.20284
715.5424	91.84463
715.6947	94.59949
715.8469	90.99792
715.9992	87.10341
716.1515	88.80322
716.3037	81.21992
716.456	80.65478
716.6082	79.38267
716.7604	81.42621
716.9127	69.88387
717.0649	74.2058
717.2171	73.52726
717.3693	67.30039
717.5214	70.09624
717.6736	78.40623
717.8258	78.42207
717.978	69.7773
718.1301	68.82953
718.2822	75.30321
718.4344	72.36524
718.5865	72.00748
718.7386	67.38426
718.8907	69.83505
719.0428	75.90276
719.1949	69.05849
719.3469	70.14191
719.499	67.99516
719.6511	75.57845
719.8031	72.93792
719.9551	69.17254
720.1072	65.21166
720.2592	69.53676
720.4112	67.28358
720.5632	70.10358
720.7152	75.65148
720.8672	77.62939
721.0192	74.13985
721.1711	79.61965
721.3231	80.63112
721.475	86.24721
721.627	82.89649
721.7789	86.51561
721.9308	81.36962
722.0828	78.7273
722.2347	78.9872
722.3866	79.8271
722.5385	77.94375
722.6903	77.93386
722.8422	77.84023
722.9941	79.23609
723.1459	76.07133
723.2977	75.22889
723.4496	68.19265
723.6014	69.86781
723.7532	64.45036
723.905	68.17357
724.0568	69.78494
724.2086	69.86721
724.3604	67.26955
724.5121	65.00018
724.6639	66.54199
724.8157	69.16135
724.9674	71.00968
725.1191	70.71294
725.2709	70.60538
725.4226	65.7681
725.5743	66.76781
725.726	71.34628
725.8777	68.46925
726.0294	69.52924
726.181	70.35153
726.3327	70.64539
726.4844	66.91267
726.636	72.30728
726.7877	72.75595
726.9393	71.10588
727.0909	69.49982
727.2425	79.53239
727.3941	74.6609
727.5457	66.84293
727.6973	63.18776
727.8488	67.75947
728.0004	65.30786
728.1519	70.05104
728.3035	70.45734
728.455	75.98796
728.6066	76.05729
728.7581	73.29271
728.9095	66.47781
729.0611	67.20338
729.2126	69.33034
729.364	69.70226
729.5155	71.12135
729.667	72.73447
729.8184	72.28427
729.9698	69.45168
730.1213	73.25
730.2727	70.69936
730.4241	69.60724
730.5756	71.82858
730.7269	68.69187
730.8784	67.57314
731.0297	69.44897
731.1811	72.61044
731.3325	74.01472
731.4838	71.2114
731.6351	72.49181
731.7865	76.04382
731.9378	73.49016
732.0891	74.18471
732.2404	74.86594
732.3917	78.20084
732.543	74.2645
732.6943	76.47099
732.8456	81.26902
732.9968	75.58092
733.1481	75.63811
733.2993	79.20963
733.4506	75.64761
733.6018	71.56971
733.753	73.03902
733.9042	73.7918
734.0554	75.80872
734.2066	78.87294
734.3578	75.99039
734.509	72.65594
734.6602	80.33949
734.8113	70.2379
734.9624	70.223
735.1136	77.87272
735.2647	76.97199
735.4158	72.31383
735.5669	72.99831
735.718	79.78143
735.8691	74.77119
736.0201	70.15582
736.1713	75.12653
736.3223	72.50098
736.4733	70.1885
736.6244	72.93855
736.7755	73.15013
736.9265	74.96162
737.0775	72.74407
737.2285	76.93652
737.3795	83.89909
737.5305	79.56621
737.6815	75.3267
737.8324	75.87763
737.9834	73.81425
738.1343	74.71465
738.2853	72.06976
738.4362	75.2384
738.5871	76.16042
738.738	73.75269
738.8889	72.14123
739.0399	70.30849
739.1907	72.89201
739.3416	72.88866
739.4925	72.88087
739.6433	73.15486
739.7942	77.22642
739.945	73.60619
740.0958	70.04007
740.2467	70.26373
740.3975	75.35304
740.5483	76.1661
740.6991	76.96196
740.8499	76.06072
741.0007	78.58956
741.1514	72.67137
741.3022	71.43714
741.4529	74.36664
741.6036	76.1201
741.7544	77.68584
741.9051	74.90002
742.0558	77.00114
742.2065	69.88603
742.3572	70.06721
742.5079	73.32213
742.6586	74.51987
742.8093	75.09473
742.9599	73.26138
743.1105	74.90595
743.2612	77.60083
743.4118	78.52174
743.5624	85.82507
743.7131	75.16161
743.8636	72.299
744.0142	69.42907
744.1648	68.78485
744.3154	73.57285
744.4659	72.05801
744.6165	72.81548
744.767	67.91805
744.9176	79.27797
745.0681	73.11016
745.2186	70.93063
745.3691	67.13459
745.5197	71.56036
745.6702	73.13125
745.8206	69.76202
745.9711	71.44739
746.1215	74.11456
746.272	71.34586
746.4224	65.10748
746.5729	65.29314
746.7233	68.81488
746.8737	74.00893
747.0241	74.08614
747.1745	73.46362
747.3249	76.61095
747.4753	71.70831
747.6257	69.76016
747.776	66.72686
747.9264	69.53937
748.0767	70.06949
748.2271	75.53613
748.3774	68.17853
748.5276	71.13839
748.678	67.71022
748.8282	68.51452
748.9786	66.34006
749.1288	68.87794
749.2791	69.61459
749.4294	72.1273
749.5796	71.464
749.7299	65.96571
749.8801	70.73484
750.0303	72.03199
750.1805	71.50136
750.3307	68.43063
750.4809	65.39104
750.6311	66.72784
750.7813	66.38076
750.9314	64.39147
751.0816	61.84462
751.2318	65.52089
751.3818	70.74551
751.532	69.60584
751.6821	66.5188
751.8322	70.55003
751.9823	66.27322
752.1324	68.32382
752.2825	65.70248
752.4326	62.30391
752.5826	66.25515
752.7327	64.54163
752.8827	61.89713
753.0327	60.89019
753.1827	66.61195
753.3328	67.46491
753.4828	61.93458
753.6328	73.1597
753.7828	69.10915
753.9327	60.81079
754.0827	69.55831
754.2327	66.05477
754.3826	62.58178
754.5325	65.09599
754.6825	63.95454
754.8324	70.69179
754.9823	67.18452
755.1322	58.92578
755.2821	64.86649
755.432	57.41577
755.5818	57.4263
755.7318	55.51854
755.8816	61.92649
756.0314	64.33818
756.1813	63.28727
756.3311	67.86022
756.4809	64.43069
756.6307	61.03738
756.7805	61.90061
756.9303	60.84454
757.0801	60.43898
757.2299	64.69079
757.3796	60.75328
757.5294	61.91951
757.6791	61.64477
757.8289	61.56534
757.9786	64.07704
758.1283	61.59629
758.278	58.77017
758.4277	59.87545
758.5773	54.31114
758.7271	56.65631
758.8767	59.24726
759.0264	58.83978
759.176	57.98183
759.3256	52.48902
759.4753	45.86017
759.6249	37.79576
759.7745	32.88881
759.9241	28.26893
760.0737	28.93916
760.2233	27.43077
760.3729	21.57892
760.5224	22.73379
760.6719	23.69995
760.8215	20.27874
760.971	25.98479
761.1205	23.52843
761.2701	27.07945
761.4196	36.48115
761.5691	37.63572
761.7186	37.74616
761.868	44.07929
762.0175	43.56687
762.167	43.50858
762.3164	43.0918
762.4659	37.45538
762.6153	32.82383
762.7647	29.74323
762.9141	30.58259
763.0635	31.24549
763.2129	29.71308
763.3623	26.13293
763.5117	28.67743
763.661	30.91975
763.8104	30.3028
763.9597	37.31414
764.1091	39.00662
764.2584	34.1025
764.4077	39.22265
764.557	36.41861
764.7063	38.38774
764.8556	41.37164
765.0049	35.40894
765.1541	37.18717
765.3034	40.47264
765.4526	40.37304
765.6019	43.74571
765.7511	41.28992
765.9003	42.99264
766.0496	41.7954
766.1987	42.50356
766.348	44.44416
766.4971	41.38002
766.6463	45.83092
766.7955	47.52295
766.9446	47.11779
767.0938	46.62342
767.2429	49.13754
767.392	49.82401
767.5411	48.57544
767.6902	49.42136
767.8394	47.93856
767.9884	49.16119
768.1375	49.84429
768.2866	48.08228
768.4356	48.53374
768.5847	49.38763
768.7337	50.0503
768.8828	51.30938
769.0317	43.44415
769.1808	50.67757
769.3298	48.2146
769.4788	51.11378
769.6277	48.45921
769.7767	51.86916
769.9257	52.85789
770.0746	55.36422
770.2236	48.79086
770.3725	49.13416
770.5214	47.10705
770.6703	52.75399
770.8193	51.22001
770.9681	51.11896
771.1171	53.1578
771.2659	43.1411
771.4148	43.96351
771.5637	45.58854
771.7125	48.61558
771.8613	49.32433
772.0101	46.63667
772.159	47.32832
772.3078	45.07675
772.4566	53.23275
772.6054	49.41854
772.7542	49.74102
772.903	48.38848
773.0517	43.57367
773.2004	45.62102
773.3492	50.24112
773.4979	49.05224
773.6467	47.12913
773.7953	48.56749
773.944	49.97586
774.0928	51.37531
774.2415	53.6027
774.3901	50.53697
774.5388	48.70057
774.6874	44.80118
774.8361	44.55142
774.9847	40.84631
775.1334	45.66252
775.282	47.52202
775.4305	46.97476
775.5792	47.36377
775.7277	50.01038
775.8763	45.25277
776.0249	43.54281
776.1735	47.98188
776.322	51.61962
776.4705	49.2508
776.6191	54.03941
776.7676	48.6464
776.9161	46.05096
777.0646	48.78602
777.2131	45.81612
777.3616	45.18225
777.5101	52.15923
777.6585	43.96068
777.8069	44.16467
777.9554	42.94271
778.1038	46.19065
778.2523	44.48574
778.4007	46.83732
778.5491	48.69677
778.6974	49.2176
778.8459	45.89448
778.9942	46.71822
779.1426	47.3541
779.291	45.53898
779.4393	45.65396
779.5876	45.00429
779.736	45.81032
779.8843	41.67252
780.0326	43.37703
780.1809	44.87233
780.3292	46.08858
780.4775	42.72766
780.6257	40.86197
780.774	44.63558
780.9222	44.38373
781.0704	41.54294
781.2187	44.43237
781.3669	51.21922
781.5151	46.39742
781.6633	42.98362
781.8115	42.77481
781.9597	46.43411
782.1078	43.44131
782.256	42.36615
782.4042	45.14168
782.5523	48.45008
782.7004	45.2158
782.8486	41.34689
782.9967	44.79528
783.1448	42.97357
783.2929	44.27444
783.441	41.77799
783.5891	43.13616
783.7371	41.99347
783.8851	39.44539
784.0332	41.15368
784.1812	40.27958
784.3293	43.54149
784.4773	43.82358
784.6253	46.91861
784.7733	45.43959
784.9213	43.64363
785.0692	41.99782
785.2172	45.65815
785.3652	42.34997
785.5131	41.95608
785.6611	39.89318
785.809	42.33361
785.9569	40.33783
786.1048	41.85749
786.2527	42.70032
786.4006	43.91364
786.5485	39.68587
786.6964	40.85316
786.8442	44.4867
786.9921	51.28734
787.1399	43.08009
787.2877	39.52184
787.4355	40.70993
787.5833	34.23734
787.7311	39.1809
787.8789	41.88207
788.0267	37.94662
788.1745	37.19599
788.3223	39.68366
788.47	43.35912
788.6177	46.18909
788.7654	43.76868
788.9132	41.85239
789.0609	44.71238
789.2086	31.76635
789.3563	32.6636
789.504	36.00544
789.6517	37.01779
789.7993	37.06183
789.947	38.38714
790.0946	39.45274
790.2422	37.60311
790.3898	39.16691
790.5375	39.5245
790.6851	40.07149
790.8326	38.33613
790.9802	42.15725
791.1278	42.15295
791.2754	41.64881
791.423	39.88854
791.5705	43.55772
791.718	42.53392
791.8655	37.56935
792.0131	35.97509
792.1606	42.74639
792.308	37.1342
792.4556	38.79843
792.603	44.78014
792.7505	40.0005
792.8979	37.55612
793.0454	37.21157
793.1928	36.48987
793.3403	35.49676
793.4877	37.11464
793.6351	36.31377
793.7825	33.29633
793.9299	40.33814
794.0772	38.63457
794.2246	39.61149
794.3719	39.10182
794.5193	39.80507
794.6666	40.05849
794.814	38.25588
794.9613	38.2999
795.1086	37.27515
795.2559	42.40888
795.4032	41.92701
795.5505	37.83737
795.6978	33.63939
795.845	35.71236
795.9922	39.2255
796.1395	33.12496
796.2867	38.00318
796.4339	35.71083
796.5811	33.79486
796.7283	42.7055
796.8755	36.19121
797.0227	31.47768
797.1699	36.54999
797.317	40.43969
797.4642	35.49889
797.6113	35.05538
797.7584	39.79864
797.9056	37.37271
798.0527	39.98816
798.1998	32.21709
798.3469	37.16896
798.494	39.67926
798.641	32.83016
798.7881	35.54454
798.9351	37.31292
799.0822	33.13452
799.2292	30.81074
799.3762	35.3975
799.5232	36.2973
799.6702	40.73225
799.8172	40.50257
799.9642	35.60142
800.1111	35.67716
800.2581	31.76794
800.4051	31.55368
800.552	30.49806
800.6989	33.21551
800.8458	34.72443
800.9927	37.2781
801.1396	38.03408
801.2866	36.91951
801.4334	37.0271
801.5803	34.57733
801.7272	30.79183
801.874	35.52712
802.0209	34.4668
802.1677	35.68449
802.3145	32.01369
802.4613	32.57379
802.6081	32.4144
802.7549	33.70494
802.9017	34.49774
803.0485	36.36592
803.1952	36.7566
803.342	36.87983
803.4887	34.42543
803.6354	33.6353
803.7822	30.57443
803.9289	36.89924
804.0756	35.29918
804.2223	36.41106
804.369	34.39558
804.5156	29.38165
804.6623	26.4518
804.8089	29.9208
804.9556	36.81409
805.1022	39.26545
805.2488	39.45352
805.3954	34.94913
805.542	29.8977
805.6886	37.38852
805.8352	36.02216
805.9818	33.40619
806.1283	31.92281
806.2749	34.71822
806.4214	32.31771
806.5679	33.27888
806.7145	39.41868
806.861	33.00117
807.0074	32.66435
807.154	35.13483
807.3004	30.46083
807.4469	34.44062
807.5934	32.87839
807.7398	32.257
807.8862	30.91801
808.0327	35.32391
808.1791	31.81667
808.3255	29.83024
808.4719	29.25594
808.6183	28.53098
808.7647	25.95538
808.9111	31.45282
809.0574	31.3545
809.2037	34.22361
809.3501	35.56467
809.4965	29.43403
809.6428	28.6405
809.7891	30.38728
809.9354	26.44807
810.0817	29.43827
810.2279	34.69618
810.3742	34.97458
810.5204	30.8364
810.6667	27.21976
810.8129	26.24057
810.9592	31.11367
811.1054	32.87386
811.2516	33.03778
811.3978	32.31519
811.5439	30.76629
811.6901	26.97201
811.8363	29.40976
811.9825	24.75233
812.1286	29.59929
812.2748	24.09016
812.4209	21.39253
812.567	25.03802
812.7131	26.35493
812.8592	33.65459
813.0053	30.78908
813.1514	26.37074
813.2974	21.91294
813.4435	25.18591
813.5895	22.26253
813.7356	20.75443
813.8816	29.98761
814.0276	28.62056
814.1736	23.92983
814.3196	25.70866
814.4656	23.79499
814.6116	28.74278
814.7576	23.03603
814.9035	21.44722
815.0494	28.35384
815.1954	24.23043
815.3413	23.10269
815.4872	27.16631
815.6331	25.03222
815.779	22.94641
815.9249	27.94044
816.0707	25.03765
816.2166	19.1248
816.3625	19.05272
816.5083	22.28582
816.6542	19.60391
816.8	26.2156
816.9458	23.93107
817.0916	24.63728
817.2374	24.63347
817.3832	22.18067
817.5289	24.28068
817.6747	20.48313
817.8204	22.26135
817.9662	21.45696
818.1119	21.71618
818.2576	23.51774
818.4034	27.62502
818.5491	20.20738
818.6948	21.81495
818.8405	20.34513
818.9861	16.2153
819.1318	24.15618
819.2774	21.96536
819.423	25.15114
819.5687	16.27023
819.7143	20.43957
819.8599	19.8997
820.0055	20.49222
820.1511	26.52322
820.2967	23.88055
820.4422	24.56743
820.5878	27.37736
820.7333	25.3582
820.8788	24.97509
821.0244	26.5128
821.1699	22.22863
821.3154	23.05371
821.4609	23.36223
821.6064	24.2811
821.7519	28.72637
821.8973	25.64192
822.0428	23.90702
822.1882	21.48877
822.3337	25.55763
822.4791	22.41777
822.6245	21.66994
822.7699	23.23801
822.9153	18.90454
823.0607	20.17981
823.2061	18.81234
823.3514	19.88546
823.4968	17.30539
823.6422	17.49026
823.7875	22.14853
823.9328	22.22321
824.0781	23.2585
824.2234	22.21386
824.3687	21.46513
824.514	21.55459
824.6592	24.33935
824.8045	26.76686
824.9498	23.94653
825.095	23.39931
825.2402	24.57676
825.3854	21.10212
825.5306	26.50063
825.6758	18.92567
825.821	17.85384
825.9662	20.99967
826.1114	18.74251
826.2565	24.77043
826.4017	21.25226
826.5468	24.74368
826.692	20.21831
826.837	22.49487
826.9822	19.83378
827.1273	20.45299
827.2723	24.16612
827.4174	19.81749
827.5625	20.31727
827.7075	17.0025
827.8526	22.19666
827.9976	17.07895
828.1426	18.48581
828.2877	14.29608
828.4327	15.79871
828.5776	21.08068
828.7227	20.67861
828.8676	18.8995
829.0126	22.67219
829.1575	20.57922
829.3024	22.85643
829.4474	21.91507
829.5923	18.96933
829.7372	24.10109
829.8821	21.94018
830.027	20.2589
830.1719	18.81414
830.3168	20.74678
830.4616	23.02234
830.6064	23.36868
830.7513	20.92324
830.8961	20.52579
831.041	24.248
831.1857	20.08188
831.3306	24.8488
831.4753	21.76575
831.6201	21.45172
831.7649	20.74159
831.9096	22.06478
832.0544	19.74444
832.1991	22.028
832.3438	18.36408
832.4885	21.39734
832.6332	22.85366
832.778	20.38476
832.9226	22.27062
833.0673	21.98902
833.2119	20.38976
833.3566	15.572
833.5012	20.47201
833.6459	23.91999
833.7905	23.32605
833.9351	17.38371
834.0797	15.80767
834.2243	20.60348
834.3688	20.88335
834.5134	25.5251
834.658	21.1965
834.8026	24.11472
834.9471	18.18646
835.0916	23.23232
835.2361	15.48343
835.3806	21.0895
835.5251	20.32292
835.6696	17.14663
835.8141	18.66264
835.9586	19.63893
836.103	21.90894
836.2474	24.07628
836.3918	22.37807
836.5363	24.60659
836.6807	24.72945
836.8251	20.00902
836.9695	22.25655
837.1138	23.52291
837.2582	18.96431
837.4026	21.63307
837.5469	20.82803
837.6913	24.44606
837.8356	20.50776
837.9799	19.94398
838.1242	22.03951
838.2686	14.22
838.4128	15.61982
838.5571	20.87458
838.7014	18.2837
838.8456	19.27048
838.9899	25.89538
839.1341	24.68659
839.2783	20.26512
839.4225	19.59945
839.5667	20.42973
839.7109	24.04346
839.8551	25.78612
839.9993	20.41315
840.1434	18.28997
840.2876	16.78194
840.4317	21.0839
840.5759	21.40926
840.72	24.0986
840.8641	24.01022
841.0082	18.98425
841.1523	21.03534
841.2963	23.47155
841.4404	20.18629
841.5845	14.9279
841.7285	26.27662
841.8726	21.47784
842.0165	21.09553
842.1606	21.79448
842.3046	22.37114
842.4485	20.91674
842.5925	20.39018
842.7365	17.98264
842.8805	19.55906
843.0244	16.90414
843.1684	19.49093
843.3123	15.08341
843.4562	17.39005
843.6002	18.26014
843.744	26.31318
843.8879	24.93371
844.0318	20.73146
844.1757	20.80177
844.3195	22.78937
844.4634	21.46257
844.6072	22.31433
844.751	21.72747
844.8948	18.37367
845.0386	16.49318
845.1824	20.5366
845.3262	22.45451
845.47	23.62272
845.6138	17.28855
845.7575	19.67375
845.9012	18.58538
846.045	12.72066
846.1887	20.23942
846.3324	20.58679
846.4761	14.00551
846.6198	15.06635
846.7635	17.67932
846.9071	15.23866
847.0508	23.03383
847.1944	24.14208
847.3381	22.69336
847.4817	19.68708
847.6253	20.29716
847.7689	17.70456
847.9125	20.06422
848.0561	20.2235
848.1996	23.61312
848.3432	21.76966
848.4868	18.03622
848.6303	17.91928
848.7738	17.53519
848.9174	18.31541
849.0609	16.73309
849.2043	19.15906
849.3478	15.01167
849.4913	14.04768
849.6348	15.30451
849.7782	18.745
849.9217	17.63903
850.0651	21.02051
850.2086	20.4779
850.3519	20.12487
850.4954	21.97212
850.6387	19.24099
850.7821	15.79494
850.9255	16.83104
851.0688	22.79461
851.2122	16.21004
851.3555	15.18427
851.4988	15.1735
851.6422	17.80272
851.7855	18.69075
851.9288	14.8649
852.0721	16.45607
852.2153	15.57657
852.3586	18.04799
852.5018	19.12197
852.6451	19.35521
852.7883	15.288
852.9315	14.82235
853.0748	15.47124
853.218	11.63073
853.3611	17.29037
853.5043	17.7155
853.6475	13.19806
853.7906	15.4947
853.9338	16.07735
854.0769	15.0878
854.22	14.3051
854.3632	12.94991
854.5063	11.04399
854.6494	14.97152
854.7924	14.46924
854.9355	14.47909
855.0786	13.96956
855.2216	17.5651
855.3647	22.79327
855.5077	14.99602
855.6507	15.28814
855.7937	16.34681
855.9367	14.87443
856.0797	21.21303
856.2227	14.29714
856.3657	13.43009
856.5086	14.82872
856.6516	20.3216
856.7945	18.49432
856.9374	18.22552
857.0803	18.24153
857.2232	20.08625
857.3661	16.17579
857.509	13.91732
857.6519	13.74255
857.7947	14.65555
857.9376	18.01356
858.0804	17.83679
858.2232	22.17561
858.366	17.30946
858.5089	15.91987
858.6516	17.35911
858.7944	17.61018
858.9372	16.30787
859.08	16.19179
859.2227	14.35905
859.3654	11.70799
859.5082	12.88851
859.6509	15.93928
859.7936	18.49968
859.9363	15.74104
860.079	15.13064
860.2217	15.10038
860.3643	19.23553
860.507	18.44542
860.6496	17.29661
860.7922	17.84006
860.9349	16.48696
861.0775	13.81139
861.2201	15.13132
861.3627	16.77683
861.5052	16.97866
861.6478	16.57829
861.7904	16.85238
861.9329	18.41581
862.0755	16.35137
862.218	14.24563
862.3605	13.85906
862.503	15.21928
862.6455	17.68938
862.788	18.14344
862.9305	17.84489
863.0729	15.81628
863.2154	15.46487
863.3578	18.67738
863.5002	13.90976
863.6426	9.679066
863.7851	16.3565
863.9275	15.29934
864.0698	16.82118
864.2122	15.3943
864.3546	16.13681
864.4969	17.97672
864.6393	18.27134
864.7816	14.3622
864.924	17.33188
865.0662	18.99055
865.2086	18.95906
865.3508	16.21432
865.4931	17.50965
865.6354	13.76936
865.7776	15.07634
865.9199	14.65111
866.0621	17.80363
866.2043	15.77429
866.3466	11.17653
866.4888	8.709198
866.6309	14.18065
866.7731	14.3827
866.9153	9.279387
867.0574	15.23922
867.1996	13.80735
867.3417	11.29934
867.4839	12.13422
867.626	19.75717
867.7681	21.63797
867.9102	21.58291
868.0522	19.16989
868.1943	15.24014
868.3364	17.13923
868.4785	15.75812
868.6205	11.43991
868.7625	14.9768
868.9045	20.69267
869.0465	15.83876
869.1885	11.96418
869.3305	11.5429
869.4725	11.57204
869.6144	16.44144
869.7564	13.00113
869.8983	10.03583
870.0403	15.56377
870.1822	17.4363
870.3241	16.28336
870.466	16.78709
870.6079	15.2935
870.7498	18.71736
870.8916	11.99354
871.0335	16.21444
871.1754	16.36305
871.3171	12.50912
871.459	9.2476
871.6008	16.36519
871.7426	16.85535
871.8844	18.12069
872.0262	17.7679
872.1679	12.10407
872.3097	17.93725
872.4514	14.50001
872.5931	12.47409
872.7349	11.08656
872.8766	11.10042
873.0183	16.26985
873.16	14.21424
873.3017	12.4487
873.4434	11.38269
873.585	14.02818
873.7266	12.97287
873.8683	11.69116
874.0099	14.66292
874.1516	12.86906
874.2932	14.81323
874.4348	21.07841
874.5763	16.37741
874.7179	19.1486
874.8594	17.01054
875.001	12.99318
875.1425	17.4483
875.2841	10.3886
875.4256	9.823429
875.5671	11.55066
875.7086	13.06259
875.85	10.00459
875.9915	10.01084
876.133	8.617726
876.2744	12.1453
876.4159	12.35695
876.5573	10.99865
876.6987	11.29026
876.8401	8.7559
876.9815	13.19203
877.1229	15.22581
877.2643	13.5378
877.4056	15.0967
877.547	12.97321
877.6884	8.039125
877.8297	8.821456
877.971	11.29186
878.1123	13.44338
878.2536	15.5109
878.3949	10.35403
878.5362	11.64701
878.6774	9.889571
878.8187	16.41198
878.9599	10.09784
879.1011	9.473139
879.2424	12.71219
879.3836	14.62
879.5248	16.88059
879.666	9.697469
879.8071	13.22796
879.9483	11.77442
880.0895	9.50308
880.2306	13.13921
880.3718	10.2156
880.5129	16.08325
880.654	12.53262
880.7951	11.81058
880.9362	13.27753
881.0773	15.72701
881.2183	16.12625
881.3594	9.675035
881.5004	8.486689
881.6414	8.474777
881.7825	13.98161
881.9235	11.6804
882.0645	10.78454
882.2054	15.42162
882.3464	11.75594
882.4874	15.12759
882.6284	15.80049
882.7693	13.96174
882.9103	16.80759
883.0512	15.51113
883.1921	12.72458
883.333	12.13644
883.4739	10.09726
883.6147	8.272009
883.7556	9.915021
883.8965	11.47826
884.0374	12.51923
884.1782	8.313816
884.319	10.07533
884.4598	10.84579
884.6006	13.3527
884.7414	14.74411
884.8822	12.00291
885.0229	12.42014
885.1637	13.50933
885.3044	13.1166
885.4452	10.66115
885.5859	13.63616
885.7266	16.3679
885.8673	12.26701
886.008	10.89143
886.1487	14.79534
886.2894	11.89516
886.43	9.729817
886.5707	7.569652
886.7113	9.473369
886.8519	10.71217
886.9926	6.55306
887.1331	8.510866
887.2737	10.21384
887.4143	9.007605
887.5549	10.10924
887.6954	10.98824
887.836	10.60226
887.9765	9.418263
888.1171	11.71141
888.2576	12.89023
888.3981	11.63238
888.5386	8.600097
888.679	14.9305
888.8195	16.87674
888.96	11.52261
889.1004	8.278929
889.2408	11.47001
889.3813	7.723087
889.5217	8.545285
889.6621	7.737403
889.8025	13.33432
889.9429	10.45212
890.0833	11.44344
890.2236	10.74812
890.364	11.45106
890.5043	9.872849
890.6446	11.85751
890.7849	15.19197
890.9252	7.833206
891.0655	7.131313
891.2058	14.82643
891.3461	14.32329
891.4863	11.17931
891.6266	13.12696
891.7668	9.700864
891.907	10.9601
892.0472	10.25693
892.1874	7.891326
892.3276	14.88743
892.4678	12.71704
892.608	10.96698
892.7481	11.53095
892.8883	11.94277
893.0284	15.34244
893.1685	10.65084
893.3087	5.660348
893.4487	7.063116
893.5889	10.48365
893.7289	16.67171
893.869	10.18194
894.009	11.40818
894.1491	9.208013
894.2891	4.656897
894.4291	13.19544
894.5692	10.19865
894.7092	8.624229
894.8491	9.718896
894.9891	12.54884
895.1291	11.61927
895.269	11.02952
895.409	10.09511
895.549	15.30439
895.6888	11.68442
895.8288	6.833663
895.9687	5.353759
896.1086	6.148358
896.2484	9.39978
896.3883	9.953056
896.5281	10.60201
896.668	6.773927
896.8079	7.858006
896.9476	10.4019
897.0875	8.927552
897.2272	6.831602
897.3671	10.05568
897.5068	12.20602
897.6466	8.397299
897.7864	5.163938
897.9261	9.974378
898.0658	10.37573
898.2056	11.75989
898.3453	5.756767
898.4849	7.730318
898.6246	7.208681
898.7643	9.752525
898.904	10.45355
899.0436	7.229348
899.1833	7.412803
899.3229	8.927316
899.4625	13.09304
899.6021	10.64368
899.7417	9.444698
899.8813	14.31776
900.0209	9.561137
900.1605	7.401534
900.3	9.400413
900.4395	9.207007
900.579	4.811572
900.7186	10.16912
900.8581	7.677536
900.9976	5.71179
901.1371	3.52716
901.2766	5.322935
901.416	3.134331
901.5555	5.821578
901.6949	5.501857
901.8344	6.206073
901.9738	6.918961
902.1132	6.539354
902.2526	6.71376
902.3919	7.642939
902.5313	8.459749
902.6707	8.771293
