SPECTRUM DATA FILE
SpectrumCount:	1
PixelCount:	3648
UserName:	ToughBook User
SampleName:	
LightSource:	
Comments:	
DeviceName:	Qwave
DeviceManufacturer:	Broadcom
DeviceSerialNo:	11311

Name:	last spectrum
Date:	2024-05-02T15:21:34.6426656+02:00
ExposureTime:	0.02
TemporalAvg:	1
IntensityUnit:	normalizedCounts
CCDLoadLevel:	0.4240981
Temperature:	29.76636
DiagramColor:	200
ProcessingSteps:	335

Wavelength [nm]	Intensity1
334.421	104.4706
334.5891	110.3106
334.7573	101.0175
334.9254	105.493
335.0935	109.6449
335.2616	120.0999
335.4297	117.3737
335.5978	112.6542
335.7659	97.17959
335.934	91.66211
336.1021	87.58592
336.2701	91.47935
336.4382	92.33624
336.6063	95.42109
336.7744	96.59729
336.9424	90.82727
337.1105	83.17265
337.2785	93.25829
337.4466	106.5402
337.6146	107.1828
337.7827	115.0585
337.9507	111.1753
338.1187	106.725
338.2867	109.0772
338.4548	108.1475
338.6228	116.0495
338.7908	111.8165
338.9588	105.1066
339.1268	106.9197
339.2948	108.1051
339.4628	111.6861
339.6308	121.221
339.7988	129.6035
339.9667	132.4394
340.1347	127.3441
340.3027	125.7488
340.4707	123.5267
340.6386	124.6738
340.8066	119.6633
340.9745	117.4181
341.1425	119.3555
341.3104	117.9061
341.4784	116.3837
341.6463	118.6739
341.8142	124.5254
341.9821	128.6171
342.1501	132.8233
342.318	127.0712
342.4859	131.1545
342.6538	130.4285
342.8217	133.9789
342.9896	138.31
343.1575	137.5349
343.3254	138.4484
343.4933	127.4353
343.6612	124.4087
343.829	117.3067
343.9969	106.9272
344.1648	101.4695
344.3326	100.658
344.5005	104.2121
344.6683	116.1767
344.8362	124.1525
345.004	137.3805
345.1719	139.1437
345.3397	143.8557
345.5075	144.0966
345.6754	132.8241
345.8432	126.2384
346.011	123.5415
346.1788	124.5581
346.3466	128.1484
346.5144	131.1979
346.6822	142.2942
346.85	143.239
347.0178	136.8241
347.1856	127.1726
347.3534	126.2426
347.5211	122.4106
347.6889	119.1853
347.8567	134.9642
348.0244	139.692
348.1922	138.7867
348.3599	133.4325
348.5277	139.8095
348.6954	140.8168
348.8632	136.3057
349.0309	129.3017
349.1986	124.2208
349.3663	125.9242
349.5341	129.5456
349.7018	140.4185
349.8695	148.7364
350.0372	160.1997
350.2049	170.3016
350.3726	171.9619
350.5403	159.0275
350.7079	164.9114
350.8756	161.6531
351.0433	159.0636
351.211	147.5241
351.3786	148.3489
351.5463	158.1765
351.714	166.224
351.8816	164.0198
352.0493	153.867
352.2169	142.3907
352.3846	140.776
352.5522	134.9422
352.7198	147.0917
352.8875	164.1207
353.0551	170.6297
353.2227	178.5176
353.3903	176.9309
353.5579	180.4191
353.7255	192.2056
353.8931	186.9625
354.0607	181.1526
354.2283	181.3815
354.3958	192.4434
354.5634	196.4187
354.731	192.0354
354.8986	184.955
355.0661	189.4256
355.2337	182.0937
355.4012	172.8887
355.5688	177.9205
355.7363	179.4304
355.9039	173.3507
356.0714	178.7726
356.239	174.5076
356.4065	163.1157
356.574	147.2254
356.7415	141.0307
356.909	140.1907
357.0765	144.4601
357.244	145.335
357.4115	151.2649
357.579	160.2037
357.7465	155.2983
357.914	143.2313
358.0815	131.2934
358.249	116.3027
358.4164	125.5806
358.5839	124.3823
358.7513	133.5575
358.9188	154.0172
359.0862	174.3028
359.2537	185.3652
359.4211	197.2929
359.5886	205.2874
359.756	211.1759
359.9234	218.5076
360.0909	215.8254
360.2583	199.7153
360.4257	184.2852
360.5931	173.6506
360.7605	163.9143
360.9279	160.1393
361.0953	166.7261
361.2627	180.6401
361.4301	191.8501
361.5974	187.0257
361.7648	186.431
361.9322	172.9335
362.0995	173.8224
362.2669	198.3861
362.4343	215.7286
362.6016	229.5227
362.769	238.7906
362.9363	224.5472
363.1036	199.5007
363.271	179.9538
363.4383	188.4828
363.6056	202.6521
363.7729	224.4934
363.9402	233.7145
364.1075	234.6173
364.2748	224.5135
364.4421	214.6581
364.6094	192.0468
364.7767	197.3746
364.944	206.4077
365.1113	216.5467
365.2786	237.7847
365.4458	258.4916
365.6131	266.494
365.7803	274.8371
365.9476	277.0872
366.1148	277.6803
366.2821	267.6803
366.4493	267.7054
366.6166	254.8842
366.7838	256.775
366.951	259.8875
367.1182	267.5572
367.2855	270.8188
367.4527	270.1427
367.6199	258.7509
367.7871	251.4362
367.9543	238.2499
368.1215	241.3349
368.2886	246.7601
368.4558	246.8408
368.623	244.398
368.7902	240.3093
368.9573	254.1972
369.1245	280.5432
369.2917	289.8267
369.4588	287.3481
369.6259	289.2756
369.7931	296.3501
369.9602	310.442
370.1274	306.1332
370.2945	284.0767
370.4616	261.8282
370.6287	233.4162
370.7958	233.6186
370.963	259.0258
371.1301	293.2469
371.2971	316.0431
371.4643	330.6232
371.6313	327.0233
371.7984	298.1737
371.9655	254.5969
372.1326	229.207
372.2997	245.5141
372.4667	266.2431
372.6338	291.664
372.8008	296.9861
372.9679	281.2334
373.1349	262.7134
373.3019	232.0846
373.469	197.6232
373.636	190.724
373.803	218.114
373.9701	253.9973
374.1371	277.7379
374.3041	273.7448
374.4711	252.3988
374.6381	217.1463
374.8051	206.0513
374.9721	213.6745
375.1391	259.7712
375.3061	295.7997
375.473	333.5233
375.64	325.8077
375.8069	295.7516
375.9739	274.6233
376.1409	283.8232
376.3078	293.1116
376.4748	301.5069
376.6417	297.2204
376.8087	299.4468
376.9756	307.5444
377.1425	326.6495
377.3094	344.532
377.4763	357.1772
377.6432	367.8661
377.8102	377.5918
377.9771	383.2666
378.144	398.1897
378.3109	398.9157
378.4777	386.1424
378.6446	358.0217
378.8115	331.7626
378.9784	317.0674
379.1452	324.794
379.3121	319.1392
379.4789	307.8876
379.6458	290.1267
379.8127	284.6819
379.9795	305.9858
380.1463	343.8038
380.3131	373.7458
380.48	393.926
380.6468	379.6802
380.8136	381.2958
380.9804	393.2972
381.1472	384.9884
381.314	354.2039
381.4808	318.9905
381.6476	306.6558
381.8144	293.9577
381.9812	283.6387
382.148	273.6491
382.3147	267.5476
382.4815	251.7354
382.6483	235.5811
382.815	226.2107
382.9818	237.6462
383.1485	229.9195
383.3153	226.3916
383.482	225.3353
383.6487	227.6996
383.8155	233.7039
383.9822	239.0782
384.1489	268.6639
384.3156	314.5203
384.4823	356.9561
384.649	371.4349
384.8157	371.5974
384.9824	364.161
385.1491	360.4081
385.3158	358.8737
385.4825	352.6876
385.6491	324.3091
385.8158	296.903
385.9825	289.4583
386.1491	306.6432
386.3157	349.5287
386.4824	376.4079
386.649	373.8076
386.8157	359.6564
386.9823	333.222
387.1489	322.9194
387.3156	334.8579
387.4821	362.8474
387.6488	369.5338
387.8154	361.4597
387.982	338.8257
388.1486	328.4932
388.3152	336.2155
388.4818	344.1406
388.6483	328.4023
388.8149	324.4785
388.9815	349.2224
389.148	392.7847
389.3146	413.5479
389.4811	433.0805
389.6477	438.2995
389.8142	441.3458
389.9808	440.9211
390.1473	436.5382
390.3138	425.2598
390.4804	412.3633
390.6469	418.7771
390.8134	449.5174
390.9799	480.156
391.1464	512.7626
391.3129	523.5118
391.4794	500.1017
391.6459	491.2246
391.8124	480.1048
391.9789	444.6741
392.1453	416.5092
392.3118	416.8065
392.4782	406.3531
392.6447	370.9711
392.8112	324.44
392.9776	257.3608
393.144	198.3637
393.3105	164.5452
393.4769	164.1565
393.6433	196.8715
393.8098	256.455
393.9762	313.0601
394.1426	362.9332
394.309	399.0777
394.4754	414.754
394.6418	455.929
394.8082	484.3476
394.9746	509.4352
395.141	526.8518
395.3073	543.8391
395.4737	540.6838
395.64	522.6257
395.8064	524.6969
395.9728	496.3178
396.1391	439.4497
396.3055	374.0738
396.4718	315.5088
396.6381	258.6765
396.8045	211.3913
396.9708	206.0285
397.1371	250.773
397.3034	323.2166
397.4697	399.3315
397.636	476.5069
397.8023	537.2573
397.9686	586.3442
398.1349	611.3277
398.3012	623.6392
398.4675	621.9241
398.6337	631.4766
398.8	648.6642
398.9662	671.5363
399.1325	696.2777
399.2988	692.1379
399.465	686.5881
399.6313	676.8717
399.7975	665.7572
399.9637	692.9092
400.1299	719.4318
400.2961	718.0396
400.4624	689.8047
400.6286	684.3864
400.7948	685.0519
400.961	720.8347
401.1272	751.6599
401.2934	754.3771
401.4595	764.8331
401.6257	740.9122
401.7919	764.7862
401.9581	777.1646
402.1242	781.7351
402.2904	790.1157
402.4565	781.8392
402.6227	780.2187
402.7888	782.126
402.955	767.5623
403.1211	716.2953
403.2872	682.4384
403.4533	701.764
403.6194	758.6852
403.7856	805.8593
403.9517	815.3796
404.1177	813.5923
404.2838	776.2592
404.4499	719.9059
404.616	677.7078
404.7821	709.3714
404.9482	790.4734
405.1142	830.6255
405.2803	816.3319
405.4464	786.2363
405.6124	749.6613
405.7784	748.0835
405.9445	758.8723
406.1105	763.2709
406.2766	740.2641
406.4426	721.7636
406.6086	736.0668
406.7746	784.8936
406.9406	813.4041
407.1066	797.2827
407.2726	793.232
407.4386	801.3468
407.6046	786.9216
407.7706	786.7327
407.9366	791.0363
408.1025	824.1433
408.2685	870.6827
408.4344	864.644
408.6004	868.2783
408.7664	899.2141
408.9323	937.6488
409.0983	943.1045
409.2642	922.4082
409.4301	894.1042
409.596	862.8386
409.762	832.2557
409.9279	771.7627
410.0938	715.9781
410.2597	689.3168
410.4256	736.2405
410.5915	810.5194
410.7574	869.0778
410.9232	882.6354
411.0891	897.8674
411.255	918.5455
411.4209	950.475
411.5867	966.6667
411.7526	967.4283
411.9184	946.4437
412.0843	933.3939
412.2501	931.9719
412.4159	947.7159
412.5818	945.658
412.7476	936.3136
412.9134	917.5762
413.0792	903.3923
413.245	880.6607
413.4108	873.4522
413.5766	912.7418
413.7424	965.7141
413.9082	995.8901
414.074	988.1796
414.2397	934.4027
414.4055	893.2049
414.5713	909.3979
414.737	946.3553
414.9028	966.0919
415.0685	977.629
415.2343	945.2945
415.4	919.9238
415.5658	913.7444
415.7315	911.6467
415.8972	947.9168
416.0629	984.9412
416.2286	1015.191
416.3943	1027.451
416.56	1022.691
416.7257	991.0685
416.8914	971.5625
417.0571	965.8545
417.2228	935.4379
417.3884	905.1117
417.5541	909.3768
417.7198	934.571
417.8854	955.8359
418.0511	974.9617
418.2167	971.2106
418.3824	972.9525
418.548	972.9003
418.7136	960.8151
418.8792	961.4965
419.0449	996.8921
419.2105	1030.725
419.3761	1061.347
419.5417	1040.655
419.7073	988.1507
419.8729	941.4624
420.0385	937.9711
420.204	955.1382
420.3696	994.9995
420.5352	1044.958
420.7007	1088.459
420.8663	1114.007
421.0319	1121.386
421.1974	1119.673
421.3629	1130.974
421.5285	1086.731
421.694	1054.815
421.8595	1071.559
422.0251	1128.718
422.1906	1123.907
422.3561	1061.271
422.5216	929.5558
422.6871	859.8015
422.8526	918.0333
423.0181	1032.926
423.1835	1107.112
423.349	1087.736
423.5145	1046.397
423.68	1011.371
423.8454	1022.103
424.0109	1047.578
424.1763	1093.918
424.3418	1118.002
424.5072	1121.739
424.6726	1104.888
424.838	1063.604
425.0035	1006.181
425.1689	1023.198
425.3343	1065.566
425.4997	1075.714
425.6651	1099.502
425.8305	1077.455
425.9959	1013.873
426.1613	1017.824
426.3267	1067.002
426.492	1130.122
426.6574	1167.13
426.8228	1120.503
426.9881	1027.223
427.1534	936.6188
427.3188	904.2432
427.4841	949.2917
427.6495	1035.104
427.8148	1089.368
427.9801	1096.992
428.1454	1085.453
428.3107	1073.723
428.476	1068.354
428.6414	1037.964
428.8066	1001.463
428.9719	970.6099
429.1372	978.667
429.3025	1011.031
429.4678	1029.661
429.633	990.9131
429.7983	901.3923
429.9636	815.5682
430.1288	765.7354
430.294	754.6993
430.4593	771.6
430.6245	776.4134
430.7897	735.9421
430.955	720.5927
431.1202	758.4393
431.2854	869.6733
431.4506	1010.814
431.6158	1170.127
431.781	1279.964
431.9462	1319.476
432.1114	1269.232
432.2766	1159.393
432.4417	1018.377
432.6069	972.2813
432.772	1044.437
432.9372	1182.144
433.1024	1256.936
433.2675	1277.707
433.4326	1278.614
433.5977	1229.063
433.7629	1115.175
433.928	987.1226
434.0931	912.2477
434.2582	967.6629
434.4233	1082.91
434.5884	1197.192
434.7535	1261.684
434.9186	1287.035
435.0837	1249.946
435.2488	1190.484
435.4138	1178.047
435.5789	1240.236
435.744	1299.251
435.909	1306.575
436.0741	1325.908
436.2391	1355.098
436.4042	1377.069
436.5692	1391.472
436.7342	1370.304
436.8992	1339.355
437.0643	1315.446
437.2293	1296.822
437.3943	1258.986
437.5593	1245.653
437.7243	1267.628
437.8893	1309.71
438.0542	1301.637
438.2192	1197.446
438.3842	1059.309
438.5491	1044.875
438.7141	1130.814
438.8791	1230.328
439.044	1254.653
439.209	1250.793
439.3739	1269.503
439.5388	1299.381
439.7037	1340.831
439.8687	1356.9
440.0336	1340.841
440.1985	1306.085
440.3634	1256.703
440.5283	1223.292
440.6932	1226.927
440.8581	1305.965
441.0229	1394.535
441.1878	1448.103
441.3527	1444.079
441.5175	1379.632
441.6824	1352.986
441.8472	1409.758
442.0121	1481.651
442.1769	1491.759
442.3418	1458.5
442.5066	1431.834
442.6714	1438.088
442.8362	1448.286
443.001	1458.317
443.1659	1457.799
443.3307	1403.846
443.4955	1384.303
443.6602	1389.816
443.825	1460.094
443.9898	1511.901
444.1546	1485.089
444.3193	1445.338
444.4841	1460.93
444.6488	1503.626
444.8136	1525.102
444.9783	1522.686
445.1431	1529.36
445.3078	1480.976
445.4725	1415.182
445.6372	1351.597
445.802	1341.255
445.9667	1367.618
446.1314	1379.671
446.2961	1411.094
446.4608	1457.027
446.6255	1502.014
446.7901	1495.562
446.9548	1487.988
447.1195	1518.498
447.2841	1571.61
447.4488	1621.612
447.6134	1648.946
447.7781	1651.88
447.9427	1590.631
448.1074	1538.656
448.272	1509.349
448.4366	1576.552
448.6012	1645.738
448.7658	1652.163
448.9305	1611.545
449.095	1584.596
449.2596	1585.834
449.4242	1611.433
449.5888	1610.283
449.7534	1639.598
449.9179	1663.74
450.0825	1675.39
450.2471	1697.244
450.4116	1742.507
450.5762	1798.557
450.7407	1794.607
450.9052	1766.408
451.0698	1751.872
451.2343	1733.729
451.3988	1712.436
451.5633	1703.76
451.7278	1703.854
451.8923	1715.535
452.0568	1725.209
452.2213	1721.366
452.3858	1701.242
452.5503	1640.164
452.7148	1575.7
452.8792	1531.442
453.0437	1520.231
453.2081	1542.92
453.3726	1554.131
453.537	1563.234
453.7015	1649.019
453.8659	1708.076
454.0303	1728.039
454.1947	1712.854
454.3592	1703.314
454.5236	1692.97
454.688	1670.774
454.8524	1629.93
455.0168	1615.335
455.1811	1611.588
455.3455	1627.373
455.5099	1618.253
455.6743	1650.408
455.8386	1709.631
456.003	1751.51
456.1673	1751.672
456.3317	1752.521
456.496	1711.982
456.6603	1694.66
456.8246	1719.461
456.989	1733.477
457.1533	1724.22
457.3176	1719.663
457.4819	1751.826
457.6462	1777.727
457.8105	1755.179
457.9748	1703.893
458.1391	1643.029
458.3033	1620.712
458.4676	1626.06
458.6319	1652.106
458.7961	1674.355
458.9604	1707.994
459.1246	1712.561
459.2888	1674.05
459.4531	1669.276
459.6173	1678.364
459.7815	1669.068
459.9457	1659.44
460.11	1668.209
460.2741	1675.129
460.4384	1696.199
460.6025	1715.936
460.7667	1735.401
460.9309	1782.612
461.0951	1772.461
461.2592	1751.186
461.4234	1743.982
461.5876	1752.742
461.7517	1756.089
461.9159	1757.885
462.08	1750.926
462.2441	1783.119
462.4082	1792.597
462.5724	1788.726
462.7365	1784.311
462.9006	1794.131
463.0647	1795.379
463.2288	1798.358
463.3929	1791.386
463.557	1779.508
463.721	1751.102
463.8851	1747.572
464.0492	1757.983
464.2132	1773.806
464.3773	1760.172
464.5414	1717.179
464.7054	1684.844
464.8694	1677.285
465.0334	1708.557
465.1975	1779.437
465.3615	1787.868
465.5255	1773.136
465.6895	1781.936
465.8535	1808.12
466.0175	1839.752
466.1815	1846.196
466.3455	1809.757
466.5095	1744.339
466.6734	1677.469
466.8374	1641.13
467.0014	1667.831
467.1653	1750.063
467.3293	1796.278
467.4932	1816.049
467.6571	1828.227
467.8211	1825.857
467.985	1786.384
468.1489	1770.199
468.3128	1795.025
468.4767	1837.696
468.6406	1860.855
468.8045	1867.078
468.9684	1842.942
469.1323	1822.566
469.2962	1833.304
469.46	1851.594
469.6239	1867.543
469.7878	1849.248
469.9516	1806.938
470.1154	1759.794
470.2793	1724.155
470.4431	1724.226
470.607	1745.687
470.7708	1762.339
470.9346	1773.936
471.0984	1783.501
471.2622	1803.447
471.426	1828.889
471.5898	1831.148
471.7536	1851.02
471.9174	1912.69
472.0811	1943.476
472.2449	1951.227
472.4087	1936.946
472.5724	1906.531
472.7362	1858.265
472.8999	1796.416
473.0637	1778.193
473.2274	1791.205
473.3911	1822.416
473.5548	1843.83
473.7185	1832.837
473.8822	1833.803
474.0459	1843.836
474.2096	1867.691
474.3733	1875.428
474.537	1894.77
474.7007	1903.85
474.8643	1899.91
475.028	1889.677
475.1917	1878.18
475.3553	1835.122
475.519	1796.401
475.6826	1798.973
475.8463	1830.875
476.0099	1838.855
476.1735	1816.218
476.3371	1780.733
476.5007	1728.323
476.6643	1733.416
476.8279	1779.42
476.9915	1811.602
477.1551	1839.401
477.3187	1844.692
477.4823	1866.008
477.6458	1903.36
477.8094	1916.042
477.9729	1917.101
478.1365	1889.456
478.3	1860.064
478.4636	1837.082
478.6271	1820.96
478.7906	1807.39
478.9541	1803.952
479.1176	1826.508
479.2812	1859.985
479.4447	1895.237
479.6082	1927.034
479.7716	1920.411
479.9351	1874.94
480.0986	1850.599
480.2621	1862.26
480.4255	1848.57
480.589	1854.599
480.7524	1848.239
480.9159	1839.542
481.0793	1843.769
481.2428	1857.778
481.4062	1888.834
481.5696	1905.874
481.733	1930.342
481.8964	1928.604
482.0598	1914.956
482.2232	1883.839
482.3866	1855.538
482.55	1835.978
482.7134	1848.612
482.8768	1879.396
483.0401	1871.969
483.2035	1864.767
483.3668	1867.763
483.5302	1870.589
483.6935	1868.107
483.8568	1848.332
484.0202	1822.881
484.1835	1815.23
484.3468	1808.788
484.5101	1850.734
484.6734	1874.042
484.8367	1862.722
485	1852.523
485.1633	1839.121
485.3266	1817.752
485.4899	1758.756
485.6531	1688.356
485.8164	1606.734
485.9796	1489.934
486.1429	1357.735
486.3061	1346.895
486.4694	1465.792
486.6326	1633.293
486.7958	1709.598
486.959	1724.736
487.1223	1675.981
487.2855	1652.589
487.4486	1686.399
487.6118	1758.946
487.775	1807.816
487.9382	1829.127
488.1014	1856.16
488.2646	1857.3
488.4277	1823.4
488.5909	1784.022
488.754	1744.147
488.9171	1712.106
489.0803	1680.876
489.2434	1701.212
489.4066	1780.474
489.5697	1895.186
489.7328	1940.151
489.8959	1917.631
490.059	1893.816
490.2221	1867.435
490.3852	1865.293
490.5482	1878.394
490.7113	1872.736
490.8744	1833.543
491.0374	1788.644
491.2005	1786.687
491.3636	1815.029
491.5266	1859.039
491.6896	1854.429
491.8527	1742.804
492.0157	1630.406
492.1787	1612.352
492.3417	1672.827
492.5047	1742.836
492.6677	1815.463
492.8307	1859.188
492.9937	1878.181
493.1567	1864.522
493.3196	1832.144
493.4826	1788.196
493.6456	1760.45
493.8085	1744.721
493.9715	1735.735
494.1344	1776.9
494.2974	1859.582
494.4603	1896.714
494.6232	1887.609
494.7861	1899.288
494.949	1910.729
495.1119	1907.222
495.2748	1898.382
495.4377	1875.167
495.6006	1805.786
495.7635	1704.766
495.9264	1708.806
496.0892	1815.849
496.2521	1918.682
496.4149	1923.48
496.5778	1882.91
496.7407	1841.638
496.9035	1828.516
497.0663	1842.895
497.2291	1845.186
497.3919	1882.138
497.5547	1910.65
497.7176	1901.34
497.8804	1857.635
498.0432	1811.442
498.2059	1748.078
498.3687	1688.481
498.5315	1686.856
498.6942	1766.302
498.857	1844.375
499.0198	1867.302
499.1825	1851.748
499.3452	1843.708
499.508	1879.375
499.6707	1867.569
499.8334	1870.307
499.9962	1841.563
500.1589	1797.787
500.3216	1768.431
500.4843	1742.398
500.6469	1720.986
500.8096	1749.446
500.9723	1802.869
501.135	1819.265
501.2976	1766.382
501.4603	1725.723
501.623	1716.907
501.7856	1714.307
501.9482	1731.425
502.1109	1769.491
502.2735	1806.567
502.4361	1838.176
502.5987	1830.454
502.7614	1823.88
502.924	1828.803
503.0865	1865.674
503.2491	1909.412
503.4117	1891.384
503.5743	1852.252
503.7368	1808.285
503.8994	1764.581
504.062	1703.104
504.2245	1704.453
504.3871	1778.068
504.5496	1866.502
504.7121	1916.668
504.8746	1895.135
505.0372	1841.411
505.1997	1826.177
505.3622	1883.479
505.5247	1924.661
505.6872	1943.144
505.8497	1934.785
506.0121	1958.993
506.1746	1965.642
506.3371	1956.774
506.4995	1915.591
506.662	1874.743
506.8244	1847.025
506.9869	1871.65
507.1493	1863.239
507.3117	1857.967
507.4742	1849.106
507.6366	1854.913
507.799	1823.502
507.9614	1767.867
508.1238	1747.771
508.2862	1747.695
508.4485	1813.796
508.6109	1871.432
508.7733	1884.885
508.9357	1900.907
509.098	1899.981
509.2604	1919.86
509.4227	1913.945
509.5851	1884.462
509.7474	1814.294
509.9097	1750.348
510.072	1749.098
510.2343	1808.21
510.3966	1860.508
510.5589	1867.77
510.7212	1810.831
510.8835	1780.496
511.0458	1787.451
511.2081	1805.032
511.3703	1829.366
511.5326	1869.559
511.6949	1889.533
511.8571	1884.631
512.0193	1887.506
512.1816	1840.019
512.3438	1785.978
512.506	1738.779
512.6682	1722.581
512.8304	1730.531
512.9926	1732.244
513.1548	1745.074
513.317	1759.808
513.4792	1760.657
513.6414	1749.345
513.8035	1724.493
513.9657	1669.762
514.1279	1663.132
514.29	1676.813
514.4521	1703.042
514.6143	1709.18
514.7764	1721.291
514.9385	1711.991
515.1006	1710.428
515.2628	1717.198
515.4249	1726.01
515.587	1726.174
515.7491	1740.502
515.9111	1766.358
516.0732	1768.802
516.2353	1723.194
516.3973	1658.676
516.5594	1558.011
516.7214	1448.063
516.8835	1361.593
517.0455	1367.6
517.2076	1366.353
517.3696	1371.087
517.5316	1468.938
517.6937	1641.356
517.8557	1738.612
518.0176	1721.017
518.1796	1600.952
518.3416	1423.304
518.5036	1371.675
518.6656	1475.751
518.8275	1626.835
518.9895	1668.77
519.1514	1661.484
519.3134	1634.202
519.4753	1632.793
519.6373	1651.347
519.7992	1691.981
519.9611	1726.44
520.123	1741.806
520.2849	1746.818
520.4468	1710.763
520.6087	1651.172
520.7706	1627.454
520.9325	1648.509
521.0944	1716.432
521.2562	1761.033
521.4181	1751.552
521.58	1726.214
521.7418	1714.896
521.9036	1735.093
522.0655	1783.21
522.2273	1806.917
522.3891	1776.702
522.551	1700.974
522.7128	1612.698
522.8746	1612.84
523.0363	1658.927
523.1981	1703.376
523.3599	1698.075
523.5217	1704.234
523.6835	1748.37
523.8452	1796.004
524.007	1816.057
524.1687	1815.111
524.3304	1811.913
524.4922	1809.423
524.6539	1823.496
524.8157	1801.39
524.9774	1774.086
525.1391	1773.037
525.3008	1767.948
525.4625	1785.744
525.6241	1781.838
525.7858	1807.286
525.9475	1846.297
526.1092	1808.373
526.2709	1720.108
526.4325	1607.016
526.5942	1556.965
526.7558	1530.227
526.9174	1524.033
527.079	1537.505
527.2407	1581.552
527.4023	1647.614
527.5639	1701.803
527.7255	1743.496
527.8871	1782.207
528.0487	1794.484
528.2103	1776.003
528.3718	1736.972
528.5334	1757.708
528.695	1804.774
528.8565	1840.602
529.0181	1861.054
529.1796	1871.698
529.3412	1863.315
529.5027	1835.803
529.6642	1777.208
529.8257	1740.158
529.9872	1707.573
530.1487	1720.878
530.3102	1768.359
530.4717	1804.801
530.6332	1820.986
530.7947	1834.047
530.9562	1835.576
531.1176	1840.785
531.2791	1837.396
531.4405	1811.164
531.6019	1791.462
531.7634	1781.439
531.9248	1779.935
532.0862	1782.518
532.2477	1775.049
532.4091	1704.297
532.5704	1658.667
532.7319	1588.732
532.8932	1557.305
533.0546	1584.646
533.216	1670.942
533.3774	1722.859
533.5388	1734.833
533.7001	1736.09
533.8615	1706.282
534.0228	1670.322
534.1841	1660.328
534.3455	1666.305
534.5068	1701.048
534.6681	1700.407
534.8293	1681.341
534.9907	1677.842
535.152	1690.92
535.3132	1717.938
535.4745	1725.945
535.6358	1745.63
535.7971	1766.989
535.9583	1767.69
536.1196	1720.69
536.2808	1683.458
536.4421	1659.469
536.6033	1623.278
536.7645	1620.101
536.9258	1603.012
537.087	1554.158
537.2482	1558.734
537.4094	1617.816
537.5706	1673
537.7318	1708.416
537.8929	1698.029
538.0541	1659.428
538.2153	1635.591
538.3764	1645.031
538.5376	1651.064
538.6987	1672.698
538.8599	1666.852
539.021	1643.477
539.1821	1607.585
539.3432	1587.175
539.5043	1582.38
539.6655	1574.47
539.8265	1562.526
539.9876	1564.063
540.1487	1570.427
540.3098	1552
540.4708	1514.495
540.6319	1495.247
540.793	1502.665
540.954	1539.352
541.1151	1557.273
541.2761	1548.071
541.4371	1562.262
541.5981	1561.842
541.7592	1602.855
541.9202	1613.965
542.0812	1603.126
542.2422	1589.216
542.4031	1556.855
542.5641	1578.868
542.7251	1597.724
542.886	1590.292
543.0471	1548.261
543.208	1537.357
543.369	1550.975
543.5298	1551.832
543.6908	1579.04
543.8517	1602.858
544.0126	1639.68
544.1736	1662.721
544.3345	1628.804
544.4954	1596.219
544.6563	1533.961
544.8171	1532.351
544.978	1575.726
545.1389	1616.025
545.2997	1620.204
545.4606	1583.586
545.6215	1556.012
545.7823	1563.687
545.9432	1589.073
546.104	1604.056
546.2648	1578.55
546.4256	1554.03
546.5864	1553.529
546.7473	1593.541
546.908	1606.512
547.0688	1619.465
547.2296	1617.244
547.3904	1576.894
547.5511	1551.542
547.7119	1514.693
547.8727	1508.314
548.0334	1534.087
548.1942	1558.487
548.3549	1591.857
548.5156	1594.967
548.6763	1590.986
548.837	1588.792
548.9977	1587.757
549.1584	1583.269
549.3192	1595.922
549.4798	1596.186
549.6405	1578.108
549.8011	1579.535
549.9619	1585.028
550.1225	1584.93
550.2831	1585.027
550.4438	1577.049
550.6044	1564.63
550.765	1561.57
550.9257	1567.762
551.0863	1578.875
551.2469	1564.817
551.4075	1549.211
551.5681	1547.357
551.7287	1562.418
551.8893	1584.759
552.0498	1583.897
552.2104	1587.029
552.371	1604.7
552.5315	1574.494
552.6921	1531.141
552.8526	1503.828
553.0131	1506.89
553.1736	1542.39
553.3342	1548.446
553.4947	1543.329
553.6552	1544.521
553.8157	1539.114
553.9762	1546.918
554.1367	1563.106
554.2971	1565.673
554.4576	1546.855
554.618	1527.684
554.7785	1531.372
554.939	1555.227
555.0994	1555.759
555.2598	1530.784
555.4203	1518.095
555.5807	1509.827
555.7411	1509.505
555.9015	1521.265
556.0619	1511.069
556.2223	1487.758
556.3827	1467.804
556.5431	1466.89
556.7034	1460.039
556.8638	1455.699
557.0242	1447.408
557.1845	1430.895
557.3448	1423.267
557.5052	1444.872
557.6655	1458.944
557.8259	1455.634
557.9861	1474.857
558.1465	1473.641
558.3068	1446.244
558.467	1426.305
558.6274	1405.098
558.7877	1361.52
558.9479	1347.008
559.1082	1371.782
559.2684	1385.031
559.4287	1394.449
559.5889	1400.472
559.7491	1399.842
559.9094	1397.845
560.0696	1373.796
560.2299	1356.875
560.3901	1372.202
560.5502	1410.651
560.7104	1448.874
560.8707	1464.604
561.0308	1461.313
561.191	1449.792
561.3511	1428.68
561.5114	1378.304
561.6714	1349.095
561.8316	1355.55
561.9918	1383.715
562.1519	1410.062
562.312	1385.8
562.4722	1373.055
562.6323	1357.977
562.7924	1384.615
562.9525	1403.027
563.1125	1422.851
563.2726	1426.6
563.4327	1411.646
563.5928	1394.973
563.7528	1376.623
563.9129	1365.907
564.0729	1367.143
564.233	1353.213
564.393	1365.028
564.553	1393.53
564.7131	1401.97
564.873	1388.318
565.0331	1383.546
565.1931	1375.963
565.353	1359.481
565.5131	1343.808
565.673	1332.472
565.833	1305.75
565.9929	1301.242
566.1529	1306.003
566.3129	1322.118
566.4728	1338.564
566.6328	1341.323
566.7927	1348.438
566.9526	1347.022
567.1125	1354.63
567.2724	1367.517
567.4323	1380.328
567.5922	1366.235
567.7521	1364.18
567.9119	1367.479
568.0718	1342.733
568.2317	1314.02
568.3915	1302.363
568.5514	1298.999
568.7112	1286.063
568.871	1290.407
569.0309	1301.67
569.1907	1326.73
569.3505	1327.971
569.5103	1326.672
569.6701	1336.906
569.8299	1324.725
569.9897	1319.741
570.1495	1292.634
570.3092	1301.08
570.469	1300.43
570.6287	1285.485
570.7885	1259.49
570.9482	1242.408
571.108	1234.487
571.2677	1245.469
571.4274	1268.607
571.5871	1279.295
571.7468	1300.167
571.9066	1309.559
572.0662	1305.585
572.2259	1313.18
572.3856	1322.693
572.5452	1324.782
572.7049	1325.481
572.8646	1334.623
573.0242	1328.367
573.1838	1318.344
573.3435	1324.857
573.5031	1323.733
573.6627	1334.402
573.8223	1329.576
573.9819	1308.365
574.1415	1304.242
574.3011	1304.374
574.4607	1306.271
574.6203	1303.805
574.7798	1293.553
574.9394	1273.631
575.099	1263.906
575.2585	1253.957
575.418	1236.446
575.5776	1236.195
575.7371	1251.494
575.8966	1254.306
576.0562	1283.932
576.2156	1270.607
576.3751	1253.847
576.5346	1264.059
576.6941	1286.672
576.8536	1290.133
577.0131	1284.525
577.1725	1280.391
577.332	1278.246
577.4914	1267.599
577.6508	1266.43
577.8103	1254.086
577.9697	1245.69
578.1291	1236.3
578.2885	1214.644
578.4479	1190.599
578.6073	1199.655
578.7667	1213.013
578.9261	1213.009
579.0854	1219.714
579.2448	1227.161
579.4042	1220.859
579.5635	1226.282
579.7229	1236.487
579.8822	1227.127
580.0416	1233.616
580.2009	1235.402
580.3602	1225.761
580.5195	1226.798
580.6788	1214.604
580.8381	1206.514
580.9974	1207.801
581.1566	1206.877
581.3159	1219.069
581.4752	1195.38
581.6345	1196.407
581.7937	1189.534
581.9529	1192.29
582.1122	1217.045
582.2714	1209.302
582.4306	1198.873
582.5898	1206.168
582.749	1206.154
582.9082	1207.409
583.0674	1198.776
583.2266	1196.453
583.3857	1194.382
583.5449	1191.5
583.7041	1177.58
583.8633	1172.106
584.0224	1182.787
584.1815	1196.228
584.3407	1192.271
584.4998	1192.812
584.6589	1176.944
584.818	1169.813
584.9771	1157.688
585.1362	1155.116
585.2953	1141.208
585.4544	1135.718
585.6135	1141.727
585.7725	1117.405
585.9316	1102.174
586.0906	1124.266
586.2497	1124.81
586.4087	1130.87
586.5677	1138.388
586.7267	1126.958
586.8858	1125.907
587.0448	1121.553
587.2038	1134.223
587.3628	1138.459
587.5218	1126.214
587.6807	1114.982
587.8397	1106.29
587.9987	1107.662
588.1577	1096.338
588.3166	1095.144
588.4755	1075.686
588.6345	1054.992
588.7934	1034.123
588.9523	993.8354
589.1112	945.267
589.2701	934.1658
589.429	956.0038
589.5879	961.1112
589.7468	959.3593
589.9056	976.2776
590.0645	1006.373
590.2234	1033.702
590.3822	1044.997
590.5411	1038.766
590.6999	1053.964
590.8588	1053.862
591.0176	1038.772
591.1764	1044.881
591.3352	1039.491
591.494	1028.796
591.6528	1030.139
591.8116	1021.847
591.9703	1020.4
592.1291	1036.61
592.2878	1017.948
592.4467	1015.456
592.6053	1020.97
592.7641	1029.522
592.9229	1025.09
593.0816	1028.952
593.2403	1033.577
593.399	1046.335
593.5577	1044.633
593.7164	1031.63
593.8751	1038.33
594.0338	1028.314
594.1924	1009.594
594.3511	1003.193
594.5098	1017.566
594.6684	1008.95
594.8271	997.5341
594.9857	988.9758
595.1443	1007.65
595.303	1011.766
595.4615	1019.226
595.6202	1028.104
595.7787	1021.262
595.9374	1019.487
596.0959	1017.838
596.2545	1019.027
596.4131	1031.434
596.5717	1036.952
596.7302	1027.629
596.8887	1020.428
597.0473	1018.566
597.2058	1025.552
597.3644	1010.383
597.5229	1014.257
597.6814	1014.162
597.8399	1007.044
597.9984	1018.109
598.1569	1023.528
598.3154	1014.679
598.4738	1009.544
598.6323	1004.873
598.7908	1001.375
598.9492	1014.343
599.1076	1019.149
599.2661	1012.574
599.4245	1024.047
599.5829	1010.806
599.7413	1008.221
599.8997	1003.022
600.0581	1001.708
600.2165	1006.881
600.3749	1008.455
600.5333	1002.417
600.6917	1007.935
600.85	1004.329
601.0084	1009.122
601.1667	989.7325
601.325	994.5134
601.4833	998.5031
601.6417	987.4467
601.8	983.6725
601.9583	984.1235
602.1166	969.3044
602.2749	969.5103
602.4332	990.7507
602.5914	984.0739
602.7498	993.8063
602.908	1002.287
603.0662	1002.112
603.2245	1016.867
603.3828	1018.244
603.541	1023.726
603.6992	1009.591
603.8574	1005.955
604.0156	1011.102
604.1738	1011.789
604.332	1009.934
604.4902	1008.248
604.6484	1010.579
604.8065	1015.799
604.9647	1004.209
605.1229	995.3277
605.281	988.1561
605.4391	1003.959
605.5973	1004.315
605.7554	995.3553
605.9135	997.508
606.0717	995.649
606.2297	990.0598
606.3878	980.652
606.5459	984.7426
606.704	987.6411
606.8621	989.3196
607.0201	997.1899
607.1782	1012.523
607.3362	1012.238
607.4943	1001.622
607.6523	1004.701
607.8104	992.0726
607.9684	974.5496
608.1264	972.2491
608.2844	970.6464
608.4424	959.5869
608.6003	964.5922
608.7584	958.3115
608.9163	958.3559
609.0743	958.5238
609.2322	954.2786
609.3902	958.4051
609.5482	957.4899
609.7061	951.8521
609.864	955.573
610.0219	943.1604
610.1798	931.6713
610.3377	920.5878
610.4956	914.2413
610.6535	929.9333
610.8114	945.5463
610.9693	940.5427
611.1271	949.1545
611.285	948.5073
611.4429	940.4707
611.6007	935.1448
611.7585	933.6929
611.9164	924.2981
612.0742	909.2541
612.232	913.6516
612.3898	903.8187
612.5476	911.0257
612.7054	921.6428
612.8632	930.3434
613.0209	927.7358
613.1787	914.4853
613.3365	909.7752
613.4942	899.9744
613.652	885.9005
613.8097	869.3567
613.9674	879.565
614.1252	881.243
614.2829	887.261
614.4406	890.3264
614.5983	885.1486
614.756	907.766
614.9136	894.5533
615.0714	895.037
615.229	893.7306
615.3867	893.9026
615.5443	882.5247
615.702	875.3836
615.8596	873.7075
616.0172	874.0937
616.1748	834.8291
616.3325	819.3717
616.4901	831.7128
616.6476	838.1038
616.8052	838.9711
616.9628	839.6645
617.1204	834.0773
617.278	842.0919
617.4355	852.3918
617.5931	853.4575
617.7506	864.9398
617.9081	873.7894
618.0657	866.8629
618.2232	866.9542
618.3807	874.8339
618.5382	876.4572
618.6957	875.1606
618.8532	869.9396
619.0107	850.8666
619.1682	846.3851
619.3256	853.8932
619.4831	860.6061
619.6406	863.0111
619.798	867.6564
619.9554	878.3973
620.1129	871.3167
620.2703	866.7843
620.4277	866.8668
620.5851	871.0964
620.7425	861.787
620.8998	862.9171
621.0573	873.8439
621.2146	855.0975
621.372	845.5883
621.5294	829.8116
621.6867	836.2757
621.8441	832.9275
622.0013	827.0299
622.1587	830.6783
622.316	838.5628
622.4733	849.2234
622.6306	852.4155
622.7879	842.9195
622.9452	824.748
623.1025	817.7825
623.2598	820.486
623.4171	823.507
623.5743	833.373
623.7316	834.7306
623.8888	825.6302
624.046	824.5834
624.2032	833.6104
624.3605	817.0971
624.5176	792.9676
624.6749	786.8055
624.8321	793.4247
624.9893	817.8806
625.1464	823.6245
625.3036	796.1299
625.4608	785.7909
625.6179	794.4594
625.7751	791.5255
625.9322	792.1011
626.0894	795.1564
626.2465	811.361
626.4036	813.2084
626.5607	813.7089
626.7178	811.5903
626.8749	808.3082
627.032	816.3846
627.189	806.5952
627.3461	806.9011
627.5032	801.7139
627.6602	779.9818
627.8173	762.8554
627.9743	745.288
628.1313	737.8984
628.2884	757.7906
628.4454	774.0718
628.6024	782.0561
628.7594	791.9801
628.9164	793.8556
629.0734	790.4659
629.2303	775.0865
629.3873	772.4047
629.5443	781.6938
629.7012	767.6467
629.8582	763.4102
630.0151	761.7097
630.172	757.4205
630.3289	753.4382
630.4858	768.5943
630.6428	776.9463
630.7996	781.2809
630.9565	780.5889
631.1134	779.9261
631.2703	772.8882
631.4272	761.6885
631.584	751.6716
631.7408	748.0295
631.8977	747.053
632.0546	755.3062
632.2114	761.7006
632.3682	762.6413
632.525	780.6956
632.6818	772.5161
632.8386	780.0901
632.9954	780.5588
633.1522	778.9847
633.3089	773.1269
633.4657	756.553
633.6224	750.0731
633.7792	752.1016
633.9359	753.2037
634.0927	759.6888
634.2494	757.014
634.4061	742.3633
634.5628	752.2227
634.7195	762.3353
634.8762	767.2432
635.0329	764.1667
635.1895	763.9211
635.3462	764.8165
635.5029	764.8458
635.6595	764.2316
635.8162	759.6257
635.9728	752.0765
636.1295	744.6291
636.2861	735.0741
636.4427	742.2383
636.5992	746.662
636.7559	745.597
636.9124	752.4099
637.069	751.0414
637.2256	747.6858
637.3821	762.8015
637.5387	764.1794
637.6953	767.8857
637.8518	755.2554
638.0084	739.5905
638.1649	743.4218
638.3214	752.7892
638.4779	745.8726
638.6344	750.6575
638.7909	755.4673
638.9474	742.7315
639.1038	741.5656
639.2603	733.1161
639.4167	723.5094
639.5732	722.6511
639.7297	727.0869
639.8861	719.2627
640.0425	710.1125
640.199	711.883
640.3553	725.4256
640.5118	718.7152
640.6682	715.6459
640.8245	712.961
640.981	707.884
641.1373	696.7795
641.2936	696.9217
641.45	701.0206
641.6064	701.7227
641.7627	701.652
641.9191	701.1075
642.0754	686.2523
642.2317	693.8428
642.388	697.4844
642.5443	712.9673
642.7006	704.5995
642.8569	707.6519
643.0131	705.6154
643.1694	700.7546
643.3257	693.1684
643.4819	700.5546
643.6382	703.7183
643.7944	697.6608
643.9506	685.2379
644.1069	688.0477
644.2631	688.5474
644.4193	698.6454
644.5754	703.5151
644.7316	693.0898
644.8878	684.792
645.044	676.8211
645.2002	675.9568
645.3563	675.5834
645.5125	667.6725
645.6686	675.1989
645.8248	668.0424
645.9809	664.4626
646.137	662.4001
646.2931	651.3155
646.4492	642.7628
646.6053	650.2181
646.7614	656.6952
646.9174	652.0875
647.0735	647.7509
647.2296	639.5859
647.3856	641.9639
647.5417	633.1294
647.6977	633.0391
647.8537	628.0809
648.0098	621.5147
648.1658	630.1851
648.3218	627.6068
648.4777	629.7852
648.6337	631.7285
648.7897	636.3799
648.9457	639.7463
649.1016	640.4666
649.2576	616.6854
649.4135	597.9533
649.5695	587.135
649.7254	597.0614
649.8813	610.5094
650.0372	617.9825
650.1932	628.9894
650.3491	637.3811
650.5049	632.5748
650.6608	638.2399
650.8167	643.119
650.9725	645.6975
651.1284	646.3065
651.2842	635.9241
651.4401	617.3016
651.5959	605.8604
651.7518	606.717
651.9076	605.4252
652.0634	616.4772
652.2192	620.5554
652.3749	625.8843
652.5308	621.1851
652.6865	623.2161
652.8423	621.7119
652.998	623.2025
653.1538	628.8223
653.3096	632.7977
653.4653	629.8316
653.621	629.817
653.7767	631.6061
653.9324	627.6196
654.0881	621.0081
654.2438	622.6549
654.3995	617.9194
654.5552	609.6387
654.7109	604.3477
654.8665	597.0138
655.0222	601.1559
655.1778	611.7063
655.3334	602.8536
655.4891	578.2799
655.6447	577.5774
655.8003	568.3868
655.9559	544.1503
656.1115	504.4563
656.2671	461.9286
656.4227	444.5997
656.5782	474.2615
656.7338	518.9434
656.8893	551.4875
657.0449	564.9354
657.2004	570.0347
657.356	585.163
657.5115	591.0739
657.667	595.4723
657.8225	592.931
657.978	596.9876
658.1335	605.0936
658.289	610.0594
658.4445	606.5678
658.5999	599.9046
658.7554	604.8843
658.9108	606.9038
659.0663	604.8705
659.2217	595.7944
659.3771	596.7755
659.5325	599.7942
659.6879	592.8141
659.8433	604.1031
659.9987	601.2506
660.1541	608.0893
660.3095	620.7096
660.4648	612.5623
660.6202	607.7681
660.7756	606.4231
660.9309	611.3859
661.0862	596.8461
661.2416	596.6012
661.3969	592.6458
661.5522	602.5457
661.7075	615.899
661.8628	612.5569
662.0181	615.1785
662.1733	612.5289
662.3286	610.34
662.4839	610.2147
662.6391	612.6467
662.7944	604.9693
662.9496	602.278
663.1048	606.485
663.26	595.4808
663.4152	585.912
663.5704	586.9628
663.7256	600.275
663.8808	601.0649
664.036	605.0277
664.1912	606.1874
664.3463	591.0388
664.5015	592.3107
664.6566	600.0049
664.8118	596.0378
664.9669	602.4739
665.122	595.9603
665.2771	596.5651
665.4322	595.5953
665.5873	591.2086
665.7424	605.6264
665.8975	600.9469
666.0526	592.45
666.2076	596.5436
666.3627	589.9633
666.5177	590.7549
666.6727	595.3502
666.8278	593.1833
666.9828	586.6837
667.1378	595.1498
667.2928	601.6091
667.4478	594.4979
667.6028	588.0897
667.7578	588.6442
667.9127	579.9328
668.0677	587.9899
668.2226	591.9968
668.3776	598.1689
668.5325	588.8845
668.6874	586.4849
668.8423	588.9401
668.9973	598.9819
669.1522	588.4654
669.3071	591.4717
669.4619	592.077
669.6168	586.9435
669.7717	576.12
669.9265	578.4008
670.0814	581.6953
670.2362	580.0226
670.3911	573.4393
670.5459	576.736
670.7007	568.7736
670.8555	567.313
671.0103	577.8015
671.1651	572.2328
671.3199	564.7103
671.4747	555.7257
671.6295	556.4625
671.7842	557.6158
671.939	561.248
672.0937	563.6753
672.2484	555.423
672.4031	567.7221
672.5579	565.2593
672.7126	556.2245
672.8673	568.4231
673.022	574.0766
673.1767	564.9579
673.3314	563.4268
673.486	554.2629
673.6407	554.3948
673.7953	552.5681
673.95	559.0877
674.1046	548.9873
674.2592	547.1667
674.4138	549.3745
674.5684	555.4424
674.723	552.4647
674.8776	539.5009
675.0322	543.0006
675.1868	543.1492
675.3414	542.6024
675.4959	533.703
675.6505	537.554
675.805	549.4351
675.9595	535.6715
676.1141	540.1382
676.2686	542.8406
676.4231	542.4429
676.5776	539.3083
676.7321	539.4596
676.8866	530.7139
677.041	527.8427
677.1955	529.3072
677.35	535.3754
677.5044	531.4868
677.6589	529.4515
677.8133	525.2715
677.9677	523.6853
678.1221	527.5797
678.2766	515.938
678.4309	519.9726
678.5853	514.9742
678.7397	518.5458
678.8941	510.3043
679.0485	505.1878
679.2028	509.6811
679.3571	513.6223
679.5115	506.0783
679.6658	508.0512
679.8201	506.9277
679.9744	503.4897
680.1288	499.7354
680.2831	499.7781
680.4373	500.2479
680.5916	507.3414
680.7459	503.8544
680.9001	498.9907
681.0544	490.0818
681.2087	490.3276
681.3629	497.0074
681.5171	496.1994
681.6713	491.0302
681.8256	494.2552
681.9797	495.9013
682.134	483.1796
682.2881	490.3011
682.4423	489.6323
682.5965	484.537
682.7507	474.7515
682.9048	470.0056
683.059	471.7152
683.2131	472.2781
683.3672	469.2715
683.5213	471.046
683.6754	473.4839
683.8295	461.2611
683.9836	462.1131
684.1377	459.4341
684.2918	448.2296
684.4459	450.2736
684.5999	453.9154
684.754	454.1382
684.908	454.4142
685.062	465.9003
685.2161	469.6979
685.3701	458.7003
685.5241	444.9892
685.6781	446.9735
685.8321	453.6854
685.9861	445.808
686.14	439.7849
686.294	447.1172
686.4479	449.2738
686.6019	419.2983
686.7559	377.5828
686.9098	334.028
687.0637	306.125
687.2176	297.2803
687.3715	303.6802
687.5254	327.738
687.6793	340.6713
687.8332	353.0245
687.9871	368.1372
688.1409	384.3058
688.2947	395.7281
688.4486	390.6324
688.6024	386.4695
688.7563	373.6141
688.9101	367.9589
689.0639	364.2016
689.2177	368.7013
689.3715	363.7665
689.5253	371.1552
689.6791	380.3363
689.8328	373.3516
689.9866	369.8433
690.1403	375.8951
690.2941	370.8578
690.4478	372.1377
690.6015	379.7686
690.7552	386.5519
690.9089	383.076
691.0626	386.7134
691.2164	390.1364
691.37	390.7807
691.5237	389.1905
691.6774	387.139
691.831	393.4691
691.9847	389.7104
692.1383	393.0728
692.2919	386.9832
692.4456	378.6162
692.5992	388.2006
692.7527	387.7193
692.9064	385.8284
693.0599	384.9846
693.2136	376.8981
693.3671	382.0807
693.5207	381.6898
693.6742	394.512
693.8278	385.2161
693.9813	368.0536
694.1348	361.891
694.2883	361.6011
694.4418	371.3905
694.5953	370.3804
694.7488	365.7601
694.9023	376.8535
695.0558	375.4535
695.2093	374.9364
695.3627	375.2641
695.5162	386.2448
695.6696	379.0103
695.8231	378.7221
695.9764	371.6393
696.1299	367.5765
696.2833	376.1973
696.4367	385.7304
696.5901	388.5211
696.7435	395.9671
696.8968	394.3026
697.0502	391.6925
697.2036	397.8521
697.3569	398.5524
697.5102	391.7698
697.6635	383.5097
697.8168	371.9942
697.9702	368.9544
698.1235	383.2379
698.2768	381.2617
698.4301	384.157
698.5833	380.1119
698.7366	372.6342
698.8898	375.2612
699.0431	371.1577
699.1964	367.5408
699.3495	370.2081
699.5028	380.4738
699.656	369.2373
699.8092	370.7112
699.9624	367.9055
700.1156	375.9739
700.2688	370.5114
700.4219	366.5739
700.5751	356.7867
700.7283	363.8486
700.8814	360.6186
701.0345	372.7488
701.1877	375.0552
701.3408	374.997
701.4939	372.0808
701.647	371.5288
701.8001	361.0965
701.9532	362.237
702.1063	363.9887
702.2593	367.3689
702.4124	367.9492
702.5654	358.58
702.7184	362.2118
702.8715	359.8612
703.0245	365.8394
703.1776	369.5017
703.3305	372.901
703.4835	366.2108
703.6365	370.7606
703.7895	362.0442
703.9424	365.937
704.0954	367.9127
704.2484	372.6055
704.4013	375.5897
704.5543	378.0309
704.7072	381.418
704.8601	380.7694
705.013	365.0818
705.1659	368.7241
705.3188	369.8869
705.4717	368.5012
705.6246	367.553
705.7774	371.4498
705.9303	355.5096
706.0831	376.2712
706.236	374.6032
706.3888	372.5076
706.5416	366.794
706.6944	372.2753
706.8472	366.8328
707	364.8858
707.1528	367.1989
707.3056	372.1167
707.4583	369.8122
707.6111	367.743
707.7639	366.3783
707.9166	375.6131
708.0693	369.7311
708.222	369.2202
708.3748	364.1613
708.5275	359.6745
708.6802	361.5031
708.8328	363.386
708.9855	362.6739
709.1382	357.2611
709.2909	366.9361
709.4435	366.2988
709.5962	361.2005
709.7488	360.7677
709.9014	365.0934
710.054	354.9839
710.2067	358.8426
710.3593	361.5952
710.5118	356.5381
710.6644	357.6752
710.817	360.8046
710.9695	358.7208
711.1221	362.7285
711.2747	357.9709
711.4272	354.7448
711.5797	350.1643
711.7322	355.7469
711.8848	355.5146
712.0373	350.5534
712.1898	343.898
712.3422	345.7707
712.4948	345.2552
712.6472	352.1057
712.7996	347.9634
712.9521	350.1237
713.1046	342.9269
713.257	344.147
713.4094	338.4774
713.5618	346.1403
713.7142	348.3477
713.8666	350.4964
714.019	346.9355
714.1714	341.2715
714.3237	341.3045
714.4761	346.0045
714.6285	345.079
714.7808	342.9045
714.9331	338.8637
715.0854	335.7852
715.2378	333.617
715.3901	339.059
715.5424	341.3615
715.6947	340.6996
715.8469	324.4716
715.9992	321.6954
716.1515	328.6582
716.3037	329.1948
716.456	309.632
716.6082	297.0507
716.7604	287.4907
716.9127	286.6039
717.0649	279.7072
717.2171	267.3578
717.3693	259.1092
717.5214	258.2369
717.6736	258.6737
717.8258	268.0958
717.978	271.3606
718.1301	269.7027
718.2822	268.7545
718.4344	251.9324
718.5865	244.8956
718.7386	238.6257
718.8907	247.5948
719.0428	254.9218
719.1949	253.6022
719.3469	246.873
719.499	248.9293
719.6511	251.6193
719.8031	257.7164
719.9551	255.4
720.1072	251.9179
720.2592	246.5453
720.4112	245.8608
720.5632	254.2638
720.7152	262.5247
720.8672	270.8461
721.0192	277.2308
721.1711	287.4515
721.3231	294.4225
721.475	302.1877
721.627	307.3906
721.7789	304.5241
721.9308	302.1497
722.0828	300.961
722.2347	300.8213
722.3866	296.0757
722.5385	291.068
722.6903	283.868
722.8422	291.6965
722.9941	292.0559
723.1459	290.0804
723.2977	273.2856
723.4496	244.157
723.6014	236.4162
723.7532	256.5491
723.905	261.0101
724.0568	259.5773
724.2086	249.3158
724.3604	248.5099
724.5121	249.2067
724.6639	262.4892
724.8157	268.1865
724.9674	271.2143
725.1191	269.6969
725.2709	255.9528
725.4226	249.0986
725.5743	257.3531
725.726	270.8421
725.8777	257.8277
726.0294	261.2779
726.181	261.3778
726.3327	258.2078
726.4844	249.6644
726.636	256.4689
726.7877	269.7239
726.9393	273.4053
727.0909	279.9691
727.2425	276.9803
727.3941	265.8463
727.5457	246.4263
727.6973	235.2443
727.8488	234.3875
728.0004	242.9747
728.1519	259.2378
728.3035	268.3629
728.455	275.4646
728.6066	274.056
728.7581	268.0587
728.9095	256.4155
729.0611	245.181
729.2126	242.1159
729.364	241.0784
729.5155	257.2958
729.667	265.3573
729.8184	269.0275
729.9698	276.3462
730.1213	273.0789
730.2727	258.9627
730.4241	260.2492
730.5756	259.9445
730.7269	262.0883
730.8784	270.1039
731.0297	257.3347
731.1811	247.9816
731.3325	255.3444
731.4838	261.773
731.6351	263.0426
731.7865	256.7011
731.9378	263.0966
732.0891	270.4872
732.2404	273.3221
732.3917	283.9186
732.543	283.337
732.6943	280.5999
732.8456	287.8402
732.9968	280.5464
733.1481	287.1034
733.2993	277.6031
733.4506	279.7274
733.6018	285.8486
733.753	291.0778
733.9042	296.8883
734.0554	292.2289
734.2066	297.1225
734.3578	294.9204
734.509	285.7876
734.6602	290.2033
734.8113	288.6598
734.9624	281.6842
735.1136	279.068
735.2647	276.9852
735.4158	284.2903
735.5669	277.2131
735.718	283.3087
735.8691	282.0993
736.0201	277.6556
736.1713	281.5513
736.3223	280.8416
736.4733	277.7426
736.6244	274.3756
736.7755	275.9216
736.9265	282.7299
737.0775	279.1187
737.2285	286.5749
737.3795	284.4649
737.5305	286.5837
737.6815	290.4001
737.8324	286.2288
737.9834	290.7093
738.1343	288.1032
738.2853	291.7576
738.4362	284.7171
738.5871	273.8125
738.738	272.1966
738.8889	273.7254
739.0399	273.3857
739.1907	274.03
739.3416	269.7516
739.4925	276.4472
739.6433	277.6334
739.7942	276.5101
739.945	279.4233
740.0958	275.6458
740.2467	284.519
740.3975	283.4001
740.5483	281.9673
740.6991	276.53
740.8499	270.1079
741.0007	270.5626
741.1514	270.912
741.3022	275.2456
741.4529	282.021
741.6036	275.9836
741.7544	275.4639
741.9051	274.3719
742.0558	282.7301
742.2065	273.9445
742.3572	271.2134
742.5079	271.013
742.6586	277.1709
742.8093	282.703
742.9599	278.6609
743.1105	276.5475
743.2612	274.5224
743.4118	276.0844
743.5624	273.2573
743.7131	274.2408
743.8636	268.6394
744.0142	269.3607
744.1648	269.6155
744.3154	267.9934
744.4659	275.4835
744.6165	267.4987
744.767	266.0226
744.9176	272.0753
745.0681	269.7384
745.2186	271.0359
745.3691	269.5869
745.5197	267.0648
745.6702	274.6603
745.8206	267.9419
745.9711	269.7216
746.1215	270.0593
746.272	269.529
746.4224	271.1209
746.5729	263.355
746.7233	263.5931
746.8737	271.6672
747.0241	277.4362
747.1745	272.8528
747.3249	272.8162
747.4753	271.6966
747.6257	265.4884
747.776	263.3192
747.9264	263.5834
748.0767	257.5005
748.2271	258.118
748.3774	261.3936
748.5276	264.3342
748.678	260.8806
748.8282	257.043
748.9786	254.404
749.1288	250.3433
749.2791	247.1961
749.4294	251.1158
749.5796	248.9469
749.7299	254.8194
749.8801	254.8605
750.0303	253.9752
750.1805	264.2695
750.3307	254.685
750.4809	258.1917
750.6311	256.1869
750.7813	250.4249
750.9314	240.9979
751.0816	243.1191
751.2318	237.4816
751.3818	245.8455
751.532	251.6318
751.6821	252.5275
751.8322	247.6173
751.9823	240.1584
752.1324	244.1521
752.2825	246.8951
752.4326	244.1177
752.5826	238.1113
752.7327	232.9003
752.8827	237.9643
753.0327	236.2171
753.1827	238.6174
753.3328	234.8568
753.4828	237.9532
753.6328	241.2689
753.7828	236.0155
753.9327	235.8084
754.0827	240.2405
754.2327	236.4327
754.3826	236.7555
754.5325	237.9224
754.6825	233.8123
754.8324	236.4095
754.9823	240.8251
755.1322	238.8436
755.2821	233.1044
755.432	227.4414
755.5818	229.5992
755.7318	233.1582
755.8816	230.9199
756.0314	229.5709
756.1813	230.7795
756.3311	238.8408
756.4809	230.8783
756.6307	228.4996
756.7805	226.6333
756.9303	233.1224
757.0801	223.9474
757.2299	219.5202
757.3796	216.8237
757.5294	211.1439
757.6791	222.5058
757.8289	225.7816
757.9786	226.7431
758.1283	219.1029
758.278	218.6617
758.4277	213.872
758.5773	219.9615
758.7271	216.6857
758.8767	211.3339
759.0264	206.7483
759.176	205.7671
759.3256	191.2603
759.4753	149.0664
759.6249	115.2221
759.7745	89.10283
759.9241	80.92064
760.0737	64.00507
760.2233	53.72365
760.3729	48.73479
760.5224	46.3624
760.6719	44.72825
760.8215	46.48482
760.971	53.67558
761.1205	57.5037
761.2701	66.63602
761.4196	81.32197
761.5691	93.8035
761.7186	121.9003
761.868	137.4956
762.0175	145.846
762.167	133.3951
762.3164	115.7717
762.4659	106.2078
762.6153	98.69248
762.7647	92.63876
762.9141	95.21519
763.0635	87.45509
763.2129	85.85697
763.3623	89.43166
763.5117	93.67165
763.661	92.78998
763.8104	93.59632
763.9597	98.1149
764.1091	100.6526
764.2584	106.5782
764.4077	112.6781
764.557	114.2484
764.7063	114.327
764.8556	117.3368
765.0049	121.8447
765.1541	133.2143
765.3034	135.7635
765.4526	135.6197
765.6019	132.6893
765.7511	135.7947
765.9003	144.6047
766.0496	146.0229
766.1987	146.122
766.348	147.4621
766.4971	150.9547
766.6463	155.3819
766.7955	158.2033
766.9446	172.9389
767.0938	174.9105
767.2429	172.5948
767.392	166.5814
767.5411	171.1235
767.6902	175.6655
767.8394	178.9547
767.9884	174.2157
768.1375	175.1198
768.2866	171.8302
768.4356	178.8553
768.5847	179.3519
768.7337	181.6174
768.8828	177.9332
769.0317	176.5675
769.1808	177.6015
769.3298	175.6224
769.4788	172.3949
769.6277	175.5216
769.7767	172.9534
769.9257	180.0314
770.0746	183.2497
770.2236	178.246
770.3725	180.4801
770.5214	180.4102
770.6703	170.1983
770.8193	180.1802
770.9681	178.1563
771.1171	172.3885
771.2659	173.6545
771.4148	170.8249
771.5637	182.813
771.7125	176.0586
771.8613	177.8544
772.0101	177.4793
772.159	170.1615
772.3078	173.1122
772.4566	175.6689
772.6054	171.2147
772.7542	174.5713
772.903	173.4532
773.0517	169.1141
773.2004	174.6022
773.3492	165.5416
773.4979	171.0201
773.6467	178.8609
773.7953	179.9781
773.944	173.216
774.0928	172.1746
774.2415	167.45
774.3901	163.9488
774.5388	166.9389
774.6874	172.3315
774.8361	164.2172
774.9847	164.5791
775.1334	168.6028
775.282	167.4911
775.4305	169.9915
775.5792	164.8251
775.7277	164.5864
775.8763	169.1802
776.0249	172.1124
776.1735	169.3885
776.322	167.2337
776.4705	170.7267
776.6191	167.8672
776.7676	167.5304
776.9161	169.0931
777.0646	164.2403
777.2131	161.8186
777.3616	163.8393
777.5101	163.1024
777.6585	156.7684
777.8069	158.4616
777.9554	160.3921
778.1038	159.1889
778.2523	165.5518
778.4007	161.6952
778.5491	163.7065
778.6974	163.7577
778.8459	162.4803
778.9942	157.6301
779.1426	153.2986
779.291	161.148
779.4393	164.4628
779.5876	159.3246
779.736	161.5541
779.8843	158.3093
780.0326	156.9378
780.1809	161.7685
780.3292	158.9233
780.4775	160.4909
780.6257	158.5199
780.774	159.0786
780.9222	161.5054
781.0704	158.8563
781.2187	160.6518
781.3669	155.1427
781.5151	155.0837
781.6633	151.368
781.8115	158.6784
781.9597	152.4178
782.1078	157.4306
782.256	161.9933
782.4042	164.014
782.5523	157.8474
782.7004	156.7104
782.8486	156.6074
782.9967	158.0521
783.1448	156.1311
783.2929	150.4929
783.441	150.1156
783.5891	148.5823
783.7371	150.5101
783.8851	155.5674
784.0332	148.9925
784.1812	149.9184
784.3293	151.3895
784.4773	153.5184
784.6253	156.1033
784.7733	151.7675
784.9213	147.9854
785.0692	153.6449
785.2172	152.9846
785.3652	152.6674
785.5131	148.9389
785.6611	146.8907
785.809	143.5702
785.9569	143.0254
786.1048	140.0862
786.2527	144.8309
786.4006	145.951
786.5485	146.1008
786.6964	150.2821
786.8442	147.6966
786.9921	149.312
787.1399	141.9908
787.2877	150.2172
787.4355	143.5484
787.5833	142.5789
787.7311	145.8695
787.8789	139.4736
788.0267	142.9053
788.1745	142.2351
788.3223	145.7985
788.47	142.093
788.6177	148.5113
788.7654	146.6524
788.9132	144.804
789.0609	144.4554
789.2086	143.3247
789.3563	134.8837
789.504	131.5113
789.6517	137.3006
789.7993	144.9391
789.947	135.7138
790.0946	130.8836
790.2422	134.3402
790.3898	139.5654
790.5375	143.213
790.6851	148.3814
790.8326	143.0986
790.9802	137.7451
791.1278	137.735
791.2754	145.2178
791.423	142.1403
791.5705	135.0056
791.718	131.3025
791.8655	133.693
792.0131	136.6523
792.1606	131.5847
792.308	131.2833
792.4556	134.3097
792.603	130.1378
792.7505	131.7148
792.8979	129.0796
793.0454	133.1797
793.1928	134.6793
793.3403	124.7112
793.4877	130.8632
793.6351	138.2629
793.7825	135.8843
793.9299	129.6778
794.0772	133.4513
794.2246	129.915
794.3719	127.6274
794.5193	126.1981
794.6666	129.5584
794.814	133.1508
794.9613	131.4477
795.1086	127.0774
795.2559	129.7295
795.4032	125.6563
795.5505	131.584
795.6978	128.1033
795.845	123.9954
795.9922	127.3897
796.1395	127.2834
796.2867	126.2506
796.4339	129.3267
796.5811	124.8276
796.7283	124.7971
796.8755	124.7387
797.0227	125.0857
797.1699	127.9147
797.317	135.2045
797.4642	132.2681
797.6113	128.5687
797.7584	128.1525
797.9056	131.2337
798.0527	132.849
798.1998	128.533
798.3469	130.5104
798.494	117.6285
798.641	117.6314
798.7881	127.0219
798.9351	129.0157
799.0822	126.8918
799.2292	124.3236
799.3762	127.9379
799.5232	123.2485
799.6702	115.1878
799.8172	113.2726
799.9642	112.5035
800.1111	115.2629
800.2581	118.5144
800.4051	117.6834
800.552	116.7949
800.6989	114.6151
800.8458	120.5942
800.9927	114.9653
801.1396	116.849
801.2866	118.7438
801.4334	117.7945
801.5803	116.5492
801.7272	112.072
801.874	116.9842
802.0209	115.8284
802.1677	119.7104
802.3145	118.1497
802.4613	115.9588
802.6081	114.1294
802.7549	110.6493
802.9017	109.2071
803.0485	113.4726
803.1952	118.7722
803.342	116.052
803.4887	111.683
803.6354	117.8625
803.7822	117.0472
803.9289	120.474
804.0756	113.374
804.2223	107.1237
804.369	112.3215
804.5156	109.6878
804.6623	108.4771
804.8089	110.8978
804.9556	108.2797
805.1022	108.3586
805.2488	110.3383
805.3954	112.7979
805.542	109.3481
805.6886	111.4022
805.8352	114.1182
805.9818	112.7364
806.1283	113.2958
806.2749	114.2561
806.4214	115.513
806.5679	115.0908
806.7145	118.2272
806.861	114.551
807.0074	112.8862
807.154	110.9986
807.3004	106.605
807.4469	101.5136
807.5934	107.9594
807.7398	106.6642
807.8862	112.0016
808.0327	104.9854
808.1791	98.90096
808.3255	106.8647
808.4719	106.2283
808.6183	104.5826
808.7647	104.2872
808.9111	108.695
809.0574	105.0459
809.2037	102.7855
809.3501	104.339
809.4965	98.22723
809.6428	98.21333
809.7891	99.18793
809.9354	96.95313
810.0817	97.94894
810.2279	95.72714
810.3742	106.5032
810.5204	97.85438
810.6667	89.70954
810.8129	97.32087
810.9592	97.52692
811.1054	94.79044
811.2516	93.43201
811.3978	101.6833
811.5439	98.56676
811.6901	99.00488
811.8363	97.62023
811.9825	93.53786
812.1286	98.29973
812.2748	97.26563
812.4209	90.14282
812.567	87.04256
812.7131	99.69674
812.8592	97.38419
813.0053	88.23917
813.1514	87.85583
813.2974	85.3993
813.4435	83.51045
813.5895	78.06386
813.7356	79.33865
813.8816	84.85052
814.0276	82.32828
814.1736	81.17989
814.3196	82.1701
814.4656	85.10001
814.6116	86.65012
814.7576	84.02451
814.9035	75.35432
815.0494	71.24237
815.1954	73.28753
815.3413	74.66496
815.4872	66.75157
815.6331	71.53727
815.779	81.39744
815.9249	79.51779
816.0707	76.25264
816.2166	71.92352
816.3625	70.44032
816.5083	67.86399
816.6542	68.74471
816.8	66.74594
816.9458	71.71255
817.0916	75.19671
817.2374	78.20936
817.3832	73.12807
817.5289	73.20459
817.6747	72.72739
817.8204	64.7159
817.9662	64.4269
818.1119	67.62697
818.2576	71.21665
818.4034	75.55222
818.5491	77.26765
818.6948	79.12955
818.8405	78.35398
818.9861	72.58552
819.1318	75.29616
819.2774	72.83251
819.423	75.31738
819.5687	71.77847
819.7143	70.78787
819.8599	71.51986
820.0055	67.75748
820.1511	72.66078
820.2967	74.76522
820.4422	78.96267
820.5878	78.71252
820.7333	83.27757
820.8788	84.73608
821.0244	79.0109
821.1699	75.51425
821.3154	76.02919
821.4609	72.88833
821.6064	73.94493
821.7519	79.908
821.8973	77.67026
822.0428	74.25452
822.1882	74.70195
822.3337	82.98791
822.4791	69.52746
822.6245	63.00207
822.7699	58.11602
822.9153	50.36143
823.0607	47.95876
823.2061	55.10548
823.3514	57.14876
823.4968	61.74618
823.6422	67.66553
823.7875	70.33742
823.9328	70.07163
824.0781	74.06028
824.2234	66.11921
824.3687	61.90738
824.514	71.88386
824.6592	80.88547
824.8045	75.96838
824.9498	73.23981
825.095	76.19708
825.2402	76.31131
825.3854	75.97631
825.5306	78.76713
825.6758	75.23048
825.821	66.90014
825.9662	72.20425
826.1114	70.25915
826.2565	65.31272
826.4017	73.18472
826.5468	78.91158
826.692	78.18926
826.837	79.22021
826.9822	75.12309
827.1273	70.9317
827.2723	68.11987
827.4174	66.09374
827.5625	64.53217
827.7075	72.36919
827.8526	71.07649
827.9976	72.37119
828.1426	69.87205
828.2877	68.6683
828.4327	69.84354
828.5776	72.78768
828.7227	73.8981
828.8676	62.98011
829.0126	66.24533
829.1575	70.63613
829.3024	66.70378
829.4474	61.02631
829.5923	67.56933
829.7372	67.52924
829.8821	69.43433
830.027	68.23422
830.1719	68.01779
830.3168	69.35211
830.4616	63.51624
830.6064	63.22145
830.7513	65.59028
830.8961	70.15977
831.041	68.12965
831.1857	67.38319
831.3306	69.24532
831.4753	68.4184
831.6201	64.95723
831.7649	61.65955
831.9096	62.95024
832.0544	67.9549
832.1991	65.94579
832.3438	66.68105
832.4885	68.82977
832.6332	64.83649
832.778	63.86252
832.9226	65.44234
833.0673	65.24899
833.2119	66.58633
833.3566	62.64748
833.5012	62.85653
833.6459	65.96119
833.7905	67.17583
833.9351	70.87686
834.0797	67.04073
834.2243	64.13857
834.3688	73.48016
834.5134	66.75095
834.658	65.66474
834.8026	67.18597
834.9471	72.07258
835.0916	69.26767
835.2361	65.4846
835.3806	65.06616
835.5251	66.27948
835.6696	71.71498
835.8141	64.8621
835.9586	65.97187
836.103	66.91734
836.2474	65.72163
836.3918	62.61837
836.5363	64.83644
836.6807	65.44955
836.8251	62.26458
836.9695	69.93327
837.1138	69.79415
837.2582	64.44078
837.4026	68.85995
837.5469	63.43634
837.6913	64.95487
837.8356	67.12714
837.9799	62.46703
838.1242	62.82143
838.2686	65.99993
838.4128	68.53793
838.5571	63.24038
838.7014	65.82215
838.8456	67.7369
838.9899	68.34151
839.1341	69.51743
839.2783	68.99796
839.4225	67.70508
839.5667	69.46251
839.7109	67.54426
839.8551	68.81584
839.9993	68.03069
840.1434	65.53802
840.2876	68.08518
840.4317	70.58755
840.5759	64.33436
840.72	64.52177
840.8641	66.51738
841.0082	65.15005
841.1523	68.48945
841.2963	68.70845
841.4404	65.1889
841.5845	56.98796
841.7285	59.67753
841.8726	60.77702
842.0165	62.47074
842.1606	63.52551
842.3046	64.42896
842.4485	63.89352
842.5925	61.82805
842.7365	66.4623
842.8805	64.37648
843.0244	63.37523
843.1684	60.70752
843.3123	59.8479
843.4562	66.29737
843.6002	61.6026
843.744	66.49297
843.8879	57.82402
844.0318	61.52276
844.1757	65.6668
844.3195	62.87751
844.4634	56.59867
844.6072	60.75281
844.751	58.41684
844.8948	62.57778
845.0386	62.55821
845.1824	63.34794
845.3262	64.93528
845.47	67.24725
845.6138	67.46117
845.7575	68.94135
845.9012	64.60113
846.045	67.29314
846.1887	68.48003
846.3324	69.64298
846.4761	65.34824
846.6198	64.32847
846.7635	69.95734
846.9071	64.14246
847.0508	64.33793
847.1944	64.53253
847.3381	59.39874
847.4817	58.96815
847.6253	58.70264
847.7689	60.43955
847.9125	62.94519
848.0561	60.18227
848.1996	57.65713
848.3432	65.12968
848.4868	65.62774
848.6303	58.97254
848.7738	62.15728
848.9174	58.89777
849.0609	59.92492
849.2043	57.99454
849.3478	59.86349
849.4913	56.10885
849.6348	52.13063
849.7782	49.72628
849.9217	49.23896
850.0651	55.70882
850.2086	52.64285
850.3519	57.65443
850.4954	58.49051
850.6387	62.58333
850.7821	61.53988
850.9255	57.08213
851.0688	63.59741
851.2122	57.30578
851.3555	56.94946
851.4988	56.46031
851.6422	53.23121
851.7855	57.85315
851.9288	60.84978
852.0721	61.45008
852.2153	57.73608
852.3586	56.36203
852.5018	59.37949
852.6451	57.92773
852.7883	58.94799
852.9315	60.03687
853.0748	56.79676
853.218	58.2352
853.3611	57.90902
853.5043	57.4314
853.6475	56.69847
853.7906	60.03476
853.9338	54.34185
854.0769	42.42667
854.22	38.80387
854.3632	40.24719
854.5063	45.32782
854.6494	50.42162
854.7924	54.12103
854.9355	53.66635
855.0786	51.29027
855.2216	58.61514
855.3647	56.13572
855.5077	60.65277
855.6507	60.43558
855.7937	50.57639
855.9367	53.47837
856.0797	57.53928
856.2227	61.93112
856.3657	60.63129
856.5086	60.31175
856.6516	59.24742
856.7945	55.636
856.9374	58.22918
857.0803	50.86477
857.2232	58.35952
857.3661	61.1069
857.509	58.46582
857.6519	52.19214
857.7947	54.721
857.9376	56.02048
858.0804	58.43288
858.2232	51.43837
858.366	52.38903
858.5089	56.54488
858.6516	54.26242
858.7944	49.31224
858.9372	51.57397
859.08	52.3974
859.2227	55.92974
859.3654	56.35498
859.5082	57.60324
859.6509	51.91469
859.7936	49.44677
859.9363	49.60084
860.079	48.00961
860.2217	52.94311
860.3643	53.05857
860.507	50.74568
860.6496	52.66899
860.7922	54.4201
860.9349	57.10582
861.0775	55.80391
861.2201	53.5369
861.3627	48.77816
861.5052	50.85192
861.6478	48.37224
861.7904	53.6196
861.9329	55.84865
862.0755	55.65449
862.218	51.60847
862.3605	50.69662
862.503	50.91063
862.6455	51.85202
862.788	53.26002
862.9305	51.62851
863.0729	47.11918
863.2154	49.26332
863.3578	49.19172
863.5002	53.05226
863.6426	51.61278
863.7851	53.30874
863.9275	49.95091
864.0698	47.67619
864.2122	47.48617
864.3546	50.71994
864.4969	50.45686
864.6393	52.7127
864.7816	50.16551
864.924	49.6529
865.0662	46.67178
865.2086	45.18694
865.3508	44.92441
865.4931	47.39597
865.6354	41.07114
865.7776	47.59459
865.9199	44.50174
866.0621	40.90401
866.2043	34.65388
866.3466	35.27308
866.4888	33.56631
866.6309	42.4012
866.7731	46.84549
866.9153	45.79058
867.0574	45.87145
867.1996	48.15834
867.3417	50.04539
867.4839	50.32489
867.626	45.08062
867.7681	45.99258
867.9102	45.33578
868.0522	44.40564
868.1943	42.00836
868.3364	45.89853
868.4785	48.06635
868.6205	49.74803
868.7625	44.64883
868.9045	50.46792
869.0465	45.94842
869.1885	48.86523
869.3305	46.14619
869.4725	47.68094
869.6144	47.17909
869.7564	46.63796
869.8983	41.49029
870.0403	45.76909
870.1822	45.39521
870.3241	49.60951
870.466	48.80269
870.6079	45.03738
870.7498	48.9902
870.8916	48.57996
871.0335	43.28001
871.1754	46.63143
871.3171	43.46946
871.459	45.19667
871.6008	49.94997
871.7426	41.81361
871.8844	41.44271
872.0262	42.78216
872.1679	42.50788
872.3097	42.94508
872.4514	47.42367
872.5931	44.25243
872.7349	40.53927
872.8766	41.23394
873.0183	46.94805
873.16	42.55203
873.3017	43.66384
873.4434	42.74292
873.585	47.21657
873.7266	43.41912
873.8683	41.01273
874.0099	39.32391
874.1516	37.85141
874.2932	41.74891
874.4348	40.37351
874.5763	41.5061
874.7179	44.86663
874.8594	41.72258
875.001	43.11544
875.1425	42.51361
875.2841	42.29607
875.4256	37.53262
875.5671	40.22618
875.7086	40.39248
875.85	41.41598
875.9915	42.33444
876.133	43.35448
876.2744	43.63287
876.4159	43.93333
876.5573	41.54855
876.6987	37.49185
876.8401	36.5125
876.9815	40.67421
877.1229	43.36264
877.2643	41.33268
877.4056	44.31858
877.547	40.96486
877.6884	40.15365
877.8297	42.27528
877.971	42.08044
878.1123	45.86341
878.2536	39.89451
878.3949	41.8303
878.5362	43.15881
878.6774	42.27401
878.8187	38.14141
878.9599	41.1434
879.1011	38.80202
879.2424	35.5042
879.3836	35.14851
879.5248	36.50223
879.666	38.3242
879.8071	44.51753
879.9483	41.35245
880.0895	37.68555
880.2306	38.79089
880.3718	33.86663
880.5129	37.19541
880.654	34.57238
880.7951	38.76489
880.9362	40.99397
881.0773	37.80614
881.2183	32.40858
881.3594	37.28103
881.5004	38.04036
881.6414	39.73501
881.7825	38.39889
881.9235	39.73919
882.0645	38.13387
882.2054	39.43104
882.3464	39.11375
882.4874	35.78143
882.6284	38.09391
882.7693	35.76867
882.9103	38.45211
883.0512	39.95257
883.1921	37.54438
883.333	37.15284
883.4739	35.72082
883.6147	39.79763
883.7556	39.27565
883.8965	38.79231
884.0374	40.91315
884.1782	33.90177
884.319	37.42107
884.4598	39.37919
884.6006	35.96247
884.7414	36.34825
884.8822	39.21527
885.0229	42.63264
885.1637	40.73884
885.3044	35.28775
885.4452	34.02282
885.5859	38.11145
885.7266	38.73329
885.8673	37.5988
886.008	38.75427
886.1487	39.35156
886.2894	38.50441
886.43	36.60891
886.5707	41.65937
886.7113	36.21571
886.8519	37.38984
886.9926	32.95276
887.1331	36.4678
887.2737	38.50743
887.4143	34.82393
887.5549	41.35059
887.6954	40.91835
887.836	37.54615
887.9765	38.58265
888.1171	33.70558
888.2576	37.99408
888.3981	36.21155
888.5386	34.31904
888.679	34.01814
888.8195	30.58523
888.96	30.22427
889.1004	35.14817
889.2408	33.78307
889.3813	36.28651
889.5217	32.07681
889.6621	36.33374
889.8025	34.75314
889.9429	36.56703
890.0833	39.16156
890.2236	33.54472
890.364	36.93006
890.5043	34.24671
890.6446	31.21399
890.7849	33.19032
890.9252	34.06726
891.0655	36.47369
891.2058	35.90734
891.3461	34.36392
891.4863	30.93456
891.6266	35.93864
891.7668	38.63087
891.907	33.44427
892.0472	33.03711
892.1874	35.40819
892.3276	39.94846
892.4678	31.68728
892.608	34.58938
892.7481	36.18184
892.8883	30.59547
893.0284	30.37772
893.1685	31.61508
893.3087	33.81687
893.4487	34.87858
893.5889	35.01063
893.7289	33.99557
893.869	33.75229
894.009	30.62496
894.1491	29.79735
894.2891	27.95159
894.4291	30.51155
894.5692	27.569
894.7092	30.03402
894.8491	27.84507
894.9891	28.91766
895.1291	27.29863
895.269	28.57924
895.409	31.08443
895.549	28.59831
895.6888	28.61528
895.8288	29.32408
895.9687	30.69878
896.1086	29.14363
896.2484	31.41503
896.3883	23.63997
896.5281	23.41628
896.668	25.3351
896.8079	30.2565
896.9476	31.16932
897.0875	26.70611
897.2272	25.28238
897.3671	21.08175
897.5068	19.42242
897.6466	25.89524
897.7864	26.51717
897.9261	24.98679
898.0658	27.13263
898.2056	28.34973
898.3453	26.78442
898.4849	25.62205
898.6246	20.075
898.7643	25.28687
898.904	20.47331
899.0436	19.48082
899.1833	16.24417
899.3229	20.93325
899.4625	21.56262
899.6021	28.67506
899.7417	30.27498
899.8813	26.6969
900.0209	26.01009
900.1605	24.45474
900.3	22.66093
900.4395	22.65587
900.579	22.83653
900.7186	22.87256
900.8581	22.1596
900.9976	24.7919
901.1371	21.11574
901.2766	24.64252
901.416	24.87346
901.5555	18.92015
901.6949	22.27638
901.8344	24.74826
901.9738	23.26863
902.1132	23.42469
902.2526	20.35594
902.3919	22.25599
902.5313	19.52564
902.6707	16.19734
