SPECTRUM DATA FILE
SpectrumCount:	1
PixelCount:	3648
UserName:	ToughBook User
SampleName:	
LightSource:	
Comments:	
DeviceName:	Qwave
DeviceManufacturer:	Broadcom
DeviceSerialNo:	11311

Name:	last spectrum
Date:	2024-05-02T15:06:36.3462253+02:00
ExposureTime:	0.02
TemporalAvg:	1
IntensityUnit:	normalizedCounts
CCDLoadLevel:	0.02606397
Temperature:	28.38461
DiagramColor:	200
ProcessingSteps:	335

Wavelength [nm]	Intensity1
334.421	1.588978
334.5891	4.141144
334.7573	5.22187
334.9254	4.854515
335.0935	6.482926
335.2616	5.313881
335.4297	3.932316
335.5978	4.704861
335.7659	3.696713
335.934	1.629412
336.1021	4.838354
336.2701	1.22822
336.4382	8.588585
336.6063	3.451482
336.7744	2.836661
336.9424	4.367061
337.1105	5.960531
337.2785	3.929188
337.4466	6.864329
337.6146	3.344237
337.7827	5.464096
337.9507	2.929601
338.1187	5.85355
338.2867	3.835486
338.4548	3.512164
338.6228	6.09122
338.7908	1.809913
338.9588	8.474675
339.1268	4.422215
339.2948	1.436051
339.4628	4.396479
339.6308	7.469198
339.7988	8.271477
339.9667	5.629743
340.1347	3.320641
340.3027	4.187176
340.4707	2.53775
340.6386	4.099466
340.8066	3.292575
340.9745	0.1818713
341.1425	2.144436
341.3104	5.334299
341.4784	3.027517
341.6463	1.887052
341.8142	5.703925
341.9821	4.269691
342.1501	4.778234
342.318	3.444988
342.4859	1.593877
342.6538	2.876862
342.8217	5.622968
342.9896	4.494845
343.1575	5.795304
343.3254	7.581424
343.4933	9.209717
343.6612	5.359911
343.829	7.291767
343.9969	3.897126
344.1648	7.295813
344.3326	2.923113
344.5005	5.658249
344.6683	3.880663
344.8362	4.316471
345.004	6.394116
345.1719	2.447502
345.3397	2.43551
345.5075	2.937849
345.6754	2.09199
345.8432	5.122917
346.011	5.66326
346.1788	7.677661
346.3466	3.65311
346.5144	3.477288
346.6822	4.843255
346.85	6.487623
347.0178	6.445916
347.1856	4.248196
347.3534	-0.1664782
347.5211	4.857618
347.6889	10.30753
347.8567	6.1389
348.0244	9.219233
348.1922	2.176167
348.3599	4.580862
348.5277	5.435673
348.6954	7.803585
348.8632	4.297768
349.0309	-0.7133089
349.1986	6.508867
349.3663	1.191621
349.5341	3.304367
349.7018	2.428221
349.8695	0.6495066
350.0372	-0.1715082
350.2049	3.422355
350.3726	5.637829
350.5403	5.519759
350.7079	3.898649
350.8756	4.2797
351.0433	8.082323
351.211	4.811078
351.3786	3.512223
351.5463	5.631603
351.714	4.862046
351.8816	-0.6603701
352.0493	3.974612
352.2169	8.131203
352.3846	5.650786
352.5522	3.528779
352.7198	8.231239
352.8875	6.495045
353.0551	6.57653
353.2227	5.414251
353.3903	5.60251
353.5579	2.085445
353.7255	5.000018
353.8931	2.527111
354.0607	4.227859
354.2283	4.029151
354.3958	2.156032
354.5634	4.729848
354.731	3.333716
354.8986	1.923957
355.0661	7.506461
355.2337	9.613141
355.4012	9.026175
355.5688	6.611595
355.7363	3.402162
355.9039	3.116273
356.0714	7.048511
356.239	6.020402
356.4065	3.915551
356.574	3.388006
356.7415	3.89662
356.909	6.102561
357.0765	4.270664
357.244	2.788799
357.4115	2.37372
357.579	1.038046
357.7465	9.49141
357.914	6.253683
358.0815	1.158697
358.249	3.052279
358.4164	6.633018
358.5839	3.591447
358.7513	5.839126
358.9188	6.778107
359.0862	1.852214
359.2537	6.254371
359.4211	4.783872
359.5886	2.244168
359.756	3.103211
359.9234	5.836943
360.0909	7.016413
360.2583	4.478923
360.4257	2.668435
360.5931	6.028658
360.7605	5.549356
360.9279	3.823441
361.0953	8.822344
361.2627	3.142123
361.4301	5.796275
361.5974	2.211195
361.7648	5.176902
361.9322	6.546486
362.0995	6.980273
362.2669	9.674302
362.4343	4.858544
362.6016	5.044456
362.769	4.258804
362.9363	8.806924
363.1036	10.42943
363.271	8.851606
363.4383	5.141796
363.6056	5.013993
363.7729	7.993705
363.9402	7.544707
364.1075	5.336313
364.2748	7.632826
364.4421	5.369806
364.6094	4.796269
364.7767	7.143269
364.944	6.37581
365.1113	12.45971
365.2786	8.002504
365.4458	5.659262
365.6131	5.511537
365.7803	7.265816
365.9476	8.525402
366.1148	6.20707
366.2821	6.037134
366.4493	5.461087
366.6166	5.964695
366.7838	6.958763
366.951	11.68034
367.1182	4.456529
367.2855	8.673003
367.4527	6.564742
367.6199	5.732215
367.7871	4.406714
367.9543	6.984161
368.1215	5.346666
368.2886	6.843626
368.4558	9.577314
368.623	9.627183
368.7902	8.463387
368.9573	4.577525
369.1245	2.915554
369.2917	5.782542
369.4588	7.116442
369.6259	7.313797
369.7931	4.892965
369.9602	4.360505
370.1274	10.89397
370.2945	7.709818
370.4616	2.015253
370.6287	8.040462
370.7958	7.362154
370.963	4.49149
371.1301	5.947872
371.2971	10.39762
371.4643	10.72083
371.6313	8.855844
371.7984	4.106573
371.9655	5.90935
372.1326	9.787026
372.2997	4.69853
372.4667	6.925073
372.6338	8.798576
372.8008	9.868147
372.9679	7.514663
373.1349	4.076371
373.3019	2.687619
373.469	1.796134
373.636	7.012288
373.803	4.022448
373.9701	7.906423
374.1371	6.720775
374.3041	10.17953
374.4711	6.639295
374.6381	6.418563
374.8051	13.2476
374.9721	9.516214
375.1391	8.795766
375.3061	6.099452
375.473	8.075641
375.64	10.77149
375.8069	6.291579
375.9739	8.593673
376.1409	7.800173
376.3078	5.900762
376.4748	5.407724
376.6417	10.70846
376.8087	10.97313
376.9756	12.07149
377.1425	15.96309
377.3094	7.995161
377.4763	2.538975
377.6432	5.685598
377.8102	6.484924
377.9771	9.183709
378.144	8.951586
378.3109	4.244005
378.4777	9.048698
378.6446	9.529917
378.8115	9.036145
378.9784	8.423103
379.1452	6.765057
379.3121	6.837787
379.4789	5.370845
379.6458	6.177454
379.8127	8.388072
379.9795	4.565911
380.1463	6.845387
380.3131	10.44266
380.48	10.59712
380.6468	10.63793
380.8136	3.860947
380.9804	6.396926
381.1472	5.834527
381.314	6.408711
381.4808	8.030663
381.6476	8.271467
381.8144	9.166895
381.9812	6.395595
382.148	6.497124
382.3147	3.531739
382.4815	2.066307
382.6483	5.687375
382.815	5.96637
382.9818	7.163407
383.1485	3.918531
383.3153	1.636626
383.482	9.771744
383.6487	7.764619
383.8155	6.125462
383.9822	7.221666
384.1489	9.368566
384.3156	9.711947
384.4823	10.57821
384.649	11.4011
384.8157	12.36954
384.9824	12.95492
385.1491	10.10558
385.3158	1.193525
385.4825	4.75256
385.6491	8.135428
385.8158	8.875379
385.9825	9.642481
386.1491	6.823006
386.3157	2.294744
386.4824	6.286997
386.649	4.000507
386.8157	7.109231
386.9823	7.411752
387.1489	7.428282
387.3156	6.470841
387.4821	11.40222
387.6488	8.250918
387.8154	5.708639
387.982	6.235299
388.1486	6.365319
388.3152	8.726748
388.4818	4.287825
388.6483	6.978134
388.8149	10.55995
388.9815	2.644694
389.148	9.078197
389.3146	9.767069
389.4811	9.297544
389.6477	6.663163
389.8142	8.615988
389.9808	9.192317
390.1473	9.408576
390.3138	12.5893
390.4804	6.342987
390.6469	7.706949
390.8134	8.260398
390.9799	8.873932
391.1464	11.61318
391.3129	11.06296
391.4794	10.94796
391.6459	9.899282
391.8124	9.366192
391.9789	8.714381
392.1453	11.58909
392.3118	8.826345
392.4782	8.236346
392.6447	9.879319
392.8112	9.161885
392.9776	9.721908
393.144	4.878709
393.3105	11.415
393.4769	5.211491
393.6433	7.702088
393.8098	8.231271
393.9762	3.319324
394.1426	5.333605
394.309	7.49718
394.4754	10.38336
394.6418	12.4441
394.8082	11.83548
394.9746	6.997888
395.141	10.86264
395.3073	9.324121
395.4737	11.41756
395.64	13.70476
395.8064	11.60245
395.9728	12.29725
396.1391	9.277493
396.3055	11.70802
396.4718	6.073857
396.6381	7.220626
396.8045	5.151718
396.9708	5.614297
397.1371	13.0362
397.3034	9.511125
397.4697	15.26775
397.636	12.31562
397.8023	8.331897
397.9686	13.43696
398.1349	10.00113
398.3012	12.41757
398.4675	12.20719
398.6337	19.99598
398.8	15.63052
398.9662	9.33686
399.1325	14.64154
399.2988	12.75013
399.465	13.88907
399.6313	12.311
399.7975	9.431677
399.9637	12.35321
400.1299	13.05349
400.2961	15.09442
400.4624	11.67316
400.6286	11.24715
400.7948	10.1396
400.961	13.81205
401.1272	12.51352
401.2934	14.08953
401.4595	14.24244
401.6257	11.02443
401.7919	9.013041
401.9581	8.154759
402.1242	14.31461
402.2904	10.21763
402.4565	8.199417
402.6227	10.26221
402.7888	13.54132
402.955	12.23755
403.1211	12.00014
403.2872	15.26374
403.4533	13.59602
403.6194	10.88907
403.7856	13.42341
403.9517	15.49821
404.1177	12.29061
404.2838	14.61854
404.4499	13.99424
404.616	11.82903
404.7821	11.14914
404.9482	12.86291
405.1142	15.71586
405.2803	11.03436
405.4464	13.72994
405.6124	11.65954
405.7784	12.25629
405.9445	12.53687
406.1105	12.13994
406.2766	12.73662
406.4426	11.42949
406.6086	10.67747
406.7746	15.27996
406.9406	15.9612
407.1066	12.97963
407.2726	11.88419
407.4386	12.40066
407.6046	11.97754
407.7706	10.64717
407.9366	10.76858
408.1025	12.58982
408.2685	15.67551
408.4344	17.77764
408.6004	8.977122
408.7664	11.5072
408.9323	13.32831
409.0983	15.73662
409.2642	12.63767
409.4301	16.26603
409.596	16.11
409.762	15.33288
409.9279	15.89705
410.0938	10.25307
410.2597	12.51724
410.4256	13.15082
410.5915	14.64164
410.7574	15.86189
410.9232	14.20656
411.0891	13.07079
411.255	10.19813
411.4209	19.25451
411.5867	18.58506
411.7526	16.15103
411.9184	15.7085
412.0843	15.54999
412.2501	15.22179
412.4159	16.48487
412.5818	14.23909
412.7476	13.00797
412.9134	12.93609
413.0792	15.5666
413.245	16.1643
413.4108	14.10247
413.5766	16.30762
413.7424	12.09643
413.9082	13.72618
414.074	17.38037
414.2397	16.9306
414.4055	12.77614
414.5713	11.945
414.737	11.37789
414.9028	13.08235
415.0685	13.17504
415.2343	14.03672
415.4	11.63647
415.5658	15.95615
415.7315	17.05863
415.8972	14.35069
416.0629	15.73671
416.2286	13.30004
416.3943	17.62723
416.56	15.60837
416.7257	17.60291
416.8914	13.07951
417.0571	17.24545
417.2228	16.5936
417.3884	16.36685
417.5541	18.89523
417.7198	19.61703
417.8854	15.77291
418.0511	15.17504
418.2167	16.08162
418.3824	12.61719
418.548	13.25011
418.7136	17.32968
418.8792	19.1668
419.0449	10.9641
419.2105	18.21607
419.3761	15.35143
419.5417	14.91031
419.7073	13.81591
419.8729	14.98454
420.0385	14.40044
420.204	11.93297
420.3696	15.85626
420.5352	19.56297
420.7007	15.42579
420.8663	17.53143
421.0319	15.93436
421.1974	15.76227
421.3629	24.19893
421.5285	20.7365
421.694	18.8647
421.8595	13.32983
422.0251	19.40958
422.1906	19.81907
422.3561	16.12025
422.5216	13.29988
422.6871	13.21556
422.8526	15.55089
423.0181	16.80286
423.1835	15.26296
423.349	19.18383
423.5145	27.10329
423.68	19.87576
423.8454	22.34517
424.0109	17.63018
424.1763	19.33255
424.3418	20.8876
424.5072	18.31454
424.6726	18.76304
424.838	19.26637
425.0035	17.29575
425.1689	17.31348
425.3343	16.46179
425.4997	21.50435
425.6651	18.94011
425.8305	18.25698
425.9959	22.25326
426.1613	22.82058
426.3267	23.06405
426.492	20.04326
426.6574	22.39127
426.8228	25.86072
426.9881	22.4792
427.1534	16.04848
427.3188	15.72019
427.4841	17.29481
427.6495	15.86141
427.8148	17.53164
427.9801	20.69485
428.1454	20.45738
428.3107	23.80795
428.476	23.21898
428.6414	19.47632
428.8066	18.8373
428.9719	21.80984
429.1372	19.13921
429.3025	19.80896
429.4678	23.43251
429.633	24.16335
429.7983	17.96049
429.9636	19.69099
430.1288	15.73384
430.294	16.79496
430.4593	14.0355
430.6245	20.32395
430.7897	14.51273
430.955	17.06614
431.1202	17.6008
431.2854	25.09135
431.4506	21.60279
431.6158	21.32528
431.781	24.37368
431.9462	28.33661
432.1114	23.70715
432.2766	21.29795
432.4417	21.13069
432.6069	16.85846
432.772	19.61051
432.9372	24.65843
433.1024	20.29077
433.2675	25.90791
433.4326	18.71002
433.5977	19.9546
433.7629	17.45298
433.928	16.90598
434.0931	19.82187
434.2582	21.19112
434.4233	24.50633
434.5884	21.44378
434.7535	23.20616
434.9186	26.10431
435.0837	19.14874
435.2488	24.63713
435.4138	24.8474
435.5789	23.07136
435.744	22.95754
435.909	25.45039
436.0741	27.45086
436.2391	23.13734
436.4042	23.15693
436.5692	24.61325
436.7342	23.62762
436.8992	24.91905
437.0643	27.95798
437.2293	21.61412
437.3943	18.99359
437.5593	23.16862
437.7243	22.1762
437.8893	26.99634
438.0542	24.90574
438.2192	26.02073
438.3842	23.57257
438.5491	23.10391
438.7141	19.02518
438.8791	23.23287
439.044	26.04272
439.209	27.07117
439.3739	22.49551
439.5388	31.4045
439.7037	25.82227
439.8687	27.03558
440.0336	24.32223
440.1985	26.32086
440.3634	22.92015
440.5283	23.70842
440.6932	25.87999
440.8581	25.81596
441.0229	27.68952
441.1878	30.59189
441.3527	25.60998
441.5175	22.83419
441.6824	25.36096
441.8472	23.53964
442.0121	27.42337
442.1769	23.92769
442.3418	30.44299
442.5066	32.71709
442.6714	25.35741
442.8362	32.38424
443.001	30.69784
443.1659	24.1007
443.3307	26.62762
443.4955	27.86859
443.6602	29.86346
443.825	27.80115
443.9898	31.35641
444.1546	28.69792
444.3193	26.07562
444.4841	31.52902
444.6488	23.23598
444.8136	25.63203
444.9783	31.51413
445.1431	30.84126
445.3078	32.4846
445.4725	24.3256
445.6372	27.51217
445.802	26.25541
445.9667	26.33079
446.1314	26.15355
446.2961	25.02169
446.4608	27.5467
446.6255	29.89508
446.7901	28.2465
446.9548	24.59827
447.1195	31.99396
447.2841	31.84875
447.4488	28.61541
447.6134	31.68533
447.7781	31.72909
447.9427	29.01458
448.1074	30.16358
448.272	26.5439
448.4366	24.38883
448.6012	27.50373
448.7658	32.26551
448.9305	35.9497
449.095	30.92538
449.2596	30.12517
449.4242	31.06834
449.5888	29.56643
449.7534	26.75456
449.9179	25.37146
450.0825	26.66938
450.2471	29.96524
450.4116	25.48348
450.5762	34.34644
450.7407	33.86843
450.9052	32.31025
451.0698	30.27337
451.2343	30.88529
451.3988	30.40578
451.5633	29.08434
451.7278	30.15587
451.8923	30.68891
452.0568	32.99841
452.2213	35.2855
452.3858	30.21146
452.5503	35.36758
452.7148	32.46146
452.8792	31.83329
453.0437	28.3171
453.2081	29.14409
453.3726	29.48605
453.537	29.82903
453.7015	30.26274
453.8659	33.4036
454.0303	35.34673
454.1947	30.33953
454.3592	34.22091
454.5236	30.8945
454.688	33.74411
454.8524	29.72583
455.0168	32.32507
455.1811	34.37082
455.3455	37.56283
455.5099	36.67044
455.6743	29.24582
455.8386	34.33383
456.003	36.09417
456.1673	34.21415
456.3317	33.56501
456.496	31.46121
456.6603	38.72413
456.8246	38.26043
456.989	32.60182
457.1533	32.18151
457.3176	36.3191
457.4819	35.09224
457.6462	32.98014
457.8105	34.99964
457.9748	35.59145
458.1391	34.49472
458.3033	33.64503
458.4676	34.1652
458.6319	34.83689
458.7961	29.84833
458.9604	33.19872
459.1246	36.13463
459.2888	33.8071
459.4531	36.06711
459.6173	33.30999
459.7815	30.47024
459.9457	36.81392
460.11	30.47535
460.2741	33.93144
460.4384	32.97518
460.6025	39.24237
460.7667	35.73591
460.9309	34.32449
461.0951	35.0164
461.2592	35.86322
461.4234	34.04536
461.5876	30.9984
461.7517	29.36975
461.9159	29.3788
462.08	31.70273
462.2441	39.79457
462.4082	34.15624
462.5724	34.46153
462.7365	37.25328
462.9006	36.12825
463.0647	32.07605
463.2288	35.99607
463.3929	35.97047
463.557	35.24604
463.721	34.93936
463.8851	35.44235
464.0492	35.29624
464.2132	33.00184
464.3773	37.95691
464.5414	33.85775
464.7054	32.00869
464.8694	36.33484
465.0334	30.24107
465.1975	32.41143
465.3615	36.46176
465.5255	37.40835
465.6895	36.49766
465.8535	34.06502
466.0175	37.44355
466.1815	39.52499
466.3455	36.7019
466.5095	36.58594
466.6734	32.13729
466.8374	32.05265
467.0014	31.34052
467.1653	32.96368
467.3293	32.70201
467.4932	35.46048
467.6571	34.74513
467.8211	32.65472
467.985	32.45789
468.1489	34.72803
468.3128	35.61591
468.4767	38.02989
468.6406	38.35502
468.8045	36.95725
468.9684	34.98346
469.1323	37.21044
469.2962	35.45783
469.46	33.66039
469.6239	35.2458
469.7878	40.46551
469.9516	38.10491
470.1154	33.27029
470.2793	38.7422
470.4431	38.03815
470.607	35.12594
470.7708	37.29995
470.9346	35.21223
471.0984	36.19542
471.2622	39.42681
471.426	39.51027
471.5898	34.85202
471.7536	40.23419
471.9174	41.93064
472.0811	41.55274
472.2449	36.64329
472.4087	36.13987
472.5724	39.63543
472.7362	36.9482
472.8999	33.55051
473.0637	36.68373
473.2274	35.98744
473.3911	37.09002
473.5548	34.0792
473.7185	35.16368
473.8822	30.97945
474.0459	33.6586
474.2096	37.71817
474.3733	40.64426
474.537	37.33302
474.7007	36.46024
474.8643	38.72356
475.028	39.78524
475.1917	40.98409
475.3553	37.59207
475.519	33.69405
475.6826	39.77769
475.8463	35.14915
476.0099	32.4078
476.1735	37.92973
476.3371	39.67505
476.5007	39.46784
476.6643	36.81595
476.8279	33.13207
476.9915	34.95936
477.1551	36.56125
477.3187	39.54852
477.4823	37.84422
477.6458	40.64968
477.8094	38.48592
477.9729	40.15061
478.1365	36.98508
478.3	34.43013
478.4636	34.86886
478.6271	37.50509
478.7906	39.2439
478.9541	35.90766
479.1176	33.99485
479.2812	37.32814
479.4447	37.79163
479.6082	39.84227
479.7716	34.38453
479.9351	32.63172
480.0986	35.90104
480.2621	37.54522
480.4255	48.3493
480.589	45.16349
480.7524	36.6745
480.9159	34.39233
481.0793	39.46914
481.2428	39.17835
481.4062	38.32459
481.5696	38.77967
481.733	36.643
481.8964	34.02029
482.0598	34.20919
482.2232	41.5597
482.3866	38.38602
482.55	36.78276
482.7134	36.28067
482.8768	33.92445
483.0401	32.26803
483.2035	35.35664
483.3668	36.0995
483.5302	35.10801
483.6935	41.88626
483.8568	36.10279
484.0202	37.97485
484.1835	35.85597
484.3468	33.50468
484.5101	35.41645
484.6734	36.35921
484.8367	35.99863
485	37.65839
485.1633	41.84882
485.3266	39.66331
485.4899	35.43263
485.6531	32.33425
485.8164	34.09333
485.9796	33.7807
486.1429	29.64081
486.3061	32.02505
486.4694	30.8363
486.6326	34.69335
486.7958	44.61522
486.959	40.81643
487.1223	32.19881
487.2855	34.48787
487.4486	38.52534
487.6118	36.56921
487.775	35.15553
487.9382	37.03848
488.1014	37.96226
488.2646	34.15825
488.4277	35.90713
488.5909	36.9023
488.754	35.44757
488.9171	35.44882
489.0803	37.05292
489.2434	34.57898
489.4066	41.92283
489.5697	41.99751
489.7328	40.43238
489.8959	44.55866
490.059	36.49435
490.2221	35.757
490.3852	36.07604
490.5482	37.08684
490.7113	36.82864
490.8744	37.70147
491.0374	39.12974
491.2005	38.15561
491.3636	40.95379
491.5266	38.23082
491.6896	41.44835
491.8527	35.34451
492.0157	38.74299
492.1787	39.49631
492.3417	35.91655
492.5047	41.98159
492.6677	43.77113
492.8307	38.16139
492.9937	43.80973
493.1567	40.77279
493.3196	40.90479
493.4826	40.57977
493.6456	35.08316
493.8085	42.70228
493.9715	41.58191
494.1344	32.96416
494.2974	39.0748
494.4603	40.07032
494.6232	41.80782
494.7861	42.06151
494.949	38.60235
495.1119	39.71588
495.2748	41.3471
495.4377	44.55735
495.6006	39.47264
495.7635	39.21946
495.9264	38.90884
496.0892	37.4942
496.2521	39.67398
496.4149	43.14376
496.5778	40.81115
496.7407	39.96546
496.9035	44.00406
497.0663	44.00434
497.2291	35.48465
497.3919	36.84428
497.5547	40.80796
497.7176	42.16449
497.8804	38.77204
498.0432	38.64857
498.2059	40.78315
498.3687	36.58655
498.5315	39.83839
498.6942	39.61436
498.857	45.32583
499.0198	48.56353
499.1825	45.06684
499.3452	41.29797
499.508	42.962
499.6707	43.41474
499.8334	43.94339
499.9962	37.85342
500.1589	36.7919
500.3216	38.08556
500.4843	42.34834
500.6469	42.84028
500.8096	41.33484
500.9723	37.00859
501.135	34.93177
501.2976	38.16948
501.4603	39.54629
501.623	41.71653
501.7856	42.13684
501.9482	40.91739
502.1109	41.89299
502.2735	42.24654
502.4361	43.14517
502.5987	40.81097
502.7614	39.80357
502.924	43.15224
503.0865	41.22458
503.2491	38.16785
503.4117	39.42208
503.5743	41.12741
503.7368	36.55234
503.8994	41.74461
504.062	40.6349
504.2245	41.39992
504.3871	43.12814
504.5496	45.2823
504.7121	46.21595
504.8746	42.54879
505.0372	44.91356
505.1997	48.94304
505.3622	44.26496
505.5247	45.77147
505.6872	46.83542
505.8497	44.40611
506.0121	52.43974
506.1746	48.64074
506.3371	47.6254
506.4995	49.27642
506.662	45.61653
506.8244	42.24064
506.9869	49.41093
507.1493	50.10744
507.3117	44.31263
507.4742	43.66562
507.6366	48.11395
507.799	49.09404
507.9614	48.99138
508.1238	45.38066
508.2862	40.87386
508.4485	43.17201
508.6109	39.87578
508.7733	41.02932
508.9357	44.4963
509.098	51.16055
509.2604	48.30244
509.4227	47.50167
509.5851	49.50407
509.7474	46.45821
509.9097	42.67676
510.072	44.28803
510.2343	48.41303
510.3966	54.93232
510.5589	50.1452
510.7212	46.99929
510.8835	49.37563
511.0458	46.8157
511.2081	53.52734
511.3703	46.79596
511.5326	47.67272
511.6949	45.29642
511.8571	50.8271
512.0193	45.259
512.1816	46.71381
512.3438	48.29839
512.506	47.64218
512.6682	49.67439
512.8304	48.94955
512.9926	51.8588
513.1548	52.14804
513.317	49.58176
513.4792	50.56949
513.6414	54.28827
513.8035	52.7127
513.9657	54.80034
514.1279	53.4095
514.29	51.62044
514.4521	51.94172
514.6143	56.81108
514.7764	52.72727
514.9385	51.1302
515.1006	55.46549
515.2628	53.30899
515.4249	55.11879
515.587	54.07347
515.7491	54.61543
515.9111	55.46021
516.0732	55.33325
516.2353	52.61657
516.3973	54.72205
516.5594	51.83727
516.7214	54.88087
516.8835	54.26686
517.0455	46.73
517.2076	43.77148
517.3696	48.39269
517.5316	50.70797
517.6937	56.9109
517.8557	54.32718
518.0176	51.48818
518.1796	53.49823
518.3416	50.9477
518.5036	45.98443
518.6656	50.54205
518.8275	53.28258
518.9895	51.39159
519.1514	59.6824
519.3134	60.29208
519.4753	56.40796
519.6373	55.77894
519.7992	57.76412
519.9611	59.30658
520.123	60.88444
520.2849	57.14148
520.4468	55.65993
520.6087	61.32914
520.7706	55.48919
520.9325	61.70149
521.0944	63.52235
521.2562	64.65749
521.4181	68.01406
521.58	66.95222
521.7418	60.23267
521.9036	63.69858
522.0655	68.21687
522.2273	64.31531
522.3891	68.95264
522.551	67.66964
522.7128	63.39807
522.8746	62.20496
523.0363	61.9333
523.1981	64.57514
523.3599	67.9417
523.5217	64.36303
523.6835	65.60336
523.8452	67.38863
524.007	77.95509
524.1687	72.26105
524.3304	69.39188
524.4922	72.85058
524.6539	71.89075
524.8157	68.27545
524.9774	71.13742
525.1391	69.44252
525.3008	72.59052
525.4625	69.80975
525.6241	74.31408
525.7858	71.6045
525.9475	71.71944
526.1092	76.72987
526.2709	71.69433
526.4325	65.11334
526.5942	63.79022
526.7558	64.97784
526.9174	63.54943
527.079	63.99423
527.2407	66.65891
527.4023	70.03049
527.5639	74.90405
527.7255	70.75687
527.8871	74.92336
528.0487	73.03168
528.2103	70.24729
528.3718	73.91782
528.5334	72.78455
528.695	78.87
528.8565	86.25957
529.0181	82.34074
529.1796	83.35594
529.3412	84.50095
529.5027	79.19489
529.6642	77.13898
529.8257	80.00803
529.9872	69.0984
530.1487	78.27105
530.3102	79.28369
530.4717	83.9642
530.6332	80.75339
530.7947	85.05804
530.9562	86.78411
531.1176	86.31956
531.2791	82.71738
531.4405	79.78555
531.6019	82.68176
531.7634	85.64562
531.9248	85.86699
532.0862	81.02286
532.2477	79.80291
532.4091	84.53298
532.5704	79.26546
532.7319	74.58217
532.8932	72.09025
533.0546	81.29575
533.216	83.27831
533.3774	87.09962
533.5388	84.44117
533.7001	82.65309
533.8615	86.16512
534.0228	86.07493
534.1841	81.19201
534.3455	79.64507
534.5068	85.72682
534.6681	88.99647
534.8293	87.13575
534.9907	80.95528
535.152	81.5023
535.3132	89.96767
535.4745	88.87217
535.6358	89.26055
535.7971	86.30902
535.9583	80.85391
536.1196	87.67445
536.2808	88.91238
536.4421	86.72306
536.6033	85.50455
536.7645	82.14898
536.9258	87.65217
537.087	80.87124
537.2482	82.75325
537.4094	96.50108
537.5706	92.11575
537.7318	86.48667
537.8929	82.42096
538.0541	82.41877
538.2153	80.30138
538.3764	87.53372
538.5376	88.4492
538.6987	88.00815
538.8599	87.25265
539.021	89.74239
539.1821	84.02876
539.3432	77.01563
539.5043	83.53745
539.6655	82.632
539.8265	86.05194
539.9876	83.51733
540.1487	85.41246
540.3098	83.30038
540.4708	81.83506
540.6319	82.17033
540.793	81.0226
540.954	82.29368
541.1151	81.5871
541.2761	88.43225
541.4371	87.39309
541.5981	86.32553
541.7592	86.61333
541.9202	81.68896
542.0812	80.27044
542.2422	85.44067
542.4031	78.86942
542.5641	82.64124
542.7251	83.12663
542.886	82.07092
543.0471	89.00898
543.208	84.83917
543.369	76.66048
543.5298	84.73463
543.6908	85.69891
543.8517	87.29291
544.0126	87.42787
544.1736	83.93195
544.3345	84.25536
544.4954	82.62604
544.6563	84.72717
544.8171	86.97842
544.978	81.35749
545.1389	92.35003
545.2997	86.40256
545.4606	81.58181
545.6215	83.90891
545.7823	86.79391
545.9432	85.4817
546.104	87.18351
546.2648	89.25675
546.4256	86.93993
546.5864	89.28297
546.7473	88.64736
546.908	89.58155
547.0688	91.20779
547.2296	90.36024
547.3904	85.01403
547.5511	85.12029
547.7119	86.50936
547.8727	81.23565
548.0334	83.90762
548.1942	88.31628
548.3549	85.61118
548.5156	87.81783
548.6763	84.86841
548.837	82.11964
548.9977	86.87441
549.1584	88.09467
549.3192	84.70555
549.4798	88.99123
549.6405	86.29312
549.8011	84.35979
549.9619	84.93749
550.1225	89.51293
550.2831	88.65891
550.4438	83.26743
550.6044	84.89384
550.765	83.72881
550.9257	84.12167
551.0863	85.1616
551.2469	84.63684
551.4075	86.38963
551.5681	91.86335
551.7287	94.27274
551.8893	86.89125
552.0498	88.77966
552.2104	91.26426
552.371	89.74599
552.5315	84.42358
552.6921	83.66181
552.8526	85.38927
553.0131	87.67067
553.1736	90.24358
553.3342	89.23468
553.4947	89.48028
553.6552	87.53604
553.8157	85.40647
553.9762	89.75629
554.1367	84.56825
554.2971	88.57824
554.4576	88.40491
554.618	85.69479
554.7785	84.0588
554.939	87.75404
555.0994	87.74323
555.2598	85.31476
555.4203	86.60957
555.5807	86.33895
555.7411	82.48045
555.9015	83.40341
556.0619	78.88763
556.2223	81.23576
556.3827	88.45831
556.5431	85.44839
556.7034	83.34442
556.8638	81.36583
557.0242	83.16579
557.1845	85.73261
557.3448	83.34282
557.5052	76.43057
557.6655	81.81905
557.8259	88.42418
557.9861	88.05392
558.1465	81.49065
558.3068	78.57048
558.467	81.49601
558.6274	84.39973
558.7877	77.62524
558.9479	77.45219
559.1082	82.07849
559.2684	81.86738
559.4287	79.68794
559.5889	77.90517
559.7491	78.37362
559.9094	80.0381
560.0696	76.39049
560.2299	74.67248
560.3901	77.75034
560.5502	72.10686
560.7104	79.29115
560.8707	81.12721
561.0308	78.77843
561.191	78.13892
561.3511	74.29076
561.5114	75.96547
561.6714	78.21019
561.8316	73.2138
561.9918	74.77155
562.1519	80.04208
562.312	74.82767
562.4722	73.38369
562.6323	74.54428
562.7924	72.80015
562.9525	75.82323
563.1125	79.45356
563.2726	80.90246
563.4327	79.71301
563.5928	71.15157
563.7528	76.45329
563.9129	75.1487
564.0729	73.98146
564.233	74.815
564.393	72.94214
564.553	72.81702
564.7131	77.98924
564.873	79.15918
565.0331	73.30917
565.1931	72.98949
565.353	73.20074
565.5131	78.10129
565.673	78.87428
565.833	76.65241
565.9929	71.70988
566.1529	73.1244
566.3129	71.74708
566.4728	75.59669
566.6328	67.90652
566.7927	66.47891
566.9526	70.63965
567.1125	73.50626
567.2724	69.78342
567.4323	73.81164
567.5922	75.56187
567.7521	71.98293
567.9119	74.3242
568.0718	71.58617
568.2317	71.88574
568.3915	67.2352
568.5514	72.84242
568.7112	70.63731
568.871	67.36208
569.0309	64.92487
569.1907	71.89788
569.3505	70.84334
569.5103	70.59793
569.6701	67.73424
569.8299	70.15241
569.9897	70.45441
570.1495	70.72626
570.3092	67.72153
570.469	70.93105
570.6287	69.27003
570.7885	67.86232
570.9482	60.02821
571.108	59.96289
571.2677	59.97416
571.4274	64.12848
571.5871	67.9087
571.7468	64.25552
571.9066	66.43259
572.0662	70.27401
572.2259	65.33344
572.3856	68.12991
572.5452	66.64311
572.7049	65.02551
572.8646	67.00166
573.0242	67.24034
573.1838	63.82306
573.3435	62.0574
573.5031	65.7179
573.6627	66.35339
573.8223	62.89692
573.9819	61.25409
574.1415	67.16312
574.3011	66.84577
574.4607	62.54156
574.6203	66.39914
574.7798	64.73549
574.9394	63.40125
575.099	61.57695
575.2585	64.60001
575.418	61.86881
575.5776	59.35244
575.7371	61.45856
575.8966	63.95878
576.0562	60.11473
576.2156	60.59056
576.3751	61.32952
576.5346	58.47038
576.6941	62.81144
576.8536	63.30379
577.0131	63.75967
577.1725	62.35869
577.332	64.11693
577.4914	68.02791
577.6508	61.5803
577.8103	58.87939
577.9697	58.74441
578.1291	60.99322
578.2885	61.41911
578.4479	59.76858
578.6073	61.76239
578.7667	61.53544
578.9261	61.44102
579.0854	57.07232
579.2448	56.52377
579.4042	56.67405
579.5635	62.54021
579.7229	60.43473
579.8822	61.5526
580.0416	63.42342
580.2009	65.3965
580.3602	64.28246
580.5195	61.27126
580.6788	61.93065
580.8381	66.07423
580.9974	60.20277
581.1566	56.29174
581.3159	52.49792
581.4752	58.74383
581.6345	59.82404
581.7937	58.76466
581.9529	59.55314
582.1122	57.74575
582.2714	56.69088
582.4306	56.69581
582.5898	53.54529
582.749	55.24109
582.9082	60.44734
583.0674	59.54768
583.2266	55.89697
583.3857	54.77805
583.5449	54.87058
583.7041	59.44194
583.8633	60.6348
584.0224	59.32282
584.1815	59.14103
584.3407	58.31163
584.4998	61.89212
584.6589	53.42431
584.818	51.3675
584.9771	57.91259
585.1362	53.30782
585.2953	53.3044
585.4544	55.22952
585.6135	56.87543
585.7725	55.3312
585.9316	55.60199
586.0906	53.2751
586.2497	56.34359
586.4087	57.88988
586.5677	59.769
586.7267	55.79404
586.8858	57.58359
587.0448	56.79654
587.2038	55.04272
587.3628	53.65336
587.5218	53.23443
587.6807	62.26823
587.8397	55.64159
587.9987	55.89897
588.1577	52.6078
588.3166	49.44561
588.4755	47.8568
588.6345	47.52985
588.7934	56.83693
588.9523	52.7743
589.1112	49.33987
589.2701	47.37691
589.429	49.9527
589.5879	51.80808
589.7468	51.00357
589.9056	51.14776
590.0645	52.55287
590.2234	50.37159
590.3822	50.88943
590.5411	51.30426
590.6999	47.82966
590.8588	51.05061
591.0176	55.37424
591.1764	54.12714
591.3352	49.87817
591.494	49.35582
591.6528	53.09771
591.8116	50.49494
591.9703	49.21859
592.1291	48.25981
592.2878	47.82285
592.4467	51.69333
592.6053	48.41626
592.7641	46.79657
592.9229	45.93935
593.0816	50.16801
593.2403	50.5726
593.399	50.57035
593.5577	48.64077
593.7164	48.89721
593.8751	55.07949
594.0338	51.30378
594.1924	45.17381
594.3511	47.34833
594.5098	52.40831
594.6684	56.17024
594.8271	54.8646
594.9857	52.67965
595.1443	53.99692
595.303	50.73241
595.4615	48.07098
595.6202	45.8349
595.7787	48.63635
595.9374	52.21093
596.0959	51.18607
596.2545	52.49768
596.4131	53.35915
596.5717	48.09436
596.7302	46.15142
596.8887	49.11492
597.0473	44.93964
597.2058	46.41389
597.3644	48.21939
597.5229	52.79787
597.6814	52.50056
597.8399	53.00349
597.9984	56.63671
598.1569	52.29671
598.3154	47.1492
598.4738	49.46103
598.6323	44.60025
598.7908	47.08696
598.9492	49.39916
599.1076	46.76577
599.2661	46.56805
599.4245	50.9624
599.5829	49.86505
599.7413	50.39175
599.8997	46.37683
600.0581	41.83107
600.2165	45.64687
600.3749	47.92313
600.5333	48.96422
600.6917	47.98927
600.85	50.05349
601.0084	45.6909
601.1667	47.09534
601.325	45.89009
601.4833	52.99752
601.6417	48.218
601.8	42.636
601.9583	45.37578
602.1166	51.45235
602.2749	50.07423
602.4332	49.61681
602.5914	52.69848
602.7498	52.45789
602.908	53.73171
603.0662	49.52433
603.2245	50.13969
603.3828	48.19227
603.541	51.81834
603.6992	46.42387
603.8574	46.75079
604.0156	45.71701
604.1738	44.89783
604.332	50.06147
604.4902	51.22249
604.6484	49.27344
604.8065	48.24477
604.9647	47.54593
605.1229	47.90561
605.281	47.81414
605.4391	45.4826
605.5973	48.74681
605.7554	43.95427
605.9135	48.67308
606.0717	45.98105
606.2297	46.8603
606.3878	47.00416
606.5459	47.85644
606.704	46.44292
606.8621	48.91322
607.0201	47.79029
607.1782	47.31674
607.3362	48.45435
607.4943	43.95941
607.6523	51.10404
607.8104	47.62234
607.9684	46.72892
608.1264	44.54416
608.2844	46.97834
608.4424	49.22562
608.6003	47.47552
608.7584	44.05967
608.9163	45.02647
609.0743	51.11818
609.2322	51.38909
609.3902	47.48885
609.5482	44.34737
609.7061	46.66407
609.864	41.16927
610.0219	42.14324
610.1798	37.29151
610.3377	44.07076
610.4956	42.23055
610.6535	45.14014
610.8114	43.03978
610.9693	44.73959
611.1271	44.34107
611.285	41.91849
611.4429	47.28626
611.6007	47.47149
611.7585	44.72344
611.9164	42.83906
612.0742	50.24816
612.232	49.74174
612.3898	46.79824
612.5476	45.35678
612.7054	45.36175
612.8632	47.71811
613.0209	39.45013
613.1787	45.48552
613.3365	45.6433
613.4942	39.76638
613.652	42.66127
613.8097	42.32725
613.9674	42.53468
614.1252	41.8841
614.2829	40.73119
614.4406	41.1831
614.5983	41.51734
614.756	44.17739
614.9136	44.12063
615.0714	38.56123
615.229	44.69922
615.3867	39.66399
615.5443	43.76985
615.702	42.59941
615.8596	47.31143
616.0172	44.22781
616.1748	43.44128
616.3325	42.00047
616.4901	43.39483
616.6476	42.02678
616.8052	36.66669
616.9628	41.86528
617.1204	39.00714
617.278	36.02309
617.4355	43.35999
617.5931	42.18346
617.7506	38.06593
617.9081	43.69325
618.0657	43.48649
618.2232	38.77061
618.3807	42.0948
618.5382	44.27382
618.6957	42.71779
618.8532	36.11787
619.0107	39.14184
619.1682	39.6522
619.3256	40.89706
619.4831	37.22889
619.6406	37.34576
619.798	39.33847
619.9554	41.52777
620.1129	47.01255
620.2703	39.69257
620.4277	37.80755
620.5851	41.36563
620.7425	42.88446
620.8998	43.14939
621.0573	45.0233
621.2146	38.92234
621.372	41.06763
621.5294	41.67462
621.6867	37.96806
621.8441	36.8349
622.0013	43.91671
622.1587	41.20422
622.316	39.02803
622.4733	39.69044
622.6306	36.88099
622.7879	41.19209
622.9452	36.06643
623.1025	37.53383
623.2598	40.66976
623.4171	38.29281
623.5743	41.4395
623.7316	40.21974
623.8888	42.06514
624.046	39.83898
624.2032	37.96583
624.3605	39.79962
624.5176	37.60798
624.6749	38.50232
624.8321	40.14067
624.9893	39.24303
625.1464	40.95378
625.3036	40.41806
625.4608	40.07519
625.6179	41.05115
625.7751	39.11506
625.9322	41.81797
626.0894	40.67081
626.2465	37.30407
626.4036	37.65676
626.5607	36.50959
626.7178	37.30399
626.8749	37.03637
627.032	40.22465
627.189	41.91484
627.3461	42.1896
627.5032	40.62204
627.6602	38.55047
627.8173	34.26995
627.9743	41.2612
628.1313	42.23864
628.2884	40.56606
628.4454	41.48627
628.6024	34.65689
628.7594	39.37238
628.9164	39.57396
629.0734	37.52308
629.2303	37.0315
629.3873	44.63187
629.5443	41.65733
629.7012	36.69079
629.8582	32.37615
630.0151	37.35368
630.172	33.01711
630.3289	34.60143
630.4858	35.72455
630.6428	37.93279
630.7996	39.48407
630.9565	32.89143
631.1134	35.75959
631.2703	40.55173
631.4272	36.75712
631.584	36.2037
631.7408	32.83644
631.8977	38.58388
632.0546	40.0762
632.2114	39.98684
632.3682	42.24467
632.525	37.62796
632.6818	34.64909
632.8386	37.32047
632.9954	32.55044
633.1522	35.65341
633.3089	34.78959
633.4657	41.4035
633.6224	37.85582
633.7792	41.46753
633.9359	43.86188
634.0927	38.18819
634.2494	39.70776
634.4061	37.79201
634.5628	36.78144
634.7195	31.23098
634.8762	35.57279
635.0329	41.49744
635.1895	36.90408
635.3462	43.81819
635.5029	38.71486
635.6595	37.53318
635.8162	40.10566
635.9728	39.19147
636.1295	41.23922
636.2861	38.57713
636.4427	35.95218
636.5992	35.55756
636.7559	39.86066
636.9124	36.03701
637.069	30.46453
637.2256	35.48128
637.3821	34.84585
637.5387	35.2563
637.6953	34.94393
637.8518	37.48204
638.0084	36.08642
638.1649	32.93651
638.3214	36.54963
638.4779	32.05801
638.6344	34.70635
638.7909	35.07717
638.9474	34.69243
639.1038	35.47206
639.2603	36.03676
639.4167	36.15874
639.5732	37.40153
639.7297	39.57578
639.8861	38.80303
640.0425	38.41204
640.199	29.59235
640.3553	36.64436
640.5118	40.96537
640.6682	40.1857
640.8245	33.93285
640.981	35.69247
641.1373	42.01029
641.2936	36.00985
641.45	32.63863
641.6064	35.03386
641.7627	36.79244
641.9191	32.18919
642.0754	31.67476
642.2317	33.68235
642.388	33.48577
642.5443	30.68916
642.7006	32.79459
642.8569	40.23065
643.0131	34.19662
643.1694	33.69731
643.3257	34.19804
643.4819	39.31526
643.6382	34.28424
643.7944	28.80391
643.9506	31.08313
644.1069	31.62517
644.2631	36.27888
644.4193	32.98421
644.5754	34.25395
644.7316	30.64644
644.8878	27.64281
645.044	33.51888
645.2002	35.76982
645.3563	26.87652
645.5125	30.68278
645.6686	30.69309
645.8248	34.8262
645.9809	31.68797
646.137	32.68005
646.2931	33.15067
646.4492	34.64965
646.6053	34.12907
646.7614	33.28481
646.9174	30.5398
647.0735	33.37095
647.2296	33.94473
647.3856	38.3625
647.5417	33.98954
647.6977	31.7724
647.8537	31.56347
648.0098	31.64043
648.1658	37.34219
648.3218	32.39878
648.4777	34.34851
648.6337	31.42289
648.7897	27.02607
648.9457	34.55572
649.1016	31.96444
649.2576	30.28774
649.4135	30.25663
649.5695	29.08848
649.7254	28.56971
649.8813	33.20512
650.0372	33.90493
650.1932	30.40316
650.3491	31.2052
650.5049	31.56594
650.6608	30.58392
650.8167	30.3714
650.9725	30.57751
651.1284	31.3736
651.2842	34.14725
651.4401	34.60921
651.5959	32.89394
651.7518	29.53658
651.9076	34.24736
652.0634	36.18645
652.2192	30.46807
652.3749	30.70811
652.5308	31.66643
652.6865	32.93386
652.8423	30.4376
652.998	29.95198
653.1538	28.93864
653.3096	31.01081
653.4653	31.71151
653.621	29.6648
653.7767	30.75065
653.9324	32.39397
654.0881	32.27931
654.2438	33.06456
654.3995	35.08057
654.5552	35.38929
654.7109	34.36245
654.8665	31.50736
655.0222	35.70148
655.1778	28.05709
655.3334	32.27818
655.4891	34.72608
655.6447	33.71933
655.8003	28.79391
655.9559	29.49777
656.1115	32.15217
656.2671	35.59809
656.4227	31.39144
656.5782	27.0216
656.7338	28.47509
656.8893	29.02068
657.0449	26.7988
657.2004	29.85278
657.356	30.6519
657.5115	27.55267
657.667	31.6098
657.8225	30.97326
657.978	29.44866
658.1335	30.46299
658.289	31.60085
658.4445	28.9835
658.5999	29.24666
658.7554	30.3561
658.9108	29.81331
659.0663	28.07498
659.2217	33.5749
659.3771	34.85245
659.5325	28.91698
659.6879	26.0622
659.8433	35.22868
659.9987	29.8476
660.1541	29.78948
660.3095	29.31769
660.4648	25.54996
660.6202	29.83254
660.7756	30.30753
660.9309	30.89248
661.0862	32.76159
661.2416	27.77028
661.3969	27.58529
661.5522	32.724
661.7075	31.80249
661.8628	29.89477
662.0181	27.55228
662.1733	29.97579
662.3286	32.54385
662.4839	30.5238
662.6391	25.16568
662.7944	30.95691
662.9496	25.07441
663.1048	33.05974
663.26	34.16512
663.4152	27.42451
663.5704	30.56113
663.7256	28.15365
663.8808	28.02585
664.036	28.75235
664.1912	28.52334
664.3463	28.83537
664.5015	30.31817
664.6566	28.9962
664.8118	28.81964
664.9669	29.02838
665.122	28.73372
665.2771	30.08261
665.4322	29.7344
665.5873	24.66076
665.7424	26.37287
665.8975	25.8983
666.0526	29.01312
666.2076	31.06457
666.3627	24.11972
666.5177	25.61189
666.6727	24.33187
666.8278	25.49077
666.9828	25.44875
667.1378	27.58643
667.2928	28.08102
667.4478	28.92048
667.6028	31.09672
667.7578	30.67466
667.9127	26.68372
668.0677	29.85891
668.2226	28.62216
668.3776	25.60301
668.5325	27.06978
668.6874	24.02786
668.8423	21.55374
668.9973	28.12732
669.1522	26.28323
669.3071	29.28628
669.4619	26.65642
669.6168	29.0686
669.7717	27.88597
669.9265	28.68197
670.0814	24.08033
670.2362	26.3364
670.3911	29.34041
670.5459	28.70657
670.7007	27.31348
670.8555	25.74618
671.0103	29.093
671.1651	32.13851
671.3199	30.68798
671.4747	31.35716
671.6295	25.16298
671.7842	25.47865
671.939	27.67133
672.0937	29.25828
672.2484	23.27742
672.4031	27.60416
672.5579	27.68775
672.7126	26.81798
672.8673	24.13608
673.022	27.05464
673.1767	27.57653
673.3314	25.18899
673.486	29.52417
673.6407	29.55259
673.7953	31.06605
673.95	26.73625
674.1046	26.53418
674.2592	27.10286
674.4138	28.02863
674.5684	26.07368
674.723	25.19213
674.8776	31.01083
675.0322	30.44646
675.1868	26.79764
675.3414	26.14621
675.4959	23.79698
675.6505	28.48742
675.805	29.09792
675.9595	28.77431
676.1141	28.19368
676.2686	24.38024
676.4231	27.01297
676.5776	23.49079
676.7321	23.97844
676.8866	24.20438
677.041	27.39232
677.1955	21.77354
677.35	26.04577
677.5044	29.29702
677.6589	25.23829
677.8133	26.22771
677.9677	24.33929
678.1221	23.77096
678.2766	26.10054
678.4309	29.85342
678.5853	26.94135
678.7397	27.59184
678.8941	23.27754
679.0485	25.30021
679.2028	22.20345
679.3571	26.59255
679.5115	24.50307
679.6658	28.39947
679.8201	22.97473
679.9744	25.40318
680.1288	29.83326
680.2831	24.87762
680.4373	26.97764
680.5916	22.06628
680.7459	23.11105
680.9001	28.03879
681.0544	23.1414
681.2087	22.00179
681.3629	26.62085
681.5171	27.92263
681.6713	27.97688
681.8256	30.44339
681.9797	29.32161
682.134	27.66909
682.2881	29.02906
682.4423	29.86077
682.5965	25.42164
682.7507	22.48584
682.9048	23.71398
683.059	28.67829
683.2131	26.40314
683.3672	25.01987
683.5213	28.37565
683.6754	28.46516
683.8295	25.71831
683.9836	24.48366
684.1377	23.40785
684.2918	24.42633
684.4459	28.31035
684.5999	23.22906
684.754	28.23292
684.908	27.08184
685.062	23.57907
685.2161	27.13319
685.3701	23.21126
685.5241	27.16582
685.6781	29.42371
685.8321	23.6211
685.9861	29.68027
686.14	28.29374
686.294	25.77526
686.4479	21.02888
686.6019	24.04805
686.7559	30.41396
686.9098	22.28881
687.0637	20.97252
687.2176	29.4745
687.3715	25.00522
687.5254	26.70135
687.6793	30.1284
687.8332	29.36392
687.9871	26.46436
688.1409	23.88479
688.2947	25.77174
688.4486	25.37602
688.6024	25.01188
688.7563	26.18333
688.9101	26.10092
689.0639	26.36671
689.2177	26.21604
689.3715	26.22157
689.5253	28.82227
689.6791	25.23945
689.8328	26.79565
689.9866	30.27493
690.1403	28.95359
690.2941	24.43468
690.4478	23.42269
690.6015	23.38404
690.7552	24.90613
690.9089	27.29681
691.0626	23.21296
691.2164	20.13083
691.37	23.17025
691.5237	24.83908
691.6774	26.16383
691.831	25.45037
691.9847	24.42553
692.1383	26.09033
692.2919	26.9695
692.4456	26.32739
692.5992	26.21947
692.7527	29.22234
692.9064	29.295
693.0599	28.97692
693.2136	26.35234
693.3671	27.00183
693.5207	28.63098
693.6742	30.09277
693.8278	28.06554
693.9813	27.3532
694.1348	27.14795
694.2883	27.4153
694.4418	27.66511
694.5953	25.7707
694.7488	29.50764
694.9023	28.82595
695.0558	29.19871
695.2093	29.5953
695.3627	27.91837
695.5162	28.52721
695.6696	29.49412
695.8231	24.59993
695.9764	25.83051
696.1299	26.84655
696.2833	26.32115
696.4367	29.5798
696.5901	29.86869
696.7435	31.39298
696.8968	29.16192
697.0502	33.16677
697.2036	33.04516
697.3569	28.58143
697.5102	31.53533
697.6635	36.03087
697.8168	32.81138
697.9702	30.99516
698.1235	31.71198
698.2768	32.8471
698.4301	28.28895
698.5833	24.01275
698.7366	28.21986
698.8898	28.74114
699.0431	30.93415
699.1964	32.20368
699.3495	33.76319
699.5028	33.06338
699.656	34.29454
699.8092	33.78228
699.9624	33.11477
700.1156	37.5914
700.2688	30.89246
700.4219	31.7431
700.5751	33.85732
700.7283	32.72812
700.8814	36.54448
701.0345	34.74335
701.1877	33.71059
701.3408	33.49048
701.4939	32.31946
701.647	38.45173
701.8001	34.16179
701.9532	32.35487
702.1063	29.24009
702.2593	33.01913
702.4124	35.6544
702.5654	39.98172
702.7184	32.29107
702.8715	30.13049
703.0245	35.05977
703.1776	35.55694
703.3305	42.32158
703.4835	37.70036
703.6365	36.50059
703.7895	36.1826
703.9424	33.98318
704.0954	36.08752
704.2484	40.88437
704.4013	36.67323
704.5543	35.91978
704.7072	38.14088
704.8601	36.63222
705.013	37.23145
705.1659	39.12876
705.3188	37.07589
705.4717	42.30453
705.6246	37.81483
705.7774	39.30285
705.9303	34.95722
706.0831	39.21988
706.236	38.94354
706.3888	38.773
706.5416	41.70769
706.6944	42.49363
706.8472	40.81372
707	46.1003
707.1528	48.70929
707.3056	39.16808
707.4583	42.47965
707.6111	43.3544
707.7639	44.53134
707.9166	42.57491
708.0693	46.44822
708.222	45.67843
708.3748	47.23877
708.5275	44.6089
708.6802	46.14252
708.8328	42.22487
708.9855	43.0127
709.1382	42.22445
709.2909	40.39301
709.4435	43.06884
709.5962	43.66173
709.7488	41.80867
709.9014	46.82954
710.054	40.81143
710.2067	45.54101
710.3593	45.05907
710.5118	45.42298
710.6644	49.30198
710.817	45.4678
710.9695	46.5929
711.1221	47.44207
711.2747	49.33345
711.4272	46.57753
711.5797	47.08398
711.7322	48.2109
711.8848	47.89151
712.0373	46.84935
712.1898	52.83658
712.3422	51.99261
712.4948	51.19979
712.6472	49.48874
712.7996	45.57146
712.9521	49.45751
713.1046	50.14709
713.257	49.39243
713.4094	50.74414
713.5618	51.56486
713.7142	55.50364
713.8666	54.84697
714.019	48.41119
714.1714	48.20533
714.3237	49.40265
714.4761	52.8686
714.6285	52.03592
714.7808	46.15417
714.9331	46.88601
715.0854	51.7546
715.2378	57.58263
715.3901	57.8899
715.5424	54.41434
715.6947	53.26425
715.8469	54.41181
715.9992	54.10422
716.1515	49.18711
716.3037	52.24136
716.456	51.30143
716.6082	46.37784
716.7604	49.36788
716.9127	55.46598
717.0649	47.38816
717.2171	47.06511
717.3693	48.98448
717.5214	49.3924
717.6736	44.9628
717.8258	46.86869
717.978	49.07967
718.1301	44.74156
718.2822	49.19332
718.4344	45.0446
718.5865	41.67653
718.7386	48.12811
718.8907	47.24478
719.0428	51.75805
719.1949	53.00057
719.3469	55.38274
719.499	47.12624
719.6511	45.84655
719.8031	50.59502
719.9551	50.9701
720.1072	48.45917
720.2592	52.43519
720.4112	53.28807
720.5632	52.36795
720.7152	55.63804
720.8672	57.75599
721.0192	58.20182
721.1711	55.09054
721.3231	58.66576
721.475	61.46321
721.627	60.03223
721.7789	62.27407
721.9308	64.21564
722.0828	63.80729
722.2347	64.53003
722.3866	60.87164
722.5385	63.98925
722.6903	64.41718
722.8422	59.30011
722.9941	61.80376
723.1459	56.332
723.2977	58.39158
723.4496	54.43728
723.6014	55.20238
723.7532	56.99343
723.905	58.36895
724.0568	55.69535
724.2086	61.88057
724.3604	56.63929
724.5121	56.61116
724.6639	57.66671
724.8157	64.39333
724.9674	62.5769
725.1191	59.10664
725.2709	60.37981
725.4226	60.55782
725.5743	63.77455
725.726	61.46152
725.8777	58.03704
726.0294	66.11695
726.181	66.95792
726.3327	60.46675
726.4844	58.40524
726.636	62.7039
726.7877	64.17387
726.9393	65.33031
727.0909	67.0128
727.2425	69.44426
727.3941	66.9733
727.5457	60.15188
727.6973	60.89877
727.8488	62.29422
728.0004	61.67614
728.1519	63.83451
728.3035	64.58382
728.455	70.31837
728.6066	79.47163
728.7581	72.18845
728.9095	64.52362
729.0611	66.60483
729.2126	64.26064
729.364	69.32877
729.5155	69.11309
729.667	73.43146
729.8184	75.30349
729.9698	73.26009
730.1213	73.54317
730.2727	69.98714
730.4241	74.77673
730.5756	77.14596
730.7269	71.44964
730.8784	70.95393
731.0297	73.52198
731.1811	77.18159
731.3325	72.9441
731.4838	72.48124
731.6351	75.42882
731.7865	77.76202
731.9378	73.42863
732.0891	80.57118
732.2404	83.40813
732.3917	80.75977
732.543	90.92193
732.6943	82.69501
732.8456	84.61024
732.9968	85.35841
733.1481	91.40656
733.2993	90.6208
733.4506	84.0498
733.6018	90.31211
733.753	92.29491
733.9042	84.03761
734.0554	94.82796
734.2066	92.32509
734.3578	88.03065
734.509	93.5629
734.6602	92.66714
734.8113	90.01849
734.9624	94.32454
735.1136	91.866
735.2647	91.99889
735.4158	94.33662
735.5669	98.63145
735.718	95.7818
735.8691	92.23946
736.0201	97.92733
736.1713	99.79153
736.3223	93.05353
736.4733	92.3409
736.6244	100.4495
736.7755	89.23109
736.9265	92.88536
737.0775	93.607
737.2285	99.68417
737.3795	98.42577
737.5305	101.3279
737.6815	99.10831
737.8324	100.1481
737.9834	99.91852
738.1343	103.649
738.2853	98.43058
738.4362	100.3695
738.5871	99.50468
738.738	101.5653
738.8889	101.9258
739.0399	96.24646
739.1907	97.69232
739.3416	102.3158
739.4925	106.1743
739.6433	105.2231
739.7942	108.4628
739.945	102.1052
740.0958	101.6955
740.2467	107.924
740.3975	104.5458
740.5483	102.7155
740.6991	108.6538
740.8499	108.6935
741.0007	104.8659
741.1514	102.3063
741.3022	108.8055
741.4529	102.6646
741.6036	102.3391
741.7544	101.8666
741.9051	102.1224
742.0558	100.6337
742.2065	106.8021
742.3572	104.7507
742.5079	106.1669
742.6586	110.9596
742.8093	105.9913
742.9599	109.0282
743.1105	109.0292
743.2612	109.6235
743.4118	105.3883
743.5624	109.1351
743.7131	114.6328
743.8636	112.3686
744.0142	111.8307
744.1648	105.4106
744.3154	112.22
744.4659	106.4022
744.6165	103.6982
744.767	111.0607
744.9176	109.322
745.0681	113.1283
745.2186	116.5801
745.3691	115.9923
745.5197	121.5619
745.6702	116.8656
745.8206	117.7275
745.9711	114.7872
746.1215	114.5859
746.272	118.7789
746.4224	120.6464
746.5729	118.4284
746.7233	116.4395
746.8737	113.6416
747.0241	118.2083
747.1745	109.4768
747.3249	108.5579
747.4753	109.7584
747.6257	113.0805
747.776	112.7225
747.9264	112.2742
748.0767	114.0789
748.2271	114.8326
748.3774	115.4225
748.5276	118.6705
748.678	114.7008
748.8282	109.0583
748.9786	120.6777
749.1288	119.9465
749.2791	113.5998
749.4294	114.8839
749.5796	111.0225
749.7299	109.1636
749.8801	111.4886
750.0303	117.5957
750.1805	118.1345
750.3307	114.1396
750.4809	114.7568
750.6311	110.4448
750.7813	111.3171
750.9314	107.9897
751.0816	112.5606
751.2318	102.3022
751.3818	105.4711
751.532	115.1329
751.6821	116.3087
751.8322	116.9581
751.9823	117.4994
752.1324	110.9786
752.2825	108.3964
752.4326	110.7135
752.5826	112.1577
752.7327	108.4269
752.8827	119.4478
753.0327	123.8553
753.1827	113.3469
753.3328	110.8997
753.4828	111.4777
753.6328	116.5361
753.7828	116.0268
753.9327	115.9225
754.0827	110.6553
754.2327	111.7799
754.3826	113.4695
754.5325	110.2395
754.6825	111.0129
754.8324	113.8066
754.9823	109.8687
755.1322	108.3327
755.2821	110.0985
755.432	106.0971
755.5818	108.2057
755.7318	108.8624
755.8816	112.7231
756.0314	110.3833
756.1813	108.6916
756.3311	110.0991
756.4809	107.7921
756.6307	106.1885
756.7805	106.5947
756.9303	108.5478
757.0801	106.9301
757.2299	113.7265
757.3796	113.0633
757.5294	104.1507
757.6791	105.7236
757.8289	103.7155
757.9786	107.644
758.1283	105.8124
758.278	106.2306
758.4277	102.2346
758.5773	101.9181
758.7271	105.4076
758.8767	105.1775
759.0264	101.7523
759.176	103.829
759.3256	97.34526
759.4753	75.83988
759.6249	55.69796
759.7745	39.34658
759.9241	34.09457
760.0737	27.5834
760.2233	30.42506
760.3729	23.86232
760.5224	21.98945
760.6719	27.57492
760.8215	24.53433
760.971	26.25394
761.1205	29.5239
761.2701	36.11954
761.4196	40.38764
761.5691	48.30353
761.7186	58.48705
761.868	66.74517
762.0175	74.82165
762.167	66.74989
762.3164	60.31906
762.4659	56.05822
762.6153	49.63342
762.7647	52.1071
762.9141	44.94246
763.0635	46.91732
763.2129	48.24073
763.3623	49.64535
763.5117	48.9559
763.661	50.85644
763.8104	50.64316
763.9597	51.99
764.1091	56.272
764.2584	54.34309
764.4077	50.14101
764.557	57.57947
764.7063	56.92633
764.8556	59.02285
765.0049	65.85163
765.1541	67.55038
765.3034	64.69679
765.4526	68.52475
765.6019	66.83563
765.7511	65.77352
765.9003	74.92741
766.0496	75.26633
766.1987	74.07282
766.348	73.68
766.4971	76.38919
766.6463	80.51043
766.7955	76.77392
766.9446	83.89291
767.0938	86.10996
767.2429	83.08408
767.392	84.63341
767.5411	82.89293
767.6902	81.36611
767.8394	82.83866
767.9884	87.44141
768.1375	88.83277
768.2866	87.90897
768.4356	87.21301
768.5847	82.19048
768.7337	85.47217
768.8828	95.00832
769.0317	93.70184
769.1808	91.33939
769.3298	88.5626
769.4788	87.47219
769.6277	84.09165
769.7767	90.74496
769.9257	89.3823
770.0746	87.92046
770.2236	89.03508
770.3725	90.52562
770.5214	92.1954
770.6703	93.91732
770.8193	93.08835
770.9681	91.70846
771.1171	90.52155
771.2659	92.65665
771.4148	88.60963
771.5637	88.43233
771.7125	88.54263
771.8613	87.9187
772.0101	93.93256
772.159	92.68139
772.3078	91.86095
772.4566	88.51786
772.6054	93.59364
772.7542	87.0784
772.903	82.60623
773.0517	88.74998
773.2004	86.86809
773.3492	85.24191
773.4979	88.61989
773.6467	84.72006
773.7953	87.09224
773.944	83.54906
774.0928	88.99605
774.2415	87.89795
774.3901	85.38873
774.5388	86.68005
774.6874	84.5333
774.8361	79.91417
774.9847	84.44401
775.1334	81.78552
775.282	83.21802
775.4305	87.34039
775.5792	85.17927
775.7277	85.4315
775.8763	87.59608
776.0249	85.67604
776.1735	91.76746
776.322	86.71365
776.4705	84.46381
776.6191	84.44016
776.7676	85.80146
776.9161	80.62227
777.0646	79.13583
777.2131	75.5639
777.3616	80.20986
777.5101	81.32048
777.6585	85.88211
777.8069	81.95908
777.9554	83.48505
778.1038	85.5213
778.2523	80.45058
778.4007	82.98306
778.5491	83.98797
778.6974	80.16825
778.8459	78.86955
778.9942	84.22153
779.1426	83.14632
779.291	84.16777
779.4393	86.31802
779.5876	79.6573
779.736	77.14427
779.8843	79.74234
780.0326	80.5332
780.1809	81.17212
780.3292	82.22108
780.4775	81.47463
780.6257	80.11529
780.774	79.01284
780.9222	76.49483
781.0704	78.70202
781.2187	78.85815
781.3669	81.04342
781.5151	81.00923
781.6633	78.62646
781.8115	81.17915
781.9597	81.66251
782.1078	81.28465
782.256	82.84484
782.4042	78.66227
782.5523	79.16698
782.7004	73.58282
782.8486	73.56193
782.9967	77.93358
783.1448	80.74988
783.2929	80.30659
783.441	81.23181
783.5891	79.27695
783.7371	77.83897
783.8851	80.36014
784.0332	77.80764
784.1812	82.0056
784.3293	79.57675
784.4773	77.12206
784.6253	74.27647
784.7733	74.87813
784.9213	74.82225
785.0692	79.85468
785.2172	78.05334
785.3652	77.89561
785.5131	76.19965
785.6611	76.14817
785.809	76.5762
785.9569	72.02155
786.1048	73.82362
786.2527	75.83638
786.4006	77.69171
786.5485	73.95427
786.6964	73.34613
786.8442	79.40602
786.9921	71.91287
787.1399	73.19923
787.2877	70.57343
787.4355	74.77334
787.5833	71.21407
787.7311	72.20085
787.8789	75.38817
788.0267	73.97686
788.1745	70.52749
788.3223	74.51576
788.47	73.36867
788.6177	73.47095
788.7654	74.50249
788.9132	70.41275
789.0609	74.5065
789.2086	71.14613
789.3563	67.12328
789.504	70.12913
789.6517	72.66928
789.7993	65.1221
789.947	71.30059
790.0946	70.9387
790.2422	69.05183
790.3898	67.5327
790.5375	71.43762
790.6851	70.72655
790.8326	69.09394
790.9802	71.58592
791.1278	65.71228
791.2754	68.1458
791.423	67.19546
791.5705	63.35506
791.718	68.82135
791.8655	69.71726
792.0131	66.73101
792.1606	65.91423
792.308	72.48045
792.4556	68.18631
792.603	69.6418
792.7505	68.27901
792.8979	68.24501
793.0454	65.31618
793.1928	62.68042
793.3403	67.26939
793.4877	66.46586
793.6351	66.63644
793.7825	67.03741
793.9299	68.62567
794.0772	69.3848
794.2246	67.33199
794.3719	65.509
794.5193	68.32518
794.6666	65.29678
794.814	72.08195
794.9613	66.97118
795.1086	67.43346
795.2559	72.51495
795.4032	70.11
795.5505	73.30006
795.6978	71.59377
795.845	67.48836
795.9922	65.33741
796.1395	59.0976
796.2867	65.2535
796.4339	64.47385
796.5811	64.29774
796.7283	62.5713
796.8755	66.58493
797.0227	62.81532
797.1699	65.88988
797.317	64.69834
797.4642	66.47962
797.6113	57.06348
797.7584	65.57652
797.9056	63.95548
798.0527	69.62755
798.1998	65.1722
798.3469	61.44999
798.494	60.38544
798.641	61.15885
798.7881	62.12616
798.9351	66.31702
799.0822	64.54756
799.2292	61.82934
799.3762	63.21519
799.5232	63.07561
799.6702	63.12466
799.8172	57.84698
799.9642	53.79025
800.1111	59.49984
800.2581	63.62005
800.4051	62.45274
800.552	61.15685
800.6989	61.14243
800.8458	62.5569
800.9927	58.07723
801.1396	63.57753
801.2866	63.53572
801.4334	64.59698
801.5803	62.5854
801.7272	58.05437
801.874	63.0276
802.0209	60.85508
802.1677	63.47438
802.3145	61.64592
802.4613	57.64679
802.6081	56.94991
802.7549	59.133
802.9017	58.26704
803.0485	59.83824
803.1952	57.74766
803.342	64.28914
803.4887	61.6943
803.6354	62.25885
803.7822	59.73571
803.9289	61.25512
804.0756	54.11831
804.2223	59.7633
804.369	63.72511
804.5156	60.88667
804.6623	57.09755
804.8089	55.21459
804.9556	54.91563
805.1022	55.95058
805.2488	58.2589
805.3954	56.06634
805.542	60.88908
805.6886	59.61363
805.8352	61.98193
805.9818	58.38911
806.1283	61.20218
806.2749	59.40108
806.4214	57.66723
806.5679	55.56238
806.7145	59.24426
806.861	56.54962
807.0074	60.57523
807.154	57.88227
807.3004	52.84386
807.4469	57.04685
807.5934	56.65438
807.7398	50.92688
807.8862	54.23471
808.0327	56.42593
808.1791	55.07082
808.3255	55.43917
808.4719	55.00343
808.6183	54.00267
808.7647	50.68155
808.9111	54.2837
809.0574	50.44019
809.2037	50.24794
809.3501	54.66982
809.4965	48.06701
809.6428	52.0515
809.7891	48.99287
809.9354	51.55062
810.0817	54.08857
810.2279	52.6532
810.3742	51.88181
810.5204	50.62563
810.6667	50.04997
810.8129	56.17439
810.9592	52.08677
811.1054	50.99297
811.2516	47.47378
811.3978	52.58283
811.5439	51.78113
811.6901	49.61663
811.8363	53.78424
811.9825	52.04964
812.1286	45.25143
812.2748	48.79531
812.4209	44.03682
812.567	41.87442
812.7131	45.569
812.8592	44.48568
813.0053	44.29048
813.1514	41.95221
813.2974	39.86647
813.4435	40.02638
813.5895	38.46065
813.7356	42.79003
813.8816	42.30034
814.0276	44.53659
814.1736	40.23934
814.3196	40.1707
814.4656	42.64707
814.6116	43.9326
814.7576	44.37442
814.9035	38.19717
815.0494	39.54279
815.1954	45.45159
815.3413	40.32694
815.4872	37.90732
815.6331	40.32608
815.779	37.62565
815.9249	38.54539
816.0707	37.40957
816.2166	36.89971
816.3625	32.40746
816.5083	31.31706
816.6542	33.21534
816.8	35.37653
816.9458	35.01851
817.0916	34.26773
817.2374	37.23011
817.3832	44.41392
817.5289	39.25066
817.6747	37.85091
817.8204	37.11765
817.9662	31.0542
818.1119	32.21181
818.2576	34.91696
818.4034	35.8919
818.5491	40.84335
818.6948	41.8463
818.8405	38.92941
818.9861	36.4167
819.1318	34.73577
819.2774	39.69198
819.423	34.52844
819.5687	35.59318
819.7143	37.59959
819.8599	34.47692
820.0055	31.29491
820.1511	34.38489
820.2967	40.86919
820.4422	43.62803
820.5878	39.96819
820.7333	42.22639
820.8788	44.75449
821.0244	44.92904
821.1699	41.26864
821.3154	39.76925
821.4609	42.93626
821.6064	44.03714
821.7519	38.44883
821.8973	34.55985
822.0428	43.14065
822.1882	37.0339
822.3337	36.74072
822.4791	34.79371
822.6245	29.13673
822.7699	23.76474
822.9153	25.09093
823.0607	21.69843
823.2061	28.42671
823.3514	27.32808
823.4968	33.0746
823.6422	37.13342
823.7875	37.99553
823.9328	38.95841
824.0781	34.74783
824.2234	34.14667
824.3687	39.63062
824.514	37.66732
824.6592	44.82998
824.8045	42.67969
824.9498	39.14563
825.095	40.84488
825.2402	41.34555
825.3854	44.23992
825.5306	36.05213
825.6758	35.94464
825.821	30.26268
825.9662	36.42537
826.1114	35.05848
826.2565	36.79248
826.4017	39.13424
826.5468	38.54381
826.692	41.18564
826.837	42.11661
826.9822	41.29811
827.1273	40.93203
827.2723	34.65487
827.4174	33.00028
827.5625	33.45572
827.7075	35.17955
827.8526	38.66575
827.9976	35.69437
828.1426	31.48715
828.2877	34.26728
828.4327	42.27705
828.5776	34.99099
828.7227	34.75468
828.8676	31.96556
829.0126	33.79588
829.1575	35.44455
829.3024	32.64199
829.4474	32.46581
829.5923	35.21402
829.7372	33.89263
829.8821	35.25924
830.027	33.4814
830.1719	36.33072
830.3168	34.08435
830.4616	27.18156
830.6064	28.54236
830.7513	33.92852
830.8961	38.52381
831.041	37.53609
831.1857	30.65088
831.3306	34.96733
831.4753	32.3632
831.6201	35.67952
831.7649	31.35123
831.9096	36.95457
832.0544	33.11945
832.1991	33.29862
832.3438	34.15798
832.4885	34.00157
832.6332	33.48216
832.778	34.71231
832.9226	33.53883
833.0673	34.39737
833.2119	39.11989
833.3566	33.61444
833.5012	30.25423
833.6459	32.81362
833.7905	30.9649
833.9351	32.51479
834.0797	31.94935
834.2243	27.92475
834.3688	33.25523
834.5134	37.70242
834.658	35.71433
834.8026	34.08844
834.9471	36.62944
835.0916	38.64005
835.2361	41.46839
835.3806	34.11707
835.5251	33.09353
835.6696	34.84843
835.8141	36.5178
835.9586	32.24923
836.103	31.71558
836.2474	31.04832
836.3918	34.97942
836.5363	40.63432
836.6807	37.8868
836.8251	39.18536
836.9695	33.31845
837.1138	36.10991
837.2582	36.58426
837.4026	36.35195
837.5469	33.68983
837.6913	36.97138
837.8356	35.34385
837.9799	30.05176
838.1242	35.42323
838.2686	34.2907
838.4128	32.46243
838.5571	34.44869
838.7014	35.04401
838.8456	35.92923
838.9899	37.19055
839.1341	36.29135
839.2783	39.57568
839.4225	38.73826
839.5667	35.37558
839.7109	30.55693
839.8551	34.6079
839.9993	36.33884
840.1434	36.7623
840.2876	33.20723
840.4317	38.26991
840.5759	34.06757
840.72	37.7798
840.8641	37.72474
841.0082	33.66267
841.1523	32.32889
841.2963	39.37117
841.4404	36.58187
841.5845	34.47141
841.7285	31.6883
841.8726	33.81505
842.0165	35.23047
842.1606	33.06683
842.3046	37.3054
842.4485	33.81002
842.5925	32.39255
842.7365	36.46511
842.8805	37.26743
843.0244	37.64928
843.1684	32.37107
843.3123	33.01136
843.4562	33.93505
843.6002	28.582
843.744	31.08117
843.8879	35.57893
844.0318	37.06458
844.1757	38.33852
844.3195	32.91889
844.4634	35.2254
844.6072	35.16506
844.751	34.04714
844.8948	29.80345
845.0386	33.51258
845.1824	33.04991
845.3262	32.76391
845.47	30.62069
845.6138	33.3205
845.7575	33.07873
845.9012	35.1262
846.045	33.84538
846.1887	33.80084
846.3324	35.77986
846.4761	33.01894
846.6198	32.92609
846.7635	29.96776
846.9071	35.57751
847.0508	35.3345
847.1944	29.81033
847.3381	31.34247
847.4817	32.59367
847.6253	31.16445
847.7689	28.55774
847.9125	34.59359
848.0561	34.89518
848.1996	31.05239
848.3432	26.35275
848.4868	27.78338
848.6303	29.71756
848.7738	29.83264
848.9174	32.00645
849.0609	36.47085
849.2043	30.82523
849.3478	34.52807
849.4913	32.19748
849.6348	29.98901
849.7782	27.63448
849.9217	28.50831
850.0651	28.18114
850.2086	29.67958
850.3519	26.58396
850.4954	25.28829
850.6387	26.15311
850.7821	30.50803
850.9255	35.01711
851.0688	30.67566
851.2122	29.44888
851.3555	31.24251
851.4988	28.16655
851.6422	25.45363
851.7855	25.6687
851.9288	30.31028
852.0721	32.95372
852.2153	23.45643
852.3586	26.72064
852.5018	24.09622
852.6451	32.62219
852.7883	31.6904
852.9315	30.8607
853.0748	31.3497
853.218	31.08503
853.3611	33.73921
853.5043	29.21109
853.6475	27.7935
853.7906	28.76949
853.9338	26.71248
854.0769	26.8746
854.22	23.68981
854.3632	21.26884
854.5063	24.39188
854.6494	26.62225
854.7924	27.19298
854.9355	26.98635
855.0786	26.66047
855.2216	26.16308
855.3647	31.02609
855.5077	33.94892
855.6507	30.17366
855.7937	26.86634
855.9367	30.30914
856.0797	25.70213
856.2227	31.31239
856.3657	29.04169
856.5086	22.85482
856.6516	28.27772
856.7945	29.56925
856.9374	26.52232
857.0803	27.06349
857.2232	29.47961
857.3661	27.48047
857.509	26.77779
857.6519	31.67263
857.7947	27.66127
857.9376	29.5383
858.0804	30.96968
858.2232	29.04915
858.366	29.11039
858.5089	32.02126
858.6516	30.72595
858.7944	28.19506
858.9372	30.28053
859.08	27.94618
859.2227	29.37125
859.3654	30.436
859.5082	29.59126
859.6509	30.24771
859.7936	31.17363
859.9363	28.53358
860.079	28.22235
860.2217	31.02164
860.3643	26.17186
860.507	28.46169
860.6496	30.27014
860.7922	31.49043
860.9349	24.915
861.0775	27.6889
861.2201	30.15479
861.3627	26.9065
861.5052	27.20556
861.6478	26.40824
861.7904	27.53382
861.9329	27.27152
862.0755	27.34459
862.218	26.79131
862.3605	28.22472
862.503	22.55669
862.6455	24.8837
862.788	24.70676
862.9305	25.897
863.0729	27.46557
863.2154	26.55494
863.3578	27.78965
863.5002	25.03547
863.6426	28.28761
863.7851	29.5579
863.9275	24.59159
864.0698	27.5453
864.2122	24.59034
864.3546	20.3938
864.4969	26.29375
864.6393	24.72783
864.7816	24.65217
864.924	25.17854
865.0662	27.66208
865.2086	24.4265
865.3508	24.75926
865.4931	23.68613
865.6354	23.88353
865.7776	26.63393
865.9199	23.31974
866.0621	23.53307
866.2043	17.7348
866.3466	14.94702
866.4888	23.57636
866.6309	28.30892
866.7731	24.68851
866.9153	19.88999
867.0574	21.01216
867.1996	22.66631
867.3417	25.15998
867.4839	28.28852
867.626	29.18193
867.7681	28.23332
867.9102	26.26213
868.0522	27.31607
868.1943	25.17493
868.3364	21.47843
868.4785	28.17085
868.6205	25.42708
868.7625	25.42843
868.9045	28.08501
869.0465	25.72651
869.1885	24.78575
869.3305	20.80277
869.4725	22.00832
869.6144	21.23888
869.7564	21.18294
869.8983	24.23318
870.0403	21.16702
870.1822	22.14319
870.3241	26.05066
870.466	24.75946
870.6079	23.59654
870.7498	24.53152
870.8916	21.66381
871.0335	23.6514
871.1754	20.78591
871.3171	23.60417
871.459	18.17847
871.6008	19.7437
871.7426	22.2813
871.8844	23.30008
872.0262	24.61839
872.1679	22.69854
872.3097	22.99507
872.4514	21.3023
872.5931	22.83525
872.7349	24.42024
872.8766	21.34527
873.0183	23.31484
873.16	26.38052
873.3017	22.53237
873.4434	20.57391
873.585	21.23123
873.7266	26.53702
873.8683	22.29431
874.0099	21.05801
874.1516	21.02982
874.2932	21.18198
874.4348	24.01007
874.5763	25.6617
874.7179	27.58374
874.8594	27.71477
875.001	22.59832
875.1425	18.9858
875.2841	16.84367
875.4256	18.56071
875.5671	18.26089
875.7086	17.40394
875.85	23.57695
875.9915	19.35551
876.133	22.32952
876.2744	23.28177
876.4159	19.69502
876.5573	23.44877
876.6987	23.98122
876.8401	24.29504
876.9815	23.11499
877.1229	21.04889
877.2643	21.02809
877.4056	20.19275
877.547	22.41845
877.6884	26.49481
877.8297	22.18549
877.971	25.20919
878.1123	22.6958
878.2536	18.06922
878.3949	19.16158
878.5362	23.55569
878.6774	24.1172
878.8187	20.53492
878.9599	22.18024
879.1011	20.5229
879.2424	16.59036
879.3836	21.65432
879.5248	21.39359
879.666	18.90613
879.8071	23.23202
879.9483	22.90477
880.0895	20.69757
880.2306	21.22875
880.3718	21.18945
880.5129	19.60293
880.654	15.20392
880.7951	15.44987
880.9362	17.96967
881.0773	16.57794
881.2183	20.45965
881.3594	22.47249
881.5004	18.09172
881.6414	21.94289
881.7825	21.90909
881.9235	25.23556
882.0645	19.55283
882.2054	13.72128
882.3464	14.28963
882.4874	16.89985
882.6284	22.73085
882.7693	23.22717
882.9103	19.76138
883.0512	24.61536
883.1921	21.12339
883.333	22.05792
883.4739	22.53135
883.6147	21.39783
883.7556	21.86953
883.8965	18.05445
884.0374	20.74375
884.1782	20.45441
884.319	21.44449
884.4598	19.55771
884.6006	23.50115
884.7414	21.3712
884.8822	16.98066
885.0229	19.95729
885.1637	18.02849
885.3044	18.59188
885.4452	20.82546
885.5859	20.08316
885.7266	17.70719
885.8673	17.4608
886.008	22.27847
886.1487	19.14479
886.2894	19.54077
886.43	15.68459
886.5707	18.96912
886.7113	17.87918
886.8519	20.28856
886.9926	20.02347
887.1331	19.11374
887.2737	19.07028
887.4143	15.82688
887.5549	17.26182
887.6954	15.81952
887.836	20.36459
887.9765	17.18554
888.1171	21.59401
888.2576	17.80607
888.3981	19.18105
888.5386	16.19688
888.679	22.24218
888.8195	15.82817
888.96	15.27718
889.1004	18.45097
889.2408	19.76155
889.3813	20.3522
889.5217	22.02358
889.6621	20.02357
889.8025	21.08038
889.9429	19.50396
890.0833	18.90633
890.2236	16.20242
890.364	17.94078
890.5043	18.83742
890.6446	19.75404
890.7849	20.57131
890.9252	16.50691
891.0655	17.34604
891.2058	16.12543
891.3461	17.6691
891.4863	23.54314
891.6266	15.40269
891.7668	13.8875
891.907	21.45183
892.0472	20.73344
892.1874	13.41053
892.3276	15.73879
892.4678	18.16684
892.608	17.99966
892.7481	17.86087
892.8883	18.40892
893.0284	20.23454
893.1685	19.58485
893.3087	15.74778
893.4487	15.77836
893.5889	13.46244
893.7289	13.52204
893.869	15.68479
894.009	17.97616
894.1491	10.90592
894.2891	19.00567
894.4291	18.14634
894.5692	13.11656
894.7092	14.79071
894.8491	13.49819
894.9891	14.6755
895.1291	14.87189
895.269	11.44339
895.409	17.21284
895.549	18.15356
895.6888	10.53371
895.8288	11.90746
895.9687	14.75453
896.1086	13.50753
896.2484	11.76605
896.3883	6.739404
896.5281	8.160064
896.668	11.13296
896.8079	11.83931
896.9476	11.20028
897.0875	13.66885
897.2272	9.368178
897.3671	11.81635
897.5068	15.51455
897.6466	14.97957
897.7864	11.21893
897.9261	12.71093
898.0658	11.30573
898.2056	10.97425
898.3453	11.76611
898.4849	12.71221
898.6246	14.91155
898.7643	15.82952
898.904	9.570545
899.0436	9.169562
899.1833	8.172514
899.3229	6.792944
899.4625	16.28272
899.6021	14.92994
899.7417	14.81005
899.8813	10.27524
900.0209	12.45817
900.1605	10.03759
900.3	9.863947
900.4395	13.66738
900.579	12.26203
900.7186	15.40356
900.8581	9.814031
900.9976	14.05328
901.1371	14.19697
901.2766	9.212864
901.416	7.892931
901.5555	19.5508
901.6949	9.623658
901.8344	9.88913
901.9738	9.570691
902.1132	8.551533
902.2526	13.2635
902.3919	9.206861
902.5313	11.05685
902.6707	9.845671
