SPECTRUM DATA FILE
SpectrumCount:	1
PixelCount:	3648
UserName:	ToughBook User
SampleName:	
LightSource:	
Comments:	
DeviceName:	Qwave
DeviceManufacturer:	Broadcom
DeviceSerialNo:	11311

Name:	last spectrum
Date:	2024-05-02T15:07:21.0086800+02:00
ExposureTime:	0.02
TemporalAvg:	1
IntensityUnit:	normalizedCounts
CCDLoadLevel:	0.02462788
Temperature:	28.06824
DiagramColor:	200
ProcessingSteps:	335

Wavelength [nm]	Intensity1
334.421	6.502795
334.5891	5.282585
334.7573	6.030591
334.9254	4.306804
335.0935	0.8873048
335.2616	4.449323
335.4297	3.598801
335.5978	4.577412
335.7659	1.863849
335.934	2.562389
336.1021	4.004665
336.2701	4.883433
336.4382	8.585905
336.6063	4.004954
336.7744	3.882998
336.9424	5.229613
337.1105	4.337655
337.2785	5.450495
337.4466	1.857353
337.6146	3.085765
337.7827	2.197888
337.9507	3.52947
338.1187	4.154161
338.2867	-0.3825481
338.4548	1.131261
338.6228	5.969202
338.7908	1.818613
338.9588	5.595888
339.1268	2.235484
339.2948	-0.1352067
339.4628	5.833562
339.6308	4.378109
339.7988	6.649899
339.9667	4.467987
340.1347	7.435187
340.3027	5.309853
340.4707	5.618521
340.6386	4.485703
340.8066	1.151475
340.9745	4.612794
341.1425	5.671515
341.3104	5.113725
341.4784	3.52857
341.6463	5.222895
341.8142	4.307838
341.9821	1.869871
342.1501	4.573939
342.318	2.234437
342.4859	3.740576
342.6538	7.290756
342.8217	4.366699
342.9896	10.62494
343.1575	2.52106
343.3254	8.116858
343.4933	2.701132
343.6612	4.856087
343.829	1.780054
343.9969	4.762938
344.1648	7.334591
344.3326	3.971242
344.5005	5.292989
344.6683	4.578989
344.8362	4.782267
345.004	8.337513
345.1719	7.16811
345.3397	9.961601
345.5075	2.220829
345.6754	0.864286
345.8432	1.553082
346.011	1.253671
346.1788	5.507695
346.3466	5.090386
346.5144	3.852499
346.6822	4.790565
346.85	7.554476
347.0178	4.709646
347.1856	4.586036
347.3534	3.934556
347.5211	1.173457
347.6889	0.5123465
347.8567	4.503296
348.0244	8.20882
348.1922	8.85886
348.3599	6.375936
348.5277	4.158326
348.6954	7.26468
348.8632	12.31713
349.0309	8.213358
349.1986	3.461854
349.3663	5.871357
349.5341	6.430609
349.7018	4.248596
349.8695	6.318329
350.0372	8.779699
350.2049	6.867371
350.3726	8.670732
350.5403	5.573046
350.7079	4.146759
350.8756	7.171566
351.0433	6.722534
351.211	3.918989
351.3786	5.798938
351.5463	5.117045
351.714	4.802669
351.8816	2.627076
352.0493	3.370892
352.2169	6.626126
352.3846	5.806347
352.5522	6.668085
352.7198	5.426488
352.8875	6.412852
353.0551	4.06798
353.2227	6.510626
353.3903	5.671479
353.5579	4.369529
353.7255	5.437431
353.8931	9.20849
354.0607	5.881023
354.2283	3.576669
354.3958	6.924283
354.5634	1.669792
354.731	5.817252
354.8986	5.919627
355.0661	3.160914
355.2337	5.795501
355.4012	3.758045
355.5688	5.271441
355.7363	3.921191
355.9039	4.473488
356.0714	7.289415
356.239	4.647634
356.4065	5.744321
356.574	6.361346
356.7415	5.946633
356.909	3.76766
357.0765	5.994041
357.244	8.211903
357.4115	8.771741
357.579	8.577937
357.7465	8.243563
357.914	3.341962
358.0815	8.820827
358.249	4.731915
358.4164	3.292334
358.5839	5.342104
358.7513	2.565784
358.9188	5.370457
359.0862	6.291497
359.2537	7.976075
359.4211	7.298762
359.5886	0.4896986
359.756	6.19199
359.9234	7.597437
360.0909	7.042558
360.2583	8.67729
360.4257	8.094574
360.5931	3.900141
360.7605	4.389957
360.9279	10.01036
361.0953	7.893932
361.2627	8.488964
361.4301	6.030997
361.5974	10.5863
361.7648	11.02678
361.9322	7.143634
362.0995	6.534926
362.2669	2.44226
362.4343	5.393513
362.6016	10.25567
362.769	6.236665
362.9363	2.639081
363.1036	3.534702
363.271	1.419937
363.4383	5.273674
363.6056	10.71159
363.7729	8.712815
363.9402	7.398317
364.1075	10.27539
364.2748	11.86172
364.4421	11.98027
364.6094	6.836895
364.7767	8.630652
364.944	7.815765
365.1113	6.193046
365.2786	7.592401
365.4458	6.31947
365.6131	5.671709
365.7803	7.708986
365.9476	8.864725
366.1148	5.390548
366.2821	7.695764
366.4493	8.891084
366.6166	3.25494
366.7838	7.065285
366.951	2.859148
367.1182	4.503633
367.2855	6.452037
367.4527	8.869278
367.6199	9.773293
367.7871	8.702275
367.9543	7.943719
368.1215	9.24548
368.2886	5.84144
368.4558	5.131537
368.623	8.209483
368.7902	9.947144
368.9573	6.92348
369.1245	7.483442
369.2917	4.621078
369.4588	6.835234
369.6259	10.13503
369.7931	8.104133
369.9602	5.515265
370.1274	6.733626
370.2945	6.646714
370.4616	6.653546
370.6287	0.8650362
370.7958	8.345305
370.963	7.79566
371.1301	6.537332
371.2971	5.417557
371.4643	6.515861
371.6313	9.743268
371.7984	5.662674
371.9655	9.386865
372.1326	8.098118
372.2997	7.19098
372.4667	6.554499
372.6338	8.221136
372.8008	11.00133
372.9679	14.71165
373.1349	9.199746
373.3019	7.637035
373.469	5.214688
373.636	-0.9862679
373.803	5.096679
373.9701	9.729002
374.1371	8.040526
374.3041	7.862544
374.4711	5.832683
374.6381	8.45586
374.8051	4.690927
374.9721	7.634173
375.1391	7.220468
375.3061	8.645018
375.473	13.7871
375.64	10.39084
375.8069	13.89463
375.9739	10.10048
376.1409	12.07454
376.3078	10.36014
376.4748	6.537662
376.6417	6.043542
376.8087	8.352652
376.9756	4.290033
377.1425	7.300529
377.3094	6.322381
377.4763	5.312663
377.6432	7.363547
377.8102	7.791096
377.9771	8.273755
378.144	11.86672
378.3109	4.50181
378.4777	5.311762
378.6446	10.98375
378.8115	5.339719
378.9784	6.835592
379.1452	3.26623
379.3121	5.747252
379.4789	10.50725
379.6458	7.30612
379.8127	7.038218
379.9795	9.108903
380.1463	7.88518
380.3131	11.16269
380.48	9.01385
380.6468	8.217826
380.8136	9.406604
380.9804	5.436226
381.1472	1.352831
381.314	6.224899
381.4808	10.93175
381.6476	5.668683
381.8144	6.309412
381.9812	7.892008
382.148	6.345851
382.3147	4.737308
382.4815	6.002728
382.6483	4.947689
382.815	8.617783
382.9818	8.480333
383.1485	6.446898
383.3153	9.3943
383.482	11.66386
383.6487	10.44647
383.8155	6.319947
383.9822	7.535248
384.1489	10.96451
384.3156	8.07279
384.4823	9.171974
384.649	10.5026
384.8157	6.866292
384.9824	6.350016
385.1491	10.70163
385.3158	8.458375
385.4825	4.84273
385.6491	6.741925
385.8158	12.24687
385.9825	12.95478
386.1491	6.573763
386.3157	9.335189
386.4824	9.894358
386.649	8.756246
386.8157	9.286746
386.9823	12.36148
387.1489	5.382361
387.3156	5.146592
387.4821	8.890126
387.6488	10.48591
387.8154	8.696045
387.982	15.94072
388.1486	12.94702
388.3152	8.279242
388.4818	11.04079
388.6483	10.58849
388.8149	8.545898
388.9815	12.06282
389.148	7.693958
389.3146	5.698803
389.4811	8.703503
389.6477	11.14341
389.8142	12.44513
389.9808	12.87464
390.1473	7.333191
390.3138	10.46428
390.4804	8.572589
390.6469	10.95748
390.8134	8.687264
390.9799	11.2097
391.1464	13.78949
391.3129	10.18159
391.4794	12.47178
391.6459	8.261328
391.8124	9.720344
391.9789	9.433841
392.1453	12.14865
392.3118	7.389252
392.4782	6.347011
392.6447	6.606672
392.8112	8.509717
392.9776	9.360852
393.144	6.628075
393.3105	10.56759
393.4769	11.38922
393.6433	10.69484
393.8098	8.918329
393.9762	12.59309
394.1426	9.751062
394.309	10.33212
394.4754	7.22072
394.6418	9.34311
394.8082	13.56451
394.9746	8.248951
395.141	12.59745
395.3073	13.76539
395.4737	14.24984
395.64	10.62288
395.8064	11.26376
395.9728	15.60892
396.1391	15.26859
396.3055	8.190675
396.4718	5.329719
396.6381	10.02641
396.8045	8.402131
396.9708	8.225674
397.1371	6.698706
397.3034	11.43018
397.4697	18.01003
397.636	11.01145
397.8023	9.455004
397.9686	9.035826
398.1349	13.10463
398.3012	11.48803
398.4675	9.717486
398.6337	15.73331
398.8	13.74967
398.9662	12.80684
399.1325	10.49114
399.2988	12.82867
399.465	12.14085
399.6313	14.21036
399.7975	12.75878
399.9637	11.63718
400.1299	15.94367
400.2961	16.83061
400.4624	13.07169
400.6286	13.97173
400.7948	12.38313
400.961	15.03082
401.1272	14.00548
401.2934	15.97804
401.4595	16.80926
401.6257	11.58719
401.7919	13.47115
401.9581	14.73668
402.1242	16.46617
402.2904	13.26818
402.4565	10.32436
402.6227	13.0206
402.7888	12.64142
402.955	12.3374
403.1211	9.10778
403.2872	11.37759
403.4533	14.75212
403.6194	14.62241
403.7856	15.63313
403.9517	11.72433
404.1177	13.78273
404.2838	12.73639
404.4499	14.23762
404.616	13.37799
404.7821	12.76167
404.9482	11.28073
405.1142	16.47021
405.2803	13.13656
405.4464	11.65416
405.6124	14.35148
405.7784	14.98081
405.9445	14.32492
406.1105	13.04489
406.2766	17.78294
406.4426	13.72413
406.6086	11.79121
406.7746	15.07735
406.9406	13.50808
407.1066	18.01715
407.2726	20.03435
407.4386	14.48426
407.6046	18.22688
407.7706	11.78521
407.9366	12.42378
408.1025	21.06522
408.2685	19.57133
408.4344	16.79506
408.6004	17.14482
408.7664	19.28637
408.9323	18.44086
409.0983	16.39409
409.2642	14.10457
409.4301	19.49304
409.596	18.93533
409.762	19.50869
409.9279	11.90701
410.0938	14.75625
410.2597	13.77218
410.4256	11.60425
410.5915	9.748471
410.7574	16.4752
410.9232	16.08915
411.0891	17.8842
411.255	16.40981
411.4209	17.5274
411.5867	20.54429
411.7526	16.75605
411.9184	15.47359
412.0843	15.08447
412.2501	17.84616
412.4159	24.78847
412.5818	24.31313
412.7476	17.99909
412.9134	13.35896
413.0792	19.22673
413.245	20.4664
413.4108	12.96256
413.5766	15.95301
413.7424	20.40328
413.9082	22.7984
414.074	20.06627
414.2397	22.85516
414.4055	19.10217
414.5713	24.52686
414.737	23.5308
414.9028	18.15336
415.0685	12.46575
415.2343	20.63845
415.4	17.23771
415.5658	16.48929
415.7315	23.59614
415.8972	21.23474
416.0629	20.17632
416.2286	17.12912
416.3943	17.73684
416.56	14.31577
416.7257	18.50496
416.8914	19.35461
417.0571	19.5659
417.2228	17.79347
417.3884	16.29739
417.5541	21.68808
417.7198	22.39244
417.8854	17.63021
418.0511	18.51029
418.2167	17.88589
418.3824	18.3464
418.548	18.10465
418.7136	22.14424
418.8792	18.26385
419.0449	21.87494
419.2105	20.82579
419.3761	22.16166
419.5417	23.55951
419.7073	19.87476
419.8729	26.45665
420.0385	19.68884
420.204	20.21346
420.3696	21.32869
420.5352	18.55622
420.7007	20.60874
420.8663	20.47757
421.0319	23.30318
421.1974	20.24363
421.3629	26.09051
421.5285	22.80118
421.694	24.47157
421.8595	20.47668
422.0251	26.14747
422.1906	24.07672
422.3561	26.89097
422.5216	23.15653
422.6871	17.84605
422.8526	19.90188
423.0181	21.93203
423.1835	25.31343
423.349	21.60703
423.5145	19.00727
423.68	22.01994
423.8454	26.00016
424.0109	28.57278
424.1763	20.52849
424.3418	21.22898
424.5072	21.90797
424.6726	25.23229
424.838	18.12224
425.0035	20.24284
425.1689	28.19205
425.3343	26.82587
425.4997	23.57293
425.6651	25.99318
425.8305	23.53495
425.9959	30.59134
426.1613	28.90731
426.3267	23.04793
426.492	24.9829
426.6574	27.27391
426.8228	26.15245
426.9881	22.60688
427.1534	21.7842
427.3188	30.04858
427.4841	25.17297
427.6495	24.49424
427.8148	24.42081
427.9801	21.94881
428.1454	20.63449
428.3107	25.6718
428.476	22.15497
428.6414	26.79901
428.8066	26.51122
428.9719	26.44453
429.1372	23.39827
429.3025	20.97259
429.4678	26.23753
429.633	27.19529
429.7983	29.63456
429.9636	24.17002
430.1288	21.26431
430.294	22.08038
430.4593	22.84578
430.6245	20.61683
430.7897	18.25792
430.955	19.10724
431.1202	23.10252
431.2854	21.86776
431.4506	24.58637
431.6158	29.4001
431.781	27.75993
431.9462	28.0203
432.1114	28.56282
432.2766	28.71585
432.4417	22.1773
432.6069	22.11508
432.772	22.40973
432.9372	28.02903
433.1024	27.32493
433.2675	26.55992
433.4326	25.23337
433.5977	27.94362
433.7629	23.68152
433.928	27.36131
434.0931	21.9628
434.2582	24.52586
434.4233	27.69899
434.5884	33.48059
434.7535	33.87482
434.9186	31.33438
435.0837	25.28839
435.2488	27.03042
435.4138	30.2352
435.5789	30.70549
435.744	34.75729
435.909	33.52347
436.0741	30.2147
436.2391	27.79268
436.4042	32.46371
436.5692	30.91294
436.7342	28.57411
436.8992	31.51913
437.0643	33.06471
437.2293	23.19378
437.3943	31.63997
437.5593	29.94521
437.7243	30.30659
437.8893	29.24451
438.0542	35.85277
438.2192	32.26584
438.3842	25.48539
438.5491	29.82581
438.7141	29.5591
438.8791	25.23843
439.044	27.74227
439.209	34.61569
439.3739	33.89392
439.5388	32.79322
439.7037	34.05798
439.8687	35.7617
440.0336	30.48533
440.1985	27.61166
440.3634	29.28871
440.5283	31.39516
440.6932	29.94453
440.8581	34.42961
441.0229	28.50265
441.1878	35.9602
441.3527	32.32314
441.5175	31.06639
441.6824	34.49577
441.8472	29.77577
442.0121	32.91191
442.1769	36.15464
442.3418	34.74667
442.5066	36.70168
442.6714	35.99772
442.8362	32.78426
443.001	36.33941
443.1659	36.64357
443.3307	33.38448
443.4955	38.79777
443.6602	33.8206
443.825	38.44608
443.9898	34.91061
444.1546	33.38103
444.3193	33.64778
444.4841	34.11912
444.6488	32.83384
444.8136	33.54396
444.9783	34.52075
445.1431	38.4124
445.3078	37.41738
445.4725	30.6486
445.6372	28.16193
445.802	28.62294
445.9667	36.29468
446.1314	34.05862
446.2961	34.31825
446.4608	30.25485
446.6255	31.22613
446.7901	33.62986
446.9548	39.58034
447.1195	36.38703
447.2841	36.26963
447.4488	35.57207
447.6134	38.52851
447.7781	37.24422
447.9427	39.81457
448.1074	39.04197
448.272	37.54917
448.4366	36.48658
448.6012	41.07543
448.7658	40.35648
448.9305	41.12519
449.095	37.90903
449.2596	39.97374
449.4242	40.18017
449.5888	38.35081
449.7534	34.9618
449.9179	35.45586
450.0825	34.72311
450.2471	37.81795
450.4116	38.64455
450.5762	40.87091
450.7407	39.31615
450.9052	41.47276
451.0698	42.44119
451.2343	36.71668
451.3988	36.92601
451.5633	35.35128
451.7278	44.39672
451.8923	39.74046
452.0568	38.41426
452.2213	40.91963
452.3858	42.1705
452.5503	41.11914
452.7148	32.57915
452.8792	38.5027
453.0437	38.15205
453.2081	35.53751
453.3726	38.30557
453.537	42.4981
453.7015	42.03036
453.8659	41.54276
454.0303	41.1229
454.1947	38.34362
454.3592	41.48967
454.5236	40.69363
454.688	42.29935
454.8524	42.37298
455.0168	39.92379
455.1811	41.73666
455.3455	44.92244
455.5099	45.45876
455.6743	42.9031
455.8386	44.10322
456.003	45.18692
456.1673	41.92434
456.3317	44.81126
456.496	41.93729
456.6603	41.22903
456.8246	40.46618
456.989	39.82507
457.1533	41.71349
457.3176	41.69163
457.4819	48.6153
457.6462	43.71794
457.8105	48.01413
457.9748	45.42192
458.1391	40.81314
458.3033	40.72865
458.4676	44.43825
458.6319	41.38789
458.7961	41.41692
458.9604	42.63342
459.1246	45.6941
459.2888	45.11658
459.4531	42.7978
459.6173	45.45287
459.7815	47.50127
459.9457	45.80846
460.11	39.61501
460.2741	45.00884
460.4384	41.27218
460.6025	42.09838
460.7667	42.51785
460.9309	42.089
461.0951	41.30399
461.2592	46.0395
461.4234	43.68869
461.5876	43.53853
461.7517	43.70988
461.9159	41.72216
462.08	45.72092
462.2441	47.93466
462.4082	45.22009
462.5724	42.05298
462.7365	44.24156
462.9006	43.11434
463.0647	45.79493
463.2288	47.5494
463.3929	49.20364
463.557	45.64266
463.721	42.96453
463.8851	44.3328
464.0492	38.79087
464.2132	42.21518
464.3773	45.11789
464.5414	41.07946
464.7054	44.48689
464.8694	41.81194
465.0334	39.31158
465.1975	45.57169
465.3615	41.20205
465.5255	40.32271
465.6895	40.8116
465.8535	41.8484
466.0175	45.09703
466.1815	43.92762
466.3455	46.6838
466.5095	45.881
466.6734	42.47498
466.8374	41.01773
467.0014	42.71058
467.1653	41.91579
467.3293	46.99448
467.4932	46.74224
467.6571	45.35389
467.8211	41.86783
467.985	42.23066
468.1489	45.37944
468.3128	44.8583
468.4767	41.29959
468.6406	44.27705
468.8045	47.56532
468.9684	46.49142
469.1323	46.05419
469.2962	46.74276
469.46	47.1474
469.6239	45.34322
469.7878	42.62079
469.9516	42.07134
470.1154	39.32729
470.2793	39.23508
470.4431	42.389
470.607	41.1045
470.7708	43.09155
470.9346	45.24324
471.0984	46.264
471.2622	48.40006
471.426	43.90267
471.5898	47.2469
471.7536	50.81242
471.9174	48.66756
472.0811	47.50021
472.2449	44.74413
472.4087	49.07279
472.5724	50.61908
472.7362	47.81736
472.8999	46.02615
473.0637	45.38401
473.2274	46.31865
473.3911	44.08818
473.5548	49.45795
473.7185	47.68068
473.8822	44.36031
474.0459	49.36744
474.2096	49.09727
474.3733	48.75922
474.537	45.35439
474.7007	39.26326
474.8643	45.03271
475.028	46.02372
475.1917	44.43872
475.3553	45.884
475.519	45.42253
475.6826	46.49975
475.8463	45.8098
476.0099	45.47109
476.1735	45.37391
476.3371	42.81604
476.5007	47.53253
476.6643	42.8857
476.8279	45.61999
476.9915	41.83551
477.1551	47.47042
477.3187	50.38192
477.4823	45.21005
477.6458	48.58836
477.8094	48.63226
477.9729	47.0909
478.1365	47.9292
478.3	49.15215
478.4636	48.68151
478.6271	48.34575
478.7906	43.38448
478.9541	46.80314
479.1176	46.69038
479.2812	45.85785
479.4447	48.54637
479.6082	47.4971
479.7716	44.20912
479.9351	42.81679
480.0986	45.79527
480.2621	48.08814
480.4255	47.94678
480.589	44.87014
480.7524	47.47742
480.9159	45.0699
481.0793	47.27434
481.2428	43.74572
481.4062	46.24701
481.5696	45.47014
481.733	42.2119
481.8964	41.86296
482.0598	40.57955
482.2232	41.59758
482.3866	46.31859
482.55	45.42854
482.7134	43.52603
482.8768	43.5955
483.0401	43.56548
483.2035	47.6893
483.3668	45.33805
483.5302	46.79922
483.6935	44.90179
483.8568	46.88562
484.0202	46.98371
484.1835	48.71345
484.3468	44.48873
484.5101	50.50293
484.6734	46.29484
484.8367	47.89192
485	47.36196
485.1633	48.62747
485.3266	49.23771
485.4899	48.30807
485.6531	38.75365
485.8164	38.32795
485.9796	39.53949
486.1429	40.5628
486.3061	38.21598
486.4694	35.45433
486.6326	41.03009
486.7958	45.4226
486.959	48.25223
487.1223	44.54832
487.2855	44.87438
487.4486	48.3462
487.6118	47.57056
487.775	48.44546
487.9382	52.07777
488.1014	51.07818
488.2646	46.73594
488.4277	45.58022
488.5909	49.15799
488.754	45.21217
488.9171	42.6194
489.0803	46.65574
489.2434	47.11439
489.4066	48.07038
489.5697	47.49288
489.7328	48.57549
489.8959	48.03307
490.059	42.67922
490.2221	49.55158
490.3852	48.24131
490.5482	45.09185
490.7113	47.07829
490.8744	48.30727
491.0374	48.90276
491.2005	50.18219
491.3636	47.47376
491.5266	53.39523
491.6896	45.06605
491.8527	46.39742
492.0157	46.33473
492.1787	43.94233
492.3417	45.88015
492.5047	45.44415
492.6677	53.58093
492.8307	49.75851
492.9937	48.3196
493.1567	49.99872
493.3196	48.57617
493.4826	47.99215
493.6456	43.76385
493.8085	47.75358
493.9715	46.60868
494.1344	46.68127
494.2974	45.73095
494.4603	47.62748
494.6232	44.33817
494.7861	47.63529
494.949	51.6166
495.1119	52.27043
495.2748	51.17599
495.4377	55.32054
495.6006	48.22678
495.7635	45.01498
495.9264	44.19999
496.0892	48.2815
496.2521	47.60341
496.4149	52.5667
496.5778	50.43699
496.7407	50.98494
496.9035	53.48861
497.0663	51.58411
497.2291	50.18977
497.3919	53.5371
497.5547	54.41382
497.7176	45.85781
497.8804	47.1216
498.0432	52.56055
498.2059	48.65633
498.3687	46.15183
498.5315	50.63092
498.6942	51.53594
498.857	53.25257
499.0198	51.58844
499.1825	50.86647
499.3452	50.94036
499.508	47.7361
499.6707	50.11061
499.8334	52.23915
499.9962	51.48787
500.1589	46.85719
500.3216	50.08345
500.4843	49.00817
500.6469	52.63039
500.8096	52.32848
500.9723	53.38803
501.135	50.41789
501.2976	47.74001
501.4603	48.99792
501.623	49.06157
501.7856	47.09519
501.9482	52.44656
502.1109	47.44297
502.2735	47.41643
502.4361	50.40366
502.5987	50.05504
502.7614	52.09322
502.924	50.74742
503.0865	52.63858
503.2491	52.89491
503.4117	52.72065
503.5743	52.07855
503.7368	53.17355
503.8994	51.07288
504.062	50.69528
504.2245	47.89594
504.3871	53.06602
504.5496	55.15573
504.7121	59.66222
504.8746	53.87082
505.0372	48.77008
505.1997	48.43573
505.3622	51.64113
505.5247	55.98475
505.6872	53.30555
505.8497	52.22337
506.0121	54.77762
506.1746	57.23034
506.3371	50.19888
506.4995	51.8091
506.662	50.1692
506.8244	53.13906
506.9869	53.51194
507.1493	56.12638
507.3117	54.77417
507.4742	49.25305
507.6366	53.58058
507.799	55.63527
507.9614	49.97903
508.1238	48.61678
508.2862	48.46212
508.4485	58.75247
508.6109	62.56268
508.7733	58.20786
508.9357	50.11671
509.098	54.88014
509.2604	55.65642
509.4227	56.31376
509.5851	52.63101
509.7474	54.17023
509.9097	58.61268
510.072	59.45177
510.2343	55.88101
510.3966	56.79064
510.5589	59.79079
510.7212	60.93972
510.8835	60.80006
511.0458	55.80576
511.2081	61.62632
511.3703	60.4379
511.5326	59.81678
511.6949	62.39051
511.8571	59.06266
512.0193	59.02646
512.1816	53.48796
512.3438	56.93681
512.506	60.72263
512.6682	61.98901
512.8304	52.80078
512.9926	55.62232
513.1548	59.93911
513.317	60.86879
513.4792	61.40666
513.6414	63.33319
513.8035	59.88338
513.9657	59.97586
514.1279	60.55489
514.29	60.43685
514.4521	60.32304
514.6143	60.4867
514.7764	63.66001
514.9385	64.23901
515.1006	61.5043
515.2628	58.89994
515.4249	60.47592
515.587	59.38197
515.7491	65.93383
515.9111	65.60738
516.0732	61.56459
516.2353	64.18597
516.3973	64.61451
516.5594	58.7453
516.7214	55.35661
516.8835	51.40665
517.0455	54.21591
517.2076	56.29185
517.3696	57.33413
517.5316	53.8131
517.6937	58.15139
517.8557	64.65788
518.0176	64.53938
518.1796	63.17357
518.3416	60.3749
518.5036	60.19407
518.6656	64.33295
518.8275	71.06007
518.9895	69.3896
519.1514	68.5453
519.3134	66.59866
519.4753	66.80219
519.6373	65.37664
519.7992	68.65625
519.9611	72.66524
520.123	71.74016
520.2849	65.42003
520.4468	62.74399
520.6087	63.15965
520.7706	72.26871
520.9325	69.92957
521.0944	71.57382
521.2562	68.68105
521.4181	66.01723
521.58	74.28269
521.7418	72.66266
521.9036	69.52579
522.0655	71.66189
522.2273	72.82513
522.3891	67.97604
522.551	73.47823
522.7128	73.84012
522.8746	69.6591
523.0363	67.80018
523.1981	69.09478
523.3599	69.27868
523.5217	73.08665
523.6835	76.73612
523.8452	77.84894
524.007	76.434
524.1687	80.48971
524.3304	73.14891
524.4922	74.87082
524.6539	77.16364
524.8157	77.91662
524.9774	73.71051
525.1391	75.73802
525.3008	74.67047
525.4625	78.41774
525.6241	77.33753
525.7858	80.00299
525.9475	86.07888
526.1092	83.79439
526.2709	77.78806
526.4325	73.86736
526.5942	72.81219
526.7558	76.25612
526.9174	64.75976
527.079	75.24742
527.2407	79.86634
527.4023	79.72882
527.5639	77.4649
527.7255	83.68421
527.8871	84.66992
528.0487	78.69382
528.2103	79.5197
528.3718	84.30641
528.5334	83.07937
528.695	85.87281
528.8565	90.92282
529.0181	91.83932
529.1796	88.92932
529.3412	88.62609
529.5027	84.94502
529.6642	84.23522
529.8257	85.97128
529.9872	91.10728
530.1487	85.15341
530.3102	89.08495
530.4717	87.91393
530.6332	87.63251
530.7947	91.40346
530.9562	88.31886
531.1176	90.20618
531.2791	92.81139
531.4405	88.06683
531.6019	92.03433
531.7634	86.85577
531.9248	92.43737
532.0862	91.30843
532.2477	89.14836
532.4091	84.18726
532.5704	90.39994
532.7319	83.47034
532.8932	83.17404
533.0546	86.64722
533.216	86.74291
533.3774	94.78497
533.5388	98.5764
533.7001	96.69352
533.8615	98.42738
534.0228	92.03175
534.1841	92.17773
534.3455	89.86131
534.5068	84.32736
534.6681	90.76837
534.8293	89.02776
534.9907	92.8511
535.152	93.82092
535.3132	94.72518
535.4745	90.40775
535.6358	94.32481
535.7971	96.19283
535.9583	96.12072
536.1196	97.81339
536.2808	95.16877
536.4421	95.33428
536.6033	86.71529
536.7645	89.95692
536.9258	90.99052
537.087	89.84628
537.2482	86.4323
537.4094	89.70109
537.5706	95.19928
537.7318	92.42239
537.8929	95.70415
538.0541	94.40556
538.2153	91.13116
538.3764	91.70038
538.5376	94.34854
538.6987	93.71349
538.8599	91.26425
539.021	89.36949
539.1821	90.63841
539.3432	94.11944
539.5043	92.16884
539.6655	94.93316
539.8265	87.47856
539.9876	92.10995
540.1487	87.92129
540.3098	84.20436
540.4708	92.70072
540.6319	90.82651
540.793	86.64214
540.954	85.24017
541.1151	85.64244
541.2761	90.25082
541.4371	93.29961
541.5981	91.46856
541.7592	89.40002
541.9202	89.21659
542.0812	92.62128
542.2422	91.12194
542.4031	91.4999
542.5641	90.99009
542.7251	95.05749
542.886	89.69007
543.0471	86.21875
543.208	86.63091
543.369	89.04437
543.5298	91.68718
543.6908	93.1424
543.8517	90.46852
544.0126	97.398
544.1736	95.74006
544.3345	91.07307
544.4954	92.96307
544.6563	90.46886
544.8171	88.60944
544.978	88.2488
545.1389	89.68134
545.2997	93.43365
545.4606	91.74291
545.6215	88.83315
545.7823	85.92588
545.9432	94.51235
546.104	97.22327
546.2648	96.44702
546.4256	95.47253
546.5864	92.19949
546.7473	89.14549
546.908	100.1535
547.0688	96.4579
547.2296	94.53619
547.3904	90.76672
547.5511	83.11008
547.7119	90.69793
547.8727	93.49993
548.0334	87.75569
548.1942	91.77177
548.3549	97.81193
548.5156	101.4517
548.6763	92.77515
548.837	92.64397
548.9977	94.01354
549.1584	93.51295
549.3192	94.83569
549.4798	96.22818
549.6405	89.23685
549.8011	91.43178
549.9619	95.94579
550.1225	96.25124
550.2831	91.87125
550.4438	90.42187
550.6044	92.93248
550.765	95.28464
550.9257	95.16254
551.0863	95.64617
551.2469	93.39089
551.4075	92.88347
551.5681	90.65237
551.7287	89.77959
551.8893	94.56823
552.0498	101.7897
552.2104	95.38879
552.371	96.7208
552.5315	99.75469
552.6921	95.38557
552.8526	88.73481
553.0131	89.29074
553.1736	90.88719
553.3342	89.09721
553.4947	92.09082
553.6552	92.8971
553.8157	89.95356
553.9762	87.72395
554.1367	92.21542
554.2971	93.7373
554.4576	92.32388
554.618	97.72253
554.7785	95.82197
554.939	90.21305
555.0994	91.84223
555.2598	92.92615
555.4203	88.4489
555.5807	90.61183
555.7411	96.7305
555.9015	92.01865
556.0619	91.86053
556.2223	97.21992
556.3827	93.6743
556.5431	89.84593
556.7034	87.57687
556.8638	90.49981
557.0242	90.18778
557.1845	82.55521
557.3448	88.09007
557.5052	88.80644
557.6655	83.88043
557.8259	84.95198
557.9861	88.34426
558.1465	91.99975
558.3068	88.04239
558.467	81.91792
558.6274	87.20612
558.7877	87.80298
558.9479	83.53736
559.1082	84.23378
559.2684	88.0537
559.4287	86.86559
559.5889	83.87068
559.7491	92.61946
559.9094	88.44962
560.0696	84.15926
560.2299	81.15148
560.3901	85.3862
560.5502	94.06302
560.7104	86.46685
560.8707	83.80662
561.0308	88.1351
561.191	91.26625
561.3511	85.34373
561.5114	87.84531
561.6714	84.21626
561.8316	76.27045
561.9918	78.74864
562.1519	87.89266
562.312	83.99261
562.4722	84.79395
562.6323	79.91972
562.7924	84.66924
562.9525	88.61808
563.1125	86.56615
563.2726	83.41491
563.4327	83.019
563.5928	84.09966
563.7528	88.96448
563.9129	79.10402
564.0729	80.8362
564.233	84.24008
564.393	77.31441
564.553	80.34007
564.7131	78.63351
564.873	82.41019
565.0331	79.6853
565.1931	78.7033
565.353	77.29733
565.5131	77.3261
565.673	75.42958
565.833	68.88837
565.9929	80.78575
566.1529	79.35856
566.3129	82.99487
566.4728	82.39262
566.6328	80.60506
566.7927	74.48656
566.9526	76.21054
567.1125	78.90002
567.2724	79.51136
567.4323	87.23816
567.5922	75.14787
567.7521	80.82288
567.9119	85.52201
568.0718	82.02772
568.2317	77.42731
568.3915	77.19534
568.5514	76.43081
568.7112	72.57923
568.871	75.38745
569.0309	74.95477
569.1907	73.78184
569.3505	76.42004
569.5103	72.91462
569.6701	72.43422
569.8299	69.37659
569.9897	70.1533
570.1495	67.56727
570.3092	74.84575
570.469	73.20478
570.6287	72.70295
570.7885	71.17018
570.9482	68.35304
571.108	71.79436
571.2677	74.06468
571.4274	71.19524
571.5871	67.90263
571.7468	74.90133
571.9066	75.87399
572.0662	70.36323
572.2259	70.99563
572.3856	71.20114
572.5452	72.9847
572.7049	72.11432
572.8646	71.94093
573.0242	71.9911
573.1838	73.17223
573.3435	68.58018
573.5031	65.53523
573.6627	77.07291
573.8223	74.68074
573.9819	72.68179
574.1415	75.35983
574.3011	72.64297
574.4607	68.30657
574.6203	67.22404
574.7798	78.16547
574.9394	69.3026
575.099	67.73603
575.2585	71.31831
575.418	67.85041
575.5776	69.08737
575.7371	69.05671
575.8966	71.21123
576.0562	70.30724
576.2156	66.86817
576.3751	71.92838
576.5346	67.44943
576.6941	63.65195
576.8536	67.81297
577.0131	66.68555
577.1725	66.7183
577.332	71.18044
577.4914	70.50515
577.6508	66.39629
577.8103	63.83662
577.9697	61.10337
578.1291	65.39781
578.2885	66.9043
578.4479	64.2915
578.6073	64.19152
578.7667	63.2184
578.9261	62.02224
579.0854	60.39988
579.2448	65.0238
579.4042	67.85363
579.5635	66.2907
579.7229	66.62032
579.8822	67.88917
580.0416	66.42175
580.2009	59.49495
580.3602	64.55293
580.5195	65.45636
580.6788	62.69438
580.8381	60.34446
580.9974	60.39627
581.1566	62.89958
581.3159	65.45113
581.4752	63.74223
581.6345	60.06734
581.7937	60.61887
581.9529	61.02219
582.1122	64.37654
582.2714	65.21861
582.4306	66.25025
582.5898	65.94189
582.749	63.87576
582.9082	65.52993
583.0674	68.91571
583.2266	64.98151
583.3857	64.7133
583.5449	60.51896
583.7041	57.75235
583.8633	61.45369
584.0224	65.26664
584.1815	61.50626
584.3407	61.35234
584.4998	61.03438
584.6589	63.32161
584.818	62.34913
584.9771	62.06246
585.1362	58.4869
585.2953	57.74705
585.4544	61.76422
585.6135	60.12914
585.7725	56.2351
585.9316	63.21668
586.0906	61.12382
586.2497	60.57129
586.4087	56.41876
586.5677	60.70353
586.7267	58.32321
586.8858	57.10197
587.0448	57.092
587.2038	56.58215
587.3628	56.22592
587.5218	53.13253
587.6807	52.78513
587.8397	53.71708
587.9987	57.0019
588.1577	54.15896
588.3166	57.19007
588.4755	53.42401
588.6345	56.23062
588.7934	55.358
588.9523	49.94001
589.1112	52.33713
589.2701	52.40947
589.429	57.9805
589.5879	56.39865
589.7468	56.96037
589.9056	52.88898
590.0645	49.6699
590.2234	56.91289
590.3822	56.18357
590.5411	53.42474
590.6999	55.89252
590.8588	57.89944
591.0176	55.7289
591.1764	57.0352
591.3352	56.8624
591.494	59.01436
591.6528	53.69024
591.8116	50.33441
591.9703	52.34633
592.1291	52.25661
592.2878	51.98767
592.4467	51.55244
592.6053	53.21249
592.7641	51.94754
592.9229	55.13777
593.0816	58.58302
593.2403	54.38921
593.399	55.11873
593.5577	57.6058
593.7164	53.10192
593.8751	54.24758
594.0338	56.94466
594.1924	54.82321
594.3511	53.34679
594.5098	52.71175
594.6684	52.81326
594.8271	52.74173
594.9857	49.06952
595.1443	55.09764
595.303	59.60557
595.4615	54.33145
595.6202	52.6302
595.7787	56.51435
595.9374	59.57696
596.0959	57.0979
596.2545	52.43624
596.4131	53.73954
596.5717	52.6272
596.7302	49.3387
596.8887	54.84518
597.0473	55.03429
597.2058	52.77386
597.3644	51.95781
597.5229	57.45011
597.6814	55.17787
597.8399	54.6505
597.9984	56.86901
598.1569	50.0745
598.3154	54.01947
598.4738	56.48843
598.6323	57.53231
598.7908	53.44654
598.9492	51.64188
599.1076	50.29452
599.2661	50.7126
599.4245	53.47405
599.5829	56.94984
599.7413	51.41952
599.8997	54.67078
600.0581	58.39621
600.2165	58.34349
600.3749	52.9889
600.5333	54.41714
600.6917	52.08843
600.85	52.03785
601.0084	54.4543
601.1667	52.70553
601.325	56.17045
601.4833	53.1033
601.6417	51.12929
601.8	47.16089
601.9583	51.47198
602.1166	51.70591
602.2749	51.25187
602.4332	56.67334
602.5914	53.1763
602.7498	53.58224
602.908	55.08005
603.0662	48.6518
603.2245	52.18851
603.3828	55.07476
603.541	51.30936
603.6992	51.41752
603.8574	55.28645
604.0156	56.00954
604.1738	54.36408
604.332	56.13094
604.4902	50.18034
604.6484	50.67559
604.8065	55.95059
604.9647	50.25256
605.1229	51.76538
605.281	53.02347
605.4391	52.41922
605.5973	52.38383
605.7554	54.27542
605.9135	57.76632
606.0717	49.38883
606.2297	47.6821
606.3878	48.92289
606.5459	49.85559
606.704	55.00932
606.8621	51.62107
607.0201	51.80656
607.1782	51.56929
607.3362	53.64508
607.4943	52.96684
607.6523	49.09866
607.8104	49.47915
607.9684	51.6615
608.1264	53.77893
608.2844	52.02452
608.4424	52.0823
608.6003	53.15586
608.7584	47.29424
608.9163	47.9666
609.0743	54.98765
609.2322	49.49637
609.3902	55.55431
609.5482	53.96568
609.7061	53.20963
609.864	49.04808
610.0219	49.31191
610.1798	46.73893
610.3377	46.82436
610.4956	44.83871
610.6535	50.75208
610.8114	53.13647
610.9693	51.10449
611.1271	51.91814
611.285	49.05982
611.4429	53.01712
611.6007	54.50537
611.7585	54.34704
611.9164	51.91105
612.0742	46.30837
612.232	48.32267
612.3898	49.31744
612.5476	50.85911
612.7054	46.94767
612.8632	47.54804
613.0209	46.11494
613.1787	51.21497
613.3365	50.38732
613.4942	47.00333
613.652	43.68412
613.8097	43.39033
613.9674	42.99131
614.1252	49.77178
614.2829	54.74176
614.4406	51.24038
614.5983	46.98737
614.756	48.77512
614.9136	50.7253
615.0714	44.91595
615.229	47.17958
615.3867	54.99022
615.5443	51.08412
615.702	48.79932
615.8596	50.34398
616.0172	42.74117
616.1748	45.30209
616.3325	47.44331
616.4901	47.63885
616.6476	42.957
616.8052	45.80467
616.9628	46.64766
617.1204	47.62636
617.278	45.59439
617.4355	45.74562
617.5931	47.25342
617.7506	48.1523
617.9081	45.85962
618.0657	45.83936
618.2232	50.28201
618.3807	45.31454
618.5382	44.08553
618.6957	46.7562
618.8532	48.5305
619.0107	44.48699
619.1682	43.98708
619.3256	46.25119
619.4831	48.08427
619.6406	44.64193
619.798	44.97981
619.9554	50.08591
620.1129	49.74714
620.2703	49.8036
620.4277	45.36009
620.5851	45.19136
620.7425	43.14994
620.8998	47.6883
621.0573	48.28193
621.2146	46.71314
621.372	45.40863
621.5294	46.53439
621.6867	42.46406
621.8441	44.05326
622.0013	48.5651
622.1587	45.50169
622.316	44.56588
622.4733	41.63702
622.6306	45.21229
622.7879	49.26498
622.9452	45.27106
623.1025	42.39387
623.2598	47.93133
623.4171	45.80007
623.5743	46.92271
623.7316	46.51234
623.8888	41.05937
624.046	44.13642
624.2032	43.63073
624.3605	44.5239
624.5176	49.03281
624.6749	44.78886
624.8321	45.86674
624.9893	44.62346
625.1464	41.64271
625.3036	39.40544
625.4608	44.39168
625.6179	42.22102
625.7751	46.32283
625.9322	42.81116
626.0894	38.76615
626.2465	43.8753
626.4036	47.69459
626.5607	40.70149
626.7178	39.78975
626.8749	42.02944
627.032	46.91536
627.189	43.75035
627.3461	42.74872
627.5032	36.42269
627.6602	39.8354
627.8173	44.4922
627.9743	47.80576
628.1313	42.62912
628.2884	42.83389
628.4454	39.42465
628.6024	42.03903
628.7594	42.80019
628.9164	43.68591
629.0734	40.29482
629.2303	45.46735
629.3873	42.32559
629.5443	46.17853
629.7012	44.72608
629.8582	42.44333
630.0151	41.81204
630.172	42.47924
630.3289	38.93792
630.4858	42.12084
630.6428	40.51641
630.7996	43.08979
630.9565	41.94445
631.1134	45.7673
631.2703	45.79875
631.4272	46.37725
631.584	47.03861
631.7408	42.11153
631.8977	44.32906
632.0546	42.09489
632.2114	44.41071
632.3682	44.50252
632.525	42.70398
632.6818	42.78849
632.8386	42.84266
632.9954	44.48965
633.1522	40.71601
633.3089	42.58456
633.4657	36.9369
633.6224	43.29901
633.7792	42.38921
633.9359	45.29805
634.0927	43.34585
634.2494	44.42408
634.4061	44.85081
634.5628	48.56102
634.7195	35.39862
634.8762	37.7743
635.0329	41.48763
635.1895	37.40028
635.3462	41.63269
635.5029	41.32804
635.6595	39.66008
635.8162	38.28902
635.9728	35.79958
636.1295	39.93601
636.2861	39.09338
636.4427	39.55435
636.5992	40.40056
636.7559	39.23732
636.9124	37.14955
637.069	39.25866
637.2256	42.90296
637.3821	41.16259
637.5387	38.93147
637.6953	41.20317
637.8518	43.0263
638.0084	45.93911
638.1649	44.94762
638.3214	45.60508
638.4779	44.10472
638.6344	36.83537
638.7909	42.08249
638.9474	41.99375
639.1038	42.56219
639.2603	37.69468
639.4167	39.54624
639.5732	37.99113
639.7297	43.28275
639.8861	47.6846
640.0425	43.35624
640.199	40.30272
640.3553	37.6869
640.5118	41.6054
640.6682	40.65902
640.8245	38.91005
640.981	36.17642
641.1373	34.76249
641.2936	35.47867
641.45	43.88578
641.6064	36.78317
641.7627	37.84961
641.9191	37.41818
642.0754	41.50553
642.2317	36.06319
642.388	38.77881
642.5443	39.05555
642.7006	40.71336
642.8569	39.77485
643.0131	35.43961
643.1694	40.77399
643.3257	38.15915
643.4819	36.99389
643.6382	36.69505
643.7944	40.93399
643.9506	34.48675
644.1069	34.05345
644.2631	40.07878
644.4193	38.58314
644.5754	37.73857
644.7316	34.0156
644.8878	33.09748
645.044	33.85819
645.2002	36.0893
645.3563	35.41145
645.5125	42.85916
645.6686	45.64473
645.8248	40.06966
645.9809	37.44461
646.137	35.47161
646.2931	34.81125
646.4492	31.24393
646.6053	42.36523
646.7614	37.91422
646.9174	33.80889
647.0735	36.57086
647.2296	30.6333
647.3856	33.27077
647.5417	33.75361
647.6977	33.3297
647.8537	35.9916
648.0098	34.80087
648.1658	39.43197
648.3218	38.89636
648.4777	35.21194
648.6337	36.63621
648.7897	42.09018
648.9457	40.24713
649.1016	40.02225
649.2576	36.66357
649.4135	35.39788
649.5695	35.50738
649.7254	35.06635
649.8813	33.1077
650.0372	38.71368
650.1932	36.01612
650.3491	34.68151
650.5049	31.91506
650.6608	38.95102
650.8167	37.49614
650.9725	34.5955
651.1284	40.69707
651.2842	39.7874
651.4401	35.76032
651.5959	34.18236
651.7518	33.69675
651.9076	39.25768
652.0634	35.77203
652.2192	39.47472
652.3749	35.42607
652.5308	31.35178
652.6865	29.59089
652.8423	33.69575
652.998	35.15461
653.1538	40.90369
653.3096	35.29335
653.4653	30.69301
653.621	31.29265
653.7767	34.07212
653.9324	38.57156
654.0881	34.23338
654.2438	31.57882
654.3995	33.40817
654.5552	33.88711
654.7109	32.13853
654.8665	36.11134
655.0222	35.8512
655.1778	32.65118
655.3334	34.74121
655.4891	33.87812
655.6447	34.67811
655.8003	35.04359
655.9559	29.52009
656.1115	34.05886
656.2671	32.06912
656.4227	33.15858
656.5782	32.38247
656.7338	31.54024
656.8893	35.25499
657.0449	34.57464
657.2004	32.99189
657.356	34.38263
657.5115	30.36831
657.667	31.99531
657.8225	31.29042
657.978	32.61054
658.1335	35.91654
658.289	36.39755
658.4445	35.19314
658.5999	33.39246
658.7554	35.16892
658.9108	35.88716
659.0663	34.05789
659.2217	35.87206
659.3771	34.87354
659.5325	32.87382
659.6879	31.43151
659.8433	31.2905
659.9987	32.953
660.1541	36.20965
660.3095	35.4198
660.4648	34.04164
660.6202	36.28713
660.7756	34.33934
660.9309	28.24169
661.0862	30.43728
661.2416	32.99393
661.3969	31.91468
661.5522	31.78409
661.7075	34.45159
661.8628	34.93886
662.0181	29.83342
662.1733	26.09193
662.3286	36.85571
662.4839	34.65477
662.6391	32.4534
662.7944	33.604
662.9496	30.04648
663.1048	31.21936
663.26	31.62183
663.4152	31.40129
663.5704	31.51792
663.7256	36.63435
663.8808	34.34725
664.036	32.99416
664.1912	34.97883
664.3463	35.41302
664.5015	35.24978
664.6566	31.69404
664.8118	33.84292
664.9669	34.23556
665.122	33.37001
665.2771	31.89602
665.4322	35.95456
665.5873	35.48834
665.7424	35.38135
665.8975	26.95006
666.0526	30.43162
666.2076	27.77011
666.3627	33.16905
666.5177	34.39906
666.6727	31.70575
666.8278	30.15749
666.9828	32.65991
667.1378	34.5203
667.2928	30.5325
667.4478	28.01129
667.6028	29.18063
667.7578	28.7779
667.9127	33.53295
668.0677	31.92759
668.2226	31.04391
668.3776	31.82739
668.5325	27.33484
668.6874	30.15574
668.8423	31.47419
668.9973	31.10941
669.1522	34.14861
669.3071	28.09976
669.4619	30.49413
669.6168	30.96291
669.7717	29.1634
669.9265	28.40468
670.0814	28.80213
670.2362	29.72338
670.3911	27.13403
670.5459	29.82978
670.7007	28.87997
670.8555	29.999
671.0103	29.40375
671.1651	29.64213
671.3199	29.84997
671.4747	27.36197
671.6295	26.33057
671.7842	31.27376
671.939	30.83722
672.0937	31.24421
672.2484	27.79206
672.4031	32.79414
672.5579	32.11522
672.7126	26.36559
672.8673	26.40021
673.022	29.30746
673.1767	28.34497
673.3314	29.72078
673.486	29.34222
673.6407	29.68105
673.7953	24.46353
673.95	27.5617
674.1046	31.51746
674.2592	31.34891
674.4138	29.58113
674.5684	30.5779
674.723	29.32372
674.8776	33.69752
675.0322	33.11178
675.1868	30.87266
675.3414	29.94731
675.4959	25.53131
675.6505	32.34071
675.805	24.62003
675.9595	28.00946
676.1141	29.50827
676.2686	28.97296
676.4231	29.61261
676.5776	37.00147
676.7321	34.25029
676.8866	32.26423
677.041	27.82479
677.1955	30.89223
677.35	32.58055
677.5044	27.43681
677.6589	24.09996
677.8133	28.08777
677.9677	27.89435
678.1221	28.98377
678.2766	27.38838
678.4309	27.80475
678.5853	26.55175
678.7397	27.33999
678.8941	26.0031
679.0485	28.33922
679.2028	33.62513
679.3571	28.73676
679.5115	27.73689
679.6658	30.47442
679.8201	28.95419
679.9744	28.34347
680.1288	30.97109
680.2831	28.81359
680.4373	31.10167
680.5916	33.18392
680.7459	25.81393
680.9001	27.73527
681.0544	31.52248
681.2087	26.35917
681.3629	30.31838
681.5171	28.03446
681.6713	31.50943
681.8256	28.92373
681.9797	36.66045
682.134	32.79001
682.2881	24.45793
682.4423	22.18483
682.5965	23.58226
682.7507	27.27922
682.9048	31.90793
683.059	28.94941
683.2131	29.31748
683.3672	30.97655
683.5213	33.8775
683.6754	30.8239
683.8295	28.16727
683.9836	27.9642
684.1377	24.35361
684.2918	27.01983
684.4459	30.85446
684.5999	29.18495
684.754	31.54931
684.908	29.19966
685.062	22.49039
685.2161	27.99136
685.3701	28.13884
685.5241	32.02907
685.6781	32.88777
685.8321	28.09458
685.9861	30.85996
686.14	27.77801
686.294	33.42644
686.4479	28.73064
686.6019	30.19505
686.7559	27.24292
686.9098	29.79395
687.0637	28.1895
687.2176	20.67055
687.3715	22.17592
687.5254	25.17349
687.6793	26.58763
687.8332	32.23129
687.9871	32.76419
688.1409	27.72349
688.2947	28.27864
688.4486	25.97014
688.6024	25.44616
688.7563	28.85364
688.9101	29.60299
689.0639	25.4785
689.2177	28.62933
689.3715	33.80209
689.5253	36.54207
689.6791	30.34353
689.8328	30.8186
689.9866	29.13921
690.1403	27.80915
690.2941	25.56673
690.4478	23.5267
690.6015	26.60626
690.7552	25.69827
690.9089	27.05032
691.0626	25.70238
691.2164	30.58284
691.37	27.7392
691.5237	29.74319
691.6774	29.15805
691.831	27.03237
691.9847	27.17915
692.1383	27.54796
692.2919	30.85302
692.4456	27.69699
692.5992	28.5622
692.7527	25.62436
692.9064	28.93968
693.0599	27.89503
693.2136	29.12263
693.3671	27.80107
693.5207	26.30069
693.6742	34.52225
693.8278	36.55064
693.9813	33.98684
694.1348	34.70152
694.2883	30.55584
694.4418	25.86856
694.5953	28.62031
694.7488	30.9828
694.9023	31.65034
695.0558	29.31021
695.2093	31.65138
695.3627	26.73912
695.5162	27.68225
695.6696	31.74748
695.8231	30.19126
695.9764	24.57185
696.1299	27.82483
696.2833	29.3018
696.4367	27.86682
696.5901	28.64969
696.7435	31.58243
696.8968	32.05327
697.0502	31.82786
697.2036	29.30299
697.3569	33.38427
697.5102	32.40239
697.6635	33.85998
697.8168	30.94802
697.9702	32.99009
698.1235	32.15546
698.2768	29.87797
698.4301	31.88449
698.5833	29.75179
698.7366	33.55469
698.8898	35.3731
699.0431	32.95652
699.1964	36.67801
699.3495	30.93654
699.5028	36.39908
699.656	31.49043
699.8092	28.71159
699.9624	29.74036
700.1156	34.75623
700.2688	37.54822
700.4219	38.1391
700.5751	34.51315
700.7283	36.8187
700.8814	36.98461
701.0345	32.97631
701.1877	34.06412
701.3408	33.08168
701.4939	35.1955
701.647	36.50628
701.8001	36.64699
701.9532	34.9442
702.1063	36.48954
702.2593	35.9642
702.4124	34.44816
702.5654	36.8954
702.7184	39.19741
702.8715	40.42328
703.0245	35.15835
703.1776	37.94236
703.3305	40.53205
703.4835	36.42691
703.6365	38.13865
703.7895	38.8252
703.9424	35.20413
704.0954	36.16683
704.2484	41.07001
704.4013	38.93721
704.5543	39.27521
704.7072	41.68878
704.8601	41.6702
705.013	42.61222
705.1659	42.91926
705.3188	45.34724
705.4717	43.84586
705.6246	38.76097
705.7774	36.17737
705.9303	37.5697
706.0831	38.09036
706.236	45.69413
706.3888	43.33789
706.5416	44.09923
706.6944	41.95887
706.8472	40.13258
707	43.62906
707.1528	41.35704
707.3056	41.87604
707.4583	46.56971
707.6111	44.2481
707.7639	36.82054
707.9166	44.1319
708.0693	38.62169
708.222	45.53153
708.3748	41.06987
708.5275	43.09023
708.6802	45.96669
708.8328	47.40078
708.9855	48.85738
709.1382	46.3901
709.2909	46.97587
709.4435	47.18956
709.5962	45.91071
709.7488	48.617
709.9014	46.17432
710.054	47.55466
710.2067	48.81666
710.3593	46.89907
710.5118	45.61679
710.6644	47.24686
710.817	48.12601
710.9695	51.81625
711.1221	52.41483
711.2747	45.34429
711.4272	47.9814
711.5797	48.46992
711.7322	45.58443
711.8848	46.89447
712.0373	50.33972
712.1898	54.70205
712.3422	53.33939
712.4948	51.49106
712.6472	51.81549
712.7996	56.88478
712.9521	49.11398
713.1046	51.58207
713.257	50.46774
713.4094	49.1758
713.5618	47.86422
713.7142	56.49889
713.8666	56.86157
714.019	54.69134
714.1714	52.71609
714.3237	45.59031
714.4761	51.70656
714.6285	50.33202
714.7808	53.00126
714.9331	52.40755
715.0854	54.07793
715.2378	57.30323
715.3901	55.98317
715.5424	54.70702
715.6947	54.66994
715.8469	55.0304
715.9992	51.12424
716.1515	52.73069
716.3037	54.3081
716.456	45.2272
716.6082	53.61339
716.7604	53.62274
716.9127	50.98268
717.0649	51.40148
717.2171	49.10398
717.3693	45.86201
717.5214	44.28719
717.6736	44.77359
717.8258	47.00686
717.978	46.29196
718.1301	49.81737
718.2822	52.82681
718.4344	47.18782
718.5865	42.33899
718.7386	46.20625
718.8907	42.90779
719.0428	50.02289
719.1949	48.91386
719.3469	49.06485
719.499	50.03896
719.6511	49.44718
719.8031	46.69936
719.9551	49.93844
720.1072	53.06617
720.2592	51.04652
720.4112	52.49147
720.5632	53.20896
720.7152	52.22935
720.8672	53.30175
721.0192	52.79412
721.1711	58.67295
721.3231	61.32589
721.475	66.16988
721.627	59.77886
721.7789	60.73346
721.9308	61.941
722.0828	57.89207
722.2347	57.84198
722.3866	62.09942
722.5385	66.75379
722.6903	59.93182
722.8422	57.93016
722.9941	64.19214
723.1459	62.05455
723.2977	58.95135
723.4496	53.76367
723.6014	57.41547
723.7532	62.90177
723.905	63.6217
724.0568	57.67275
724.2086	53.83673
724.3604	54.9622
724.5121	58.92341
724.6639	59.49578
724.8157	69.6373
724.9674	68.17654
725.1191	61.78402
725.2709	58.29717
725.4226	59.65336
725.5743	63.13342
725.726	65.42567
725.8777	62.02895
726.0294	60.5796
726.181	62.78004
726.3327	60.56065
726.4844	64.58092
726.636	63.38671
726.7877	69.00919
726.9393	68.17414
727.0909	63.61181
727.2425	63.93207
727.3941	61.04692
727.5457	60.62649
727.6973	63.13062
727.8488	62.54316
728.0004	64.3713
728.1519	65.58521
728.3035	67.62218
728.455	68.71281
728.6066	68.33751
728.7581	68.74268
728.9095	65.17253
729.0611	64.08902
729.2126	62.05591
729.364	64.68952
729.5155	68.21703
729.667	74.74699
729.8184	75.31564
729.9698	71.74527
730.1213	73.93634
730.2727	72.2915
730.4241	69.71141
730.5756	68.44486
730.7269	73.29636
730.8784	72.24742
731.0297	76.18789
731.1811	72.01585
731.3325	71.48464
731.4838	72.58163
731.6351	80.54082
731.7865	72.85806
731.9378	75.21973
732.0891	74.6138
732.2404	78.55267
732.3917	88.57669
732.543	83.7684
732.6943	87.33147
732.8456	84.83469
732.9968	85.21217
733.1481	89.09962
733.2993	83.35557
733.4506	79.6553
733.6018	82.89341
733.753	86.13428
733.9042	90.88898
734.0554	90.99283
734.2066	87.35501
734.3578	91.76907
734.509	89.34523
734.6602	92.24602
734.8113	92.27007
734.9624	93.23215
735.1136	89.09203
735.2647	93.92358
735.4158	91.31469
735.5669	93.80918
735.718	87.14099
735.8691	91.35989
736.0201	93.21673
736.1713	96.488
736.3223	91.52026
736.4733	91.31483
736.6244	92.20042
736.7755	91.36456
736.9265	90.99329
737.0775	97.28541
737.2285	95.19608
737.3795	94.42133
737.5305	99.44628
737.6815	95.03706
737.8324	97.7568
737.9834	97.33192
738.1343	101.3477
738.2853	101.1226
738.4362	92.81558
738.5871	89.6793
738.738	93.3023
738.8889	98.37933
739.0399	97.99877
739.1907	95.95586
739.3416	99.04303
739.4925	95.71178
739.6433	95.85361
739.7942	102.4505
739.945	99.87297
740.0958	96.88084
740.2467	101.4698
740.3975	100.1134
740.5483	103.4131
740.6991	104.8366
740.8499	101.543
741.0007	100.1626
741.1514	101.2676
741.3022	100.5249
741.4529	103.2669
741.6036	108.4218
741.7544	102.8314
741.9051	103.9468
742.0558	108.2013
742.2065	103.5679
742.3572	102.0378
742.5079	98.37308
742.6586	99.9598
742.8093	104.3959
742.9599	108.009
743.1105	111.2278
743.2612	113.8535
743.4118	116.4658
743.5624	110.0282
743.7131	111.3476
743.8636	109.9965
744.0142	109.7647
744.1648	107.737
744.3154	103.86
744.4659	111.9174
744.6165	114.166
744.767	112.3057
744.9176	105.3889
745.0681	108.3771
745.2186	106.9761
745.3691	106.5743
745.5197	110.0288
745.6702	113.1501
745.8206	110.7489
745.9711	108.947
746.1215	108.3246
746.272	112.0895
746.4224	102.8154
746.5729	111.9325
746.7233	112.9054
746.8737	107.6822
747.0241	112.2756
747.1745	111.5467
747.3249	107.8115
747.4753	112.4091
747.6257	109.3104
747.776	104.3976
747.9264	105.4514
748.0767	104.8622
748.2271	107.4226
748.3774	109.8689
748.5276	107.7912
748.678	110.928
748.8282	111.6467
748.9786	109.8173
749.1288	109.7023
749.2791	104.7913
749.4294	106.5498
749.5796	111.2531
749.7299	108.5386
749.8801	105.2194
750.0303	115.0351
750.1805	113.3489
750.3307	112.2536
750.4809	112.0826
750.6311	113.9075
750.7813	113.271
750.9314	103.5658
751.0816	102.6786
751.2318	108.428
751.3818	108.5185
751.532	112.9379
751.6821	110.0842
751.8322	109.849
751.9823	109.3955
752.1324	109.7171
752.2825	111.1835
752.4326	111.4068
752.5826	106.9261
752.7327	107.9304
752.8827	110.5969
753.0327	110.6183
753.1827	107.6847
753.3328	108.9841
753.4828	104.4038
753.6328	108.7436
753.7828	108.1052
753.9327	112.4863
754.0827	110.7984
754.2327	109.1821
754.3826	110.0638
754.5325	110.2937
754.6825	104.2091
754.8324	105.1163
754.9823	105.7575
755.1322	108.6529
755.2821	105.4486
755.432	97.44286
755.5818	102.0956
755.7318	99.59988
755.8816	104.8306
756.0314	109.9847
756.1813	109.4642
756.3311	113.3189
756.4809	102.6839
756.6307	104.3468
756.7805	99.05884
756.9303	104.007
757.0801	101.871
757.2299	99.68859
757.3796	102.9367
757.5294	106.236
757.6791	109.2482
757.8289	105.5214
757.9786	103.7577
758.1283	98.36242
758.278	104.1008
758.4277	103.5705
758.5773	96.70947
758.7271	93.33276
758.8767	101.0088
759.0264	103.9193
759.176	97.72004
759.3256	90.99667
759.4753	80.13074
759.6249	51.06521
759.7745	39.70196
759.9241	34.26392
760.0737	34.57686
760.2233	25.15238
760.3729	21.28035
760.5224	23.77713
760.6719	26.84927
760.8215	27.3686
760.971	27.87844
761.1205	33.37267
761.2701	35.00258
761.4196	43.61344
761.5691	54.75766
761.7186	61.24143
761.868	68.23219
762.0175	63.1656
762.167	59.79572
762.3164	55.24272
762.4659	48.90001
762.6153	45.04712
762.7647	45.09651
762.9141	47.72582
763.0635	46.32629
763.2129	44.91176
763.3623	46.15844
763.5117	51.55624
763.661	52.31622
763.8104	46.46549
763.9597	51.29642
764.1091	52.95842
764.2584	54.43923
764.4077	53.35205
764.557	55.57127
764.7063	54.00982
764.8556	62.02251
765.0049	61.33526
765.1541	70.95964
765.3034	64.89907
765.4526	62.03934
765.6019	65.68736
765.7511	72.14347
765.9003	69.29986
766.0496	68.07896
766.1987	66.921
766.348	74.13847
766.4971	79.48978
766.6463	73.18643
766.7955	78.32766
766.9446	86.38862
767.0938	81.9681
767.2429	80.84911
767.392	92.00893
767.5411	87.91865
767.6902	80.98329
767.8394	81.71677
767.9884	85.02695
768.1375	86.03884
768.2866	87.58226
768.4356	87.41062
768.5847	82.85207
768.7337	83.15663
768.8828	83.05566
769.0317	86.34943
769.1808	89.21612
769.3298	86.52246
769.4788	86.22614
769.6277	87.158
769.7767	86.66589
769.9257	80.48438
770.0746	91.3066
770.2236	90.14515
770.3725	87.43383
770.5214	83.61524
770.6703	86.26318
770.8193	87.51051
770.9681	87.7426
771.1171	85.58287
771.2659	91.71127
771.4148	85.44656
771.5637	87.28972
771.7125	91.23828
771.8613	88.77583
772.0101	89.4856
772.159	81.56928
772.3078	83.58694
772.4566	86.80262
772.6054	88.94787
772.7542	84.89281
772.903	85.22059
773.0517	89.8072
773.2004	82.62083
773.3492	82.5481
773.4979	80.49177
773.6467	85.35967
773.7953	84.63928
773.944	85.3204
774.0928	80.90079
774.2415	80.40337
774.3901	78.11988
774.5388	80.24493
774.6874	79.67867
774.8361	79.71927
774.9847	79.71008
775.1334	83.79073
775.282	81.24506
775.4305	77.97167
775.5792	82.64449
775.7277	84.24287
775.8763	81.26277
776.0249	79.41545
776.1735	84.09718
776.322	80.11396
776.4705	83.14884
776.6191	78.65057
776.7676	83.12753
776.9161	81.01715
777.0646	81.62537
777.2131	83.91427
777.3616	79.19728
777.5101	73.84913
777.6585	77.92142
777.8069	81.9601
777.9554	78.04079
778.1038	78.81438
778.2523	75.70681
778.4007	83.36845
778.5491	80.83453
778.6974	80.09072
778.8459	81.41258
778.9942	81.92008
779.1426	78.31293
779.291	74.38816
779.4393	78.68373
779.5876	83.18515
779.736	77.90513
779.8843	69.98912
780.0326	75.29613
780.1809	79.91061
780.3292	80.51434
780.4775	76.4324
780.6257	73.88723
780.774	78.43186
780.9222	81.5197
781.0704	77.2001
781.2187	76.00993
781.3669	84.78455
781.5151	82.42861
781.6633	79.93612
781.8115	81.66338
781.9597	83.13584
782.1078	80.35542
782.256	79.89584
782.4042	78.76283
782.5523	74.9256
782.7004	83.06384
782.8486	74.74923
782.9967	75.50727
783.1448	73.88301
783.2929	74.91025
783.441	72.95085
783.5891	74.01588
783.7371	73.13914
783.8851	72.70812
784.0332	78.11398
784.1812	71.76707
784.3293	74.94816
784.4773	75.08026
784.6253	75.84627
784.7733	76.12283
784.9213	69.97882
785.0692	73.24481
785.2172	75.66882
785.3652	72.37887
785.5131	73.717
785.6611	72.92091
785.809	71.34261
785.9569	72.32657
786.1048	78.63589
786.2527	70.04257
786.4006	69.4773
786.5485	72.22238
786.6964	68.63548
786.8442	69.99017
786.9921	66.7086
787.1399	71.09612
787.2877	70.13651
787.4355	68.59429
787.5833	68.99262
787.7311	75.01885
787.8789	70.39913
788.0267	70.685
788.1745	70.15876
788.3223	73.2047
788.47	73.94901
788.6177	68.56054
788.7654	65.41846
788.9132	70.22012
789.0609	72.01913
789.2086	72.56149
789.3563	69.08996
789.504	70.57456
789.6517	67.76105
789.7993	67.36863
789.947	69.80884
790.0946	70.78562
790.2422	71.71248
790.3898	69.59948
790.5375	69.41434
790.6851	67.13237
790.8326	67.69579
790.9802	69.40739
791.1278	66.32303
791.2754	69.58121
791.423	71.3574
791.5705	67.75607
791.718	62.13437
791.8655	69.30882
792.0131	70.74618
792.1606	64.69284
792.308	67.62072
792.4556	62.23915
792.603	67.73837
792.7505	70.59199
792.8979	68.52364
793.0454	64.50542
793.1928	68.94717
793.3403	70.00095
793.4877	68.61557
793.6351	64.18272
793.7825	59.44133
793.9299	62.61006
794.0772	65.44525
794.2246	65.67297
794.3719	66.63059
794.5193	63.43665
794.6666	64.8409
794.814	57.78568
794.9613	66.58438
795.1086	65.04051
795.2559	60.10773
795.4032	63.64626
795.5505	66.52876
795.6978	65.26454
795.845	65.91647
795.9922	62.13305
796.1395	65.41188
796.2867	58.3971
796.4339	56.17113
796.5811	59.66982
796.7283	59.59489
796.8755	58.50436
797.0227	58.70291
797.1699	57.83738
797.317	62.86536
797.4642	58.89904
797.6113	64.64032
797.7584	63.38541
797.9056	62.63871
798.0527	62.54988
798.1998	62.82293
798.3469	64.31588
798.494	59.41582
798.641	60.25814
798.7881	64.09866
798.9351	64.9471
799.0822	57.19351
799.2292	61.85401
799.3762	59.34773
799.5232	57.94764
799.6702	60.29278
799.8172	58.25527
799.9642	55.96901
800.1111	59.26115
800.2581	56.23823
800.4051	60.64478
800.552	61.06418
800.6989	64.41384
800.8458	63.59972
800.9927	62.00972
801.1396	61.80676
801.2866	64.02913
801.4334	66.1266
801.5803	61.45675
801.7272	54.82245
801.874	60.26157
802.0209	57.76245
802.1677	59.46005
802.3145	56.71131
802.4613	54.39302
802.6081	59.98388
802.7549	54.52204
802.9017	56.4499
803.0485	61.5109
803.1952	64.48154
803.342	59.53417
803.4887	55.94708
803.6354	55.44452
803.7822	61.41383
803.9289	59.52222
804.0756	61.45384
804.2223	56.21465
804.369	58.25676
804.5156	53.00999
804.6623	52.00454
804.8089	51.52903
804.9556	52.12011
805.1022	60.19918
805.2488	52.63702
805.3954	57.88556
805.542	53.75486
805.6886	57.40147
805.8352	60.21984
805.9818	57.75642
806.1283	59.71365
806.2749	57.13263
806.4214	55.94294
806.5679	55.93265
806.7145	56.72365
806.861	58.54673
807.0074	52.02253
807.154	57.35532
807.3004	54.01542
807.4469	50.83127
807.5934	50.75165
807.7398	57.61865
807.8862	55.72108
808.0327	53.59579
808.1791	52.76772
808.3255	54.18513
808.4719	51.66894
808.6183	51.28318
808.7647	51.64433
808.9111	58.02985
809.0574	57.98295
809.2037	54.53654
809.3501	54.15448
809.4965	57.29829
809.6428	51.34991
809.7891	50.91561
809.9354	53.32433
810.0817	50.46043
810.2279	50.78234
810.3742	52.18554
810.5204	57.28326
810.6667	52.62386
810.8129	48.52332
810.9592	45.4678
811.1054	48.96663
811.2516	50.652
811.3978	50.65766
811.5439	50.4018
811.6901	46.53121
811.8363	48.74698
811.9825	49.14923
812.1286	51.34474
812.2748	50.01505
812.4209	47.5672
812.567	47.5191
812.7131	50.15823
812.8592	46.71419
813.0053	45.98263
813.1514	43.64585
813.2974	43.97162
813.4435	37.55472
813.5895	43.63588
813.7356	40.25945
813.8816	41.39476
814.0276	44.14215
814.1736	46.01918
814.3196	40.32892
814.4656	39.07151
814.6116	38.576
814.7576	34.27564
814.9035	36.31566
815.0494	39.55333
815.1954	36.75138
815.3413	38.23085
815.4872	39.45143
815.6331	39.09793
815.779	38.33941
815.9249	39.26808
816.0707	38.51681
816.2166	36.1995
816.3625	34.15815
816.5083	39.72146
816.6542	37.79894
816.8	36.90798
816.9458	34.53682
817.0916	36.78633
817.2374	39.14372
817.3832	44.29486
817.5289	40.15039
817.6747	40.54684
817.8204	34.12635
817.9662	33.68261
818.1119	35.06146
818.2576	37.31215
818.4034	35.30849
818.5491	37.70655
818.6948	38.26162
818.8405	39.39664
818.9861	36.1308
819.1318	35.73398
819.2774	36.51933
819.423	37.12598
819.5687	35.2091
819.7143	34.00878
819.8599	28.85395
820.0055	34.26689
820.1511	36.36037
820.2967	40.82003
820.4422	41.48472
820.5878	36.69853
820.7333	37.4569
820.8788	40.2155
821.0244	40.23435
821.1699	41.85157
821.3154	41.43227
821.4609	40.01349
821.6064	42.88084
821.7519	43.79394
821.8973	38.73106
822.0428	37.01853
822.1882	37.43956
822.3337	36.11176
822.4791	33.31834
822.6245	29.03102
822.7699	21.56944
822.9153	23.91088
823.0607	28.8743
823.2061	30.37425
823.3514	29.41147
823.4968	30.60271
823.6422	32.2122
823.7875	34.03969
823.9328	36.00824
824.0781	34.6412
824.2234	37.74769
824.3687	36.97181
824.514	39.3534
824.6592	37.13428
824.8045	33.81366
824.9498	36.03452
825.095	36.95848
825.2402	40.21864
825.3854	37.89702
825.5306	33.93211
825.6758	30.66213
825.821	33.46611
825.9662	37.10466
826.1114	33.03362
826.2565	36.21312
826.4017	36.09036
826.5468	36.49842
826.692	39.39594
826.837	37.74167
826.9822	34.38258
827.1273	34.15957
827.2723	32.89891
827.4174	30.54336
827.5625	28.15462
827.7075	33.61495
827.8526	32.38631
827.9976	34.14194
828.1426	33.83431
828.2877	30.64248
828.4327	36.0523
828.5776	36.06804
828.7227	35.21019
828.8676	31.54347
829.0126	30.44163
829.1575	29.68317
829.3024	32.22953
829.4474	34.12169
829.5923	35.09731
829.7372	33.07657
829.8821	33.16169
830.027	34.13257
830.1719	35.59213
830.3168	31.09135
830.4616	27.89378
830.6064	35.19447
830.7513	35.48496
830.8961	34.56989
831.041	31.91345
831.1857	30.35886
831.3306	33.37582
831.4753	38.552
831.6201	35.87884
831.7649	33.48828
831.9096	38.12955
832.0544	30.20716
832.1991	30.31534
832.3438	31.47222
832.4885	33.39359
832.6332	33.11072
832.778	34.9003
832.9226	31.37924
833.0673	32.05982
833.2119	27.78343
833.3566	31.11135
833.5012	33.28816
833.6459	34.05275
833.7905	30.31935
833.9351	24.25008
834.0797	33.55476
834.2243	37.3708
834.3688	36.03479
834.5134	34.04711
834.658	33.41465
834.8026	32.92746
834.9471	31.57201
835.0916	33.526
835.2361	39.12096
835.3806	32.60991
835.5251	32.22601
835.6696	31.96562
835.8141	33.5676
835.9586	35.17336
836.103	31.87529
836.2474	28.34343
836.3918	32.60168
836.5363	27.52728
836.6807	35.98346
836.8251	35.89754
836.9695	37.64055
837.1138	32.95737
837.2582	32.38371
837.4026	33.59621
837.5469	36.24979
837.6913	33.69579
837.8356	37.9318
837.9799	34.41398
838.1242	32.51706
838.2686	32.55098
838.4128	32.63256
838.5571	33.48944
838.7014	31.24613
838.8456	31.35516
838.9899	30.57447
839.1341	33.48425
839.2783	33.35802
839.4225	32.85126
839.5667	34.9916
839.7109	31.88616
839.8551	32.05828
839.9993	35.37223
840.1434	35.87684
840.2876	32.11719
840.4317	33.99555
840.5759	32.16016
840.72	33.0434
840.8641	28.63937
841.0082	31.71434
841.1523	36.89587
841.2963	35.23207
841.4404	36.95643
841.5845	34.12785
841.7285	28.03851
841.8726	33.72873
842.0165	32.89413
842.1606	33.34275
842.3046	34.2237
842.4485	35.76941
842.5925	34.70955
842.7365	34.70361
842.8805	31.93605
843.0244	27.26724
843.1684	28.70636
843.3123	31.5549
843.4562	33.86808
843.6002	34.92435
843.744	34.87843
843.8879	32.73227
844.0318	30.01307
844.1757	28.5681
844.3195	29.70545
844.4634	29.16281
844.6072	35.74559
844.751	26.55669
844.8948	28.33725
845.0386	29.20041
845.1824	31.42651
845.3262	33.36198
845.47	33.01857
845.6138	31.46235
845.7575	32.00207
845.9012	35.32356
846.045	37.6829
846.1887	33.02889
846.3324	31.78484
846.4761	29.93116
846.6198	31.34882
846.7635	31.64371
846.9071	28.35816
847.0508	27.31495
847.1944	26.57623
847.3381	26.46851
847.4817	29.00989
847.6253	31.23518
847.7689	26.60038
847.9125	29.47657
848.0561	34.97533
848.1996	33.26984
848.3432	34.35521
848.4868	33.17056
848.6303	30.6224
848.7738	30.913
848.9174	32.84189
849.0609	31.44959
849.2043	31.86023
849.3478	31.67171
849.4913	25.96056
849.6348	28.59435
849.7782	27.56874
849.9217	24.33593
850.0651	23.41185
850.2086	29.56489
850.3519	26.61644
850.4954	26.34809
850.6387	30.90411
850.7821	35.76158
850.9255	31.24627
851.0688	30.97186
851.2122	29.49078
851.3555	27.79815
851.4988	29.41788
851.6422	30.43707
851.7855	29.03426
851.9288	23.07101
852.0721	30.07426
852.2153	28.24188
852.3586	27.79896
852.5018	24.53047
852.6451	31.85058
852.7883	31.95727
852.9315	29.31889
853.0748	32.13713
853.218	35.47362
853.3611	33.38834
853.5043	24.67205
853.6475	28.64062
853.7906	30.68136
853.9338	25.3781
854.0769	17.82077
854.22	18.69391
854.3632	23.83144
854.5063	22.21725
854.6494	26.13496
854.7924	21.66293
854.9355	27.44107
855.0786	31.58843
855.2216	24.35661
855.3647	28.17552
855.5077	28.05626
855.6507	30.38235
855.7937	27.03644
855.9367	26.46388
856.0797	31.17726
856.2227	28.33853
856.3657	29.03464
856.5086	27.10159
856.6516	26.06673
856.7945	24.46363
856.9374	28.8306
857.0803	23.86508
857.2232	32.22036
857.3661	29.52468
857.509	30.97746
857.6519	28.89198
857.7947	30.01521
857.9376	23.31734
858.0804	30.97195
858.2232	25.99545
858.366	21.82035
858.5089	26.75844
858.6516	28.40013
858.7944	26.41365
858.9372	25.88289
859.08	27.14725
859.2227	25.63125
859.3654	25.95595
859.5082	25.1873
859.6509	24.54293
859.7936	28.88321
859.9363	23.10155
860.079	24.64581
860.2217	32.28393
860.3643	26.02842
860.507	27.25172
860.6496	26.67494
860.7922	24.31223
860.9349	26.9362
861.0775	26.0499
861.2201	22.87925
861.3627	27.7253
861.5052	29.88221
861.6478	25.15391
861.7904	28.32246
861.9329	23.22975
862.0755	21.29573
862.218	21.32831
862.3605	27.54245
862.503	27.34468
862.6455	26.22964
862.788	21.32587
862.9305	27.00573
863.0729	24.22849
863.2154	20.50735
863.3578	19.98792
863.5002	27.25616
863.6426	26.93941
863.7851	26.37303
863.9275	27.16079
864.0698	27.6862
864.2122	26.80367
864.3546	26.15481
864.4969	29.90955
864.6393	24.42797
864.7816	20.86654
864.924	22.22829
865.0662	23.40767
865.2086	21.92236
865.3508	24.79242
865.4931	20.88923
865.6354	16.84986
865.7776	21.14116
865.9199	23.92089
866.0621	20.76173
866.2043	14.28269
866.3466	13.2019
866.4888	15.98242
866.6309	23.45267
866.7731	25.17304
866.9153	23.81252
867.0574	27.14304
867.1996	24.23516
867.3417	19.55332
867.4839	20.14643
867.626	25.4452
867.7681	30.47379
867.9102	25.84097
868.0522	25.74352
868.1943	26.04444
868.3364	26.3005
868.4785	23.7781
868.6205	25.80697
868.7625	24.24638
868.9045	22.50816
869.0465	25.65106
869.1885	23.77553
869.3305	17.54591
869.4725	21.51054
869.6144	25.0756
869.7564	21.8579
869.8983	18.00552
870.0403	22.94883
870.1822	24.1824
870.3241	23.96716
870.466	23.62585
870.6079	20.96749
870.7498	23.38969
870.8916	24.61829
871.0335	26.32397
871.1754	26.42252
871.3171	24.37924
871.459	19.51081
871.6008	22.98053
871.7426	27.86184
871.8844	23.70854
872.0262	27.90483
872.1679	26.67041
872.3097	30.88255
872.4514	26.18826
872.5931	22.89879
872.7349	21.00703
872.8766	21.81362
873.0183	21.90329
873.16	19.50311
873.3017	19.40005
873.4434	21.64288
873.585	19.60081
873.7266	21.7223
873.8683	24.87124
874.0099	20.90465
874.1516	17.37463
874.2932	15.86562
874.4348	19.64171
874.5763	20.81753
874.7179	23.54394
874.8594	22.20971
875.001	22.00456
875.1425	18.26343
875.2841	18.11531
875.4256	17.90667
875.5671	22.40977
875.7086	15.4695
875.85	23.12809
875.9915	25.65903
876.133	12.61375
876.2744	16.22958
876.4159	20.00478
876.5573	16.6735
876.6987	16.73875
876.8401	20.60776
876.9815	24.10617
877.1229	19.9533
877.2643	21.18103
877.4056	21.19634
877.547	19.50663
877.6884	27.29598
877.8297	20.99072
877.971	19.26906
878.1123	16.88252
878.2536	17.27701
878.3949	23.27612
878.5362	20.13387
878.6774	24.1993
878.8187	18.25739
878.9599	20.1016
879.1011	14.21246
879.2424	16.10544
879.3836	24.09027
879.5248	19.76433
879.666	18.53663
879.8071	15.52386
879.9483	18.07324
880.0895	19.65036
880.2306	17.4748
880.3718	21.59806
880.5129	16.4948
880.654	15.62418
880.7951	18.94889
880.9362	18.6152
881.0773	18.90036
881.2183	16.11736
881.3594	18.44341
881.5004	17.9977
881.6414	18.93118
881.7825	21.83439
881.9235	18.11139
882.0645	13.738
882.2054	16.58282
882.3464	18.42456
882.4874	18.2745
882.6284	17.38129
882.7693	21.29713
882.9103	21.52983
883.0512	20.10282
883.1921	21.33395
883.333	21.95412
883.4739	18.32385
883.6147	15.46314
883.7556	14.29737
883.8965	18.77754
884.0374	17.90217
884.1782	14.42185
884.319	15.44984
884.4598	16.07359
884.6006	15.97679
884.7414	14.9594
884.8822	19.76441
885.0229	18.82465
885.1637	14.72734
885.3044	16.14232
885.4452	20.09438
885.5859	18.03195
885.7266	19.92399
885.8673	19.39794
886.008	19.4926
886.1487	18.74421
886.2894	18.43022
886.43	15.01924
886.5707	14.09764
886.7113	14.50161
886.8519	17.26616
886.9926	16.84165
887.1331	15.57838
887.2737	15.03161
887.4143	19.71661
887.5549	18.91487
887.6954	15.42118
887.836	18.37786
887.9765	20.43369
888.1171	21.24257
888.2576	21.46408
888.3981	17.76332
888.5386	20.67405
888.679	16.92006
888.8195	17.02597
888.96	18.82887
889.1004	20.61096
889.2408	19.54001
889.3813	17.77794
889.5217	16.85151
889.6621	18.97576
889.8025	18.62639
889.9429	16.93785
890.0833	13.7862
890.2236	15.86486
890.364	14.93222
890.5043	15.03488
890.6446	22.33406
890.7849	17.82472
890.9252	16.30551
891.0655	14.69569
891.2058	12.76326
891.3461	15.59803
891.4863	18.19754
891.6266	20.16073
891.7668	13.3714
891.907	15.31222
892.0472	12.30205
892.1874	16.08001
892.3276	16.58963
892.4678	15.72887
892.608	14.91255
892.7481	18.16019
892.8883	14.8217
893.0284	15.57197
893.1685	17.57583
893.3087	16.8826
893.4487	16.68166
893.5889	14.03959
893.7289	15.30054
893.869	15.19792
894.009	15.48194
894.1491	13.55186
894.2891	15.90471
894.4291	10.56758
894.5692	16.51599
894.7092	18.97712
894.8491	13.62255
894.9891	12.27396
895.1291	12.07122
895.269	13.97886
895.409	18.1232
895.549	16.37834
895.6888	12.13604
895.8288	13.59459
895.9687	13.55016
896.1086	17.64402
896.2484	9.10534
896.3883	10.44348
896.5281	13.15489
896.668	9.730018
896.8079	11.0661
896.9476	9.660952
897.0875	9.074441
897.2272	9.56194
897.3671	12.16657
897.5068	6.497035
897.6466	11.63703
897.7864	11.86311
897.9261	16.1903
898.0658	10.33201
898.2056	13.03715
898.3453	15.50282
898.4849	12.92518
898.6246	14.23135
898.7643	9.00716
898.904	12.50145
899.0436	9.324453
899.1833	6.567717
899.3229	5.243648
899.4625	8.707515
899.6021	11.29615
899.7417	9.887713
899.8813	8.974759
900.0209	12.94016
900.1605	9.815903
900.3	8.927614
900.4395	10.78788
900.579	8.288638
900.7186	13.12887
900.8581	12.99845
900.9976	14.5847
901.1371	7.419243
901.2766	8.653728
901.416	12.10752
901.5555	11.33856
901.6949	10.13589
901.8344	13.36328
901.9738	13.79936
902.1132	12.11072
902.2526	9.987486
902.3919	12.25472
902.5313	13.47488
902.6707	10.64176
