SPECTRUM DATA FILE
SpectrumCount:	1
PixelCount:	3648
UserName:	ToughBook User
SampleName:	
LightSource:	
Comments:	
DeviceName:	Qwave
DeviceManufacturer:	Broadcom
DeviceSerialNo:	11311

Name:	last spectrum
Date:	2024-05-02T15:06:26.2274829+02:00
ExposureTime:	0.02
TemporalAvg:	1
IntensityUnit:	normalizedCounts
CCDLoadLevel:	0.02165431
Temperature:	28.38461
DiagramColor:	200
ProcessingSteps:	335

Wavelength [nm]	Intensity1
334.421	5.616315
334.5891	4.178598
334.7573	4.883985
334.9254	5.159675
335.0935	1.1108
335.2616	4.272065
335.4297	0.1870531
335.5978	3.328826
335.7659	3.088629
335.934	-1.765257
336.1021	5.843714
336.2701	6.652609
336.4382	6.888751
336.6063	1.814839
336.7744	2.793158
336.9424	4.301451
337.1105	-1.652766
337.2785	0.9098398
337.4466	4.233661
337.6146	3.97758
337.7827	7.169441
337.9507	2.80499
338.1187	1.949683
338.2867	2.355784
338.4548	1.958981
338.6228	3.57779
338.7908	0.5815827
338.9588	4.399878
339.1268	6.283309
339.2948	3.461576
339.4628	7.068635
339.6308	-0.7177039
339.7988	-0.2024461
339.9667	2.155605
340.1347	0.02777897
340.3027	3.508254
340.4707	0.07355226
340.6386	2.449774
340.8066	2.478887
340.9745	-1.062745
341.1425	-0.3779859
341.3104	2.860974
341.4784	-0.4464876
341.6463	0.7179832
341.8142	3.055744
341.9821	6.732814
342.1501	6.965399
342.318	5.207616
342.4859	5.555222
342.6538	4.157397
342.8217	4.375423
342.9896	4.932145
343.1575	0.6018537
343.3254	4.157536
343.4933	11.5212
343.6612	3.676512
343.829	2.95352
343.9969	1.65237
344.1648	1.340557
344.3326	6.713731
344.5005	5.053638
344.6683	1.055898
344.8362	5.166077
345.004	3.14686
345.1719	2.569416
345.3397	4.687702
345.5075	8.909447
345.6754	4.843594
345.8432	0.7962043
346.011	2.586716
346.1788	6.011256
346.3466	2.900458
346.5144	6.02217
346.6822	4.349782
346.85	0.2396161
347.0178	0.07868125
347.1856	8.261577
347.3534	3.784835
347.5211	4.077144
347.6889	2.68128
347.8567	7.351734
348.0244	9.7005
348.1922	2.536601
348.3599	3.516188
348.5277	-1.257082
348.6954	1.723541
348.8632	3.689175
349.0309	5.843623
349.1986	2.972543
349.3663	2.93136
349.5341	2.432413
349.7018	4.137186
349.8695	6.436304
350.0372	0.1926302
350.2049	4.162689
350.3726	3.589135
350.5403	3.771751
350.7079	3.248594
350.8756	0.7063563
351.0433	2.097247
351.211	7.349096
351.3786	3.368729
351.5463	3.075673
351.714	1.341461
351.8816	3.521371
352.0493	1.729051
352.2169	-1.132078
352.3846	7.136899
352.5522	4.888567
352.7198	0.9162226
352.8875	1.830057
353.0551	7.640652
353.2227	5.188996
353.3903	1.636466
353.5579	2.712505
353.7255	3.096004
353.8931	1.634841
354.0607	3.556338
354.2283	4.241688
354.3958	6.10971
354.5634	4.974001
354.731	4.733042
354.8986	6.318966
355.0661	5.330653
355.2337	4.255222
355.4012	5.110938
355.5688	6.485517
355.7363	5.093682
355.9039	4.766614
356.0714	10.31061
356.239	6.551951
356.4065	6.367166
356.574	6.071977
356.7415	4.689682
356.909	2.866757
357.0765	3.586419
357.244	2.707864
357.4115	6.284077
357.579	2.661112
357.7465	2.209528
357.914	3.10173
358.0815	6.364511
358.249	6.945302
358.4164	5.197105
358.5839	5.189574
358.7513	3.893855
358.9188	2.332596
359.0862	-0.2822257
359.2537	-0.1857184
359.4211	6.36937
359.5886	3.311612
359.756	1.018227
359.9234	0.8277235
360.0909	3.634658
360.2583	3.192776
360.4257	5.235909
360.5931	7.933206
360.7605	5.615098
360.9279	4.179417
361.0953	5.428348
361.2627	2.35727
361.4301	3.256803
361.5974	4.595428
361.7648	3.966705
361.9322	6.713095
362.0995	10.10945
362.2669	5.376921
362.4343	2.971641
362.6016	1.724135
362.769	8.16534
362.9363	5.837412
363.1036	2.176487
363.271	6.69109
363.4383	5.282979
363.6056	4.11581
363.7729	2.80337
363.9402	5.904526
364.1075	7.78844
364.2748	7.784307
364.4421	9.127164
364.6094	6.825405
364.7767	4.385164
364.944	3.569311
365.1113	4.860765
365.2786	6.64372
365.4458	6.084711
365.6131	5.722104
365.7803	4.55825
365.9476	0.4019705
366.1148	6.988095
366.2821	7.345761
366.4493	9.679777
366.6166	8.045774
366.7838	2.95768
366.951	2.680701
367.1182	3.200862
367.2855	7.745726
367.4527	4.603171
367.6199	1.175661
367.7871	7.657361
367.9543	2.656503
368.1215	4.736064
368.2886	14.5979
368.4558	8.990557
368.623	5.668899
368.7902	5.253383
368.9573	3.409783
369.1245	5.853988
369.2917	9.500125
369.4588	7.643613
369.6259	8.175454
369.7931	5.188634
369.9602	7.466458
370.1274	7.998102
370.2945	10.33652
370.4616	4.715224
370.6287	6.263297
370.7958	4.813575
370.963	3.748585
371.1301	5.13003
371.2971	3.434628
371.4643	2.981669
371.6313	-0.2784907
371.7984	4.801851
371.9655	10.60989
372.1326	7.401206
372.2997	6.024673
372.4667	7.976976
372.6338	2.873445
372.8008	6.527922
372.9679	3.90613
373.1349	9.439336
373.3019	9.820486
373.469	3.470723
373.636	7.933654
373.803	5.865673
373.9701	6.679341
374.1371	7.056654
374.3041	6.329391
374.4711	3.59844
374.6381	5.178954
374.8051	10.43898
374.9721	5.236548
375.1391	3.049616
375.3061	5.927937
375.473	3.683536
375.64	6.920438
375.8069	6.917062
375.9739	6.216784
376.1409	7.641407
376.3078	6.362512
376.4748	8.360458
376.6417	5.725953
376.8087	6.315289
376.9756	7.576601
377.1425	6.765925
377.3094	4.430994
377.4763	8.474945
377.6432	8.914697
377.8102	8.586252
377.9771	7.033484
378.144	8.619062
378.3109	5.972965
378.4777	5.780001
378.6446	1.702618
378.8115	6.118356
378.9784	7.170649
379.1452	5.315212
379.3121	9.372118
379.4789	9.378665
379.6458	6.567275
379.8127	4.606609
379.9795	5.615561
380.1463	9.399266
380.3131	5.802409
380.48	4.640937
380.6468	7.424026
380.8136	6.144809
380.9804	7.597574
381.1472	7.474154
381.314	5.651464
381.4808	8.385116
381.6476	8.460441
381.8144	7.570505
381.9812	6.254079
382.148	7.547685
382.3147	6.787415
382.4815	8.085472
382.6483	7.245453
382.815	6.800278
382.9818	6.098684
383.1485	6.735171
383.3153	6.313009
383.482	8.914053
383.6487	6.31714
383.8155	9.818201
383.9822	6.971874
384.1489	10.12059
384.3156	5.827832
384.4823	4.930943
384.649	11.15683
384.8157	7.119123
384.9824	3.119612
385.1491	10.1736
385.3158	6.921408
385.4825	6.659573
385.6491	7.231052
385.8158	8.943996
385.9825	6.190108
386.1491	6.110721
386.3157	8.059041
386.4824	5.821028
386.649	5.888619
386.8157	6.84907
386.9823	6.637965
387.1489	5.124269
387.3156	5.594757
387.4821	11.71616
387.6488	8.12639
387.8154	5.850082
387.982	2.785928
388.1486	8.879994
388.3152	2.972135
388.4818	6.976941
388.6483	8.952384
388.8149	6.123395
388.9815	0.3686066
389.148	0.3864579
389.3146	7.072675
389.4811	6.495043
389.6477	5.276347
389.8142	9.346581
389.9808	2.546667
390.1473	8.920789
390.3138	10.2426
390.4804	9.169218
390.6469	10.73929
390.8134	13.4328
390.9799	7.264822
391.1464	9.496619
391.3129	7.753504
391.4794	4.109832
391.6459	6.0513
391.8124	7.090094
391.9789	7.013624
392.1453	10.24465
392.3118	7.510073
392.4782	11.6888
392.6447	8.795966
392.8112	10.3454
392.9776	5.900983
393.144	1.391644
393.3105	4.3536
393.4769	2.046079
393.6433	8.777857
393.8098	10.4705
393.9762	9.200762
394.1426	6.009964
394.309	6.572351
394.4754	10.96852
394.6418	8.330636
394.8082	6.802793
394.9746	9.990849
395.141	11.18999
395.3073	7.756058
395.4737	8.740067
395.64	8.547771
395.8064	8.04034
395.9728	5.274946
396.1391	9.500562
396.3055	8.407207
396.4718	12.14238
396.6381	7.155785
396.8045	7.044902
396.9708	5.663009
397.1371	7.497326
397.3034	5.892137
397.4697	9.052932
397.636	12.7388
397.8023	8.005093
397.9686	10.81742
398.1349	12.80259
398.3012	10.08345
398.4675	9.873482
398.6337	9.263639
398.8	9.591535
398.9662	11.10095
399.1325	11.01698
399.2988	11.70921
399.465	10.86864
399.6313	13.75028
399.7975	9.438159
399.9637	8.338397
400.1299	5.860228
400.2961	6.641478
400.4624	7.715558
400.6286	8.586087
400.7948	12.9539
400.961	8.182107
401.1272	10.68802
401.2934	9.394527
401.4595	11.54103
401.6257	7.010145
401.7919	15.60098
401.9581	12.27197
402.1242	14.34147
402.2904	12.01472
402.4565	12.33864
402.6227	12.86994
402.7888	9.878505
402.955	12.3853
403.1211	13.64363
403.2872	13.06408
403.4533	13.4258
403.6194	9.340674
403.7856	5.459758
403.9517	11.42149
404.1177	10.8567
404.2838	9.044884
404.4499	12.70111
404.616	12.80375
404.7821	12.05916
404.9482	10.5689
405.1142	7.431493
405.2803	8.532099
405.4464	12.56334
405.6124	10.4889
405.7784	9.311687
405.9445	9.052278
406.1105	11.75824
406.2766	10.91115
406.4426	6.017448
406.6086	5.962641
406.7746	14.22052
406.9406	13.53798
407.1066	12.48965
407.2726	17.33773
407.4386	13.3735
407.6046	14.12822
407.7706	12.88945
407.9366	12.21819
408.1025	13.44601
408.2685	13.72772
408.4344	13.43362
408.6004	12.00323
408.7664	6.513065
408.9323	12.73842
409.0983	16.46796
409.2642	11.44019
409.4301	16.38724
409.596	11.39388
409.762	8.537626
409.9279	12.2914
410.0938	11.42417
410.2597	13.30509
410.4256	10.17628
410.5915	9.257415
410.7574	11.43065
410.9232	16.37376
411.0891	12.72138
411.255	11.19283
411.4209	12.43416
411.5867	13.2138
411.7526	19.27934
411.9184	18.2028
412.0843	17.02639
412.2501	13.92018
412.4159	13.25777
412.5818	11.53001
412.7476	11.62803
412.9134	8.937371
413.0792	12.28302
413.245	13.77957
413.4108	14.37854
413.5766	12.19586
413.7424	9.608152
413.9082	11.16412
414.074	13.72777
414.2397	16.34973
414.4055	12.27857
414.5713	8.686558
414.737	18.66488
414.9028	13.77021
415.0685	14.9321
415.2343	14.81515
415.4	15.13512
415.5658	12.73849
415.7315	15.53108
415.8972	14.57061
416.0629	8.092535
416.2286	13.4411
416.3943	19.00597
416.56	13.7397
416.7257	15.24889
416.8914	12.21981
417.0571	18.07747
417.2228	17.2261
417.3884	15.5648
417.5541	14.85331
417.7198	16.15935
417.8854	17.01528
418.0511	10.97703
418.2167	16.99861
418.3824	15.5697
418.548	10.10269
418.7136	14.02802
418.8792	16.82766
419.0449	13.22743
419.2105	13.55303
419.3761	16.22206
419.5417	20.74766
419.7073	17.8591
419.8729	13.82842
420.0385	16.49483
420.204	16.17124
420.3696	18.64399
420.5352	18.75593
420.7007	17.82054
420.8663	13.04086
421.0319	13.9193
421.1974	18.37332
421.3629	15.78411
421.5285	16.71851
421.694	13.41436
421.8595	16.11597
422.0251	17.59046
422.1906	14.54869
422.3561	13.93411
422.5216	17.08718
422.6871	19.12312
422.8526	18.20762
423.0181	15.52474
423.1835	18.78368
423.349	16.72397
423.5145	18.85983
423.68	18.90482
423.8454	17.02284
424.0109	15.98487
424.1763	12.19359
424.3418	19.28391
424.5072	15.09134
424.6726	14.71333
424.838	17.91045
425.0035	19.86619
425.1689	21.84202
425.3343	21.53727
425.4997	18.88164
425.6651	16.1707
425.8305	16.12735
425.9959	17.07192
426.1613	21.9523
426.3267	17.98911
426.492	17.12461
426.6574	18.70437
426.8228	15.85385
426.9881	18.0002
427.1534	21.34828
427.3188	18.24688
427.4841	17.03684
427.6495	18.52505
427.8148	21.29894
427.9801	16.25364
428.1454	22.87634
428.3107	20.99464
428.476	22.21813
428.6414	18.24714
428.8066	12.8259
428.9719	18.03387
429.1372	17.41687
429.3025	18.70794
429.4678	16.93939
429.633	16.37238
429.7983	17.02657
429.9636	12.62367
430.1288	14.44685
430.294	20.38731
430.4593	17.1382
430.6245	14.51253
430.7897	14.08829
430.955	15.93492
431.1202	13.19593
431.2854	14.89378
431.4506	17.44777
431.6158	19.62658
431.781	21.42051
431.9462	23.64467
432.1114	23.20967
432.2766	22.05239
432.4417	18.09324
432.6069	17.14523
432.772	18.8205
432.9372	24.40804
433.1024	21.38468
433.2675	22.90098
433.4326	21.70447
433.5977	21.11238
433.7629	22.32204
433.928	17.27464
434.0931	17.45959
434.2582	16.23797
434.4233	16.41735
434.5884	18.82207
434.7535	25.27128
434.9186	21.67451
435.0837	24.69717
435.2488	21.91323
435.4138	19.89818
435.5789	21.80028
435.744	23.97398
435.909	26.69236
436.0741	27.45829
436.2391	22.14235
436.4042	20.45751
436.5692	20.33468
436.7342	20.90779
436.8992	24.61015
437.0643	21.12233
437.2293	17.10517
437.3943	22.02537
437.5593	23.38835
437.7243	23.07122
437.8893	19.2471
438.0542	24.77181
438.2192	21.45542
438.3842	20.08888
438.5491	20.73889
438.7141	19.00206
438.8791	25.29503
439.044	23.1732
439.209	23.80321
439.3739	22.11152
439.5388	21.18042
439.7037	23.96712
439.8687	20.5473
440.0336	21.02266
440.1985	23.64085
440.3634	26.16894
440.5283	27.29942
440.6932	26.13948
440.8581	21.41951
441.0229	22.68318
441.1878	27.66262
441.3527	24.6637
441.5175	23.15264
441.6824	27.26473
441.8472	29.25478
442.0121	29.31953
442.1769	24.51214
442.3418	19.32161
442.5066	30.22718
442.6714	29.80158
442.8362	29.59813
443.001	27.15373
443.1659	25.02368
443.3307	25.09755
443.4955	24.47332
443.6602	23.85351
443.825	25.74291
443.9898	25.56092
444.1546	21.97839
444.3193	21.84587
444.4841	29.7824
444.6488	23.97545
444.8136	29.09432
444.9783	29.64395
445.1431	23.42569
445.3078	23.23235
445.4725	24.65375
445.6372	21.12703
445.802	24.81114
445.9667	23.21867
446.1314	25.06502
446.2961	26.03732
446.4608	24.42335
446.6255	25.98144
446.7901	21.98005
446.9548	23.91383
447.1195	24.19914
447.2841	26.73746
447.4488	24.13126
447.6134	28.04892
447.7781	25.42605
447.9427	22.6066
448.1074	22.7195
448.272	24.86882
448.4366	26.29623
448.6012	27.73162
448.7658	25.41677
448.9305	24.24222
449.095	25.44924
449.2596	26.90883
449.4242	22.5585
449.5888	23.38849
449.7534	26.29464
449.9179	28.46211
450.0825	30.43666
450.2471	29.15308
450.4116	27.51199
450.5762	27.40331
450.7407	28.38303
450.9052	31.0167
451.0698	33.71005
451.2343	29.12778
451.3988	31.53114
451.5633	29.83656
451.7278	28.14404
451.8923	32.77165
452.0568	31.24902
452.2213	24.17737
452.3858	30.94734
452.5503	28.90248
452.7148	29.11677
452.8792	29.29921
453.0437	25.65582
453.2081	27.60607
453.3726	32.71891
453.537	29.5407
453.7015	29.93426
453.8659	27.80984
454.0303	27.93006
454.1947	26.19566
454.3592	29.22626
454.5236	32.98625
454.688	35.69053
454.8524	31.802
455.0168	32.85535
455.1811	29.7285
455.3455	29.23722
455.5099	32.25479
455.6743	29.67803
455.8386	36.29625
456.003	32.02246
456.1673	28.84817
456.3317	33.50156
456.496	32.60613
456.6603	28.13161
456.8246	27.96532
456.989	33.37416
457.1533	34.208
457.3176	32.67972
457.4819	34.27414
457.6462	30.363
457.8105	29.36971
457.9748	24.88022
458.1391	32.31147
458.3033	35.07426
458.4676	27.06766
458.6319	25.95166
458.7961	29.36843
458.9604	30.98389
459.1246	30.78755
459.2888	31.36961
459.4531	30.43262
459.6173	27.84047
459.7815	28.23308
459.9457	30.74663
460.11	27.75569
460.2741	30.68781
460.4384	30.7523
460.6025	30.95798
460.7667	34.69041
460.9309	34.29278
461.0951	31.20683
461.2592	29.95088
461.4234	29.25273
461.5876	32.27376
461.7517	30.31386
461.9159	30.57775
462.08	29.18388
462.2441	32.3005
462.4082	29.61706
462.5724	33.26809
462.7365	29.34764
462.9006	30.16889
463.0647	35.04527
463.2288	30.85809
463.3929	33.44324
463.557	31.7031
463.721	30.8824
463.8851	28.11974
464.0492	33.94657
464.2132	33.30295
464.3773	33.87379
464.5414	30.83898
464.7054	29.37171
464.8694	30.53693
465.0334	31.15929
465.1975	30.89698
465.3615	33.54889
465.5255	33.99029
465.6895	34.19129
465.8535	34.32526
466.0175	28.2765
466.1815	27.29564
466.3455	28.81287
466.5095	33.18369
466.6734	28.69874
466.8374	27.86035
467.0014	31.05145
467.1653	33.71349
467.3293	30.43602
467.4932	29.34399
467.6571	29.96005
467.8211	25.079
467.985	28.70378
468.1489	29.82599
468.3128	30.82382
468.4767	30.58623
468.6406	33.70226
468.8045	32.25586
468.9684	30.4329
469.1323	28.12629
469.2962	30.50233
469.46	34.80273
469.6239	33.03732
469.7878	31.75529
469.9516	31.50549
470.1154	31.60308
470.2793	29.90343
470.4431	32.58088
470.607	26.57987
470.7708	26.98233
470.9346	29.7361
471.0984	29.6016
471.2622	27.46586
471.426	31.62992
471.5898	33.46994
471.7536	32.87912
471.9174	34.35732
472.0811	31.08619
472.2449	28.60045
472.4087	31.54701
472.5724	36.10568
472.7362	33.44444
472.8999	28.35429
473.0637	35.17492
473.2274	34.45678
473.3911	31.35954
473.5548	33.97806
473.7185	36.9394
473.8822	36.45681
474.0459	30.95657
474.2096	36.01664
474.3733	36.53958
474.537	32.81884
474.7007	34.32631
474.8643	31.35592
475.028	35.23222
475.1917	28.8494
475.3553	33.4136
475.519	34.93192
475.6826	37.69038
475.8463	34.50687
476.0099	33.75013
476.1735	29.52893
476.3371	32.41602
476.5007	31.25896
476.6643	34.76413
476.8279	32.17627
476.9915	31.99636
477.1551	34.82735
477.3187	34.32734
477.4823	39.93493
477.6458	34.38283
477.8094	35.45115
477.9729	31.14582
478.1365	34.23248
478.3	30.38933
478.4636	32.6267
478.6271	36.2157
478.7906	32.66653
478.9541	35.32798
479.1176	32.59124
479.2812	33.22032
479.4447	32.63449
479.6082	34.02182
479.7716	33.9789
479.9351	37.73285
480.0986	32.6404
480.2621	32.64497
480.4255	32.77481
480.589	35.84945
480.7524	33.70742
480.9159	35.01175
481.0793	35.38117
481.2428	32.83632
481.4062	33.24796
481.5696	31.0802
481.733	32.27848
481.8964	37.79309
482.0598	36.66848
482.2232	36.91185
482.3866	36.97643
482.55	33.40726
482.7134	35.06624
482.8768	30.37097
483.0401	30.40149
483.2035	31.7765
483.3668	33.71499
483.5302	37.82709
483.6935	31.10048
483.8568	32.81393
484.0202	30.70652
484.1835	31.52814
484.3468	37.19145
484.5101	35.75526
484.6734	30.82296
484.8367	36.64049
485	32.54877
485.1633	33.6938
485.3266	30.90107
485.4899	30.77757
485.6531	32.06557
485.8164	30.58187
485.9796	29.89291
486.1429	31.68657
486.3061	29.89938
486.4694	29.5325
486.6326	28.6059
486.7958	28.84819
486.959	32.66405
487.1223	27.93317
487.2855	27.35495
487.4486	33.03082
487.6118	33.29824
487.775	35.66074
487.9382	36.23525
488.1014	34.90936
488.2646	31.36383
488.4277	31.71488
488.5909	33.99496
488.754	37.02088
488.9171	35.98438
489.0803	32.18432
489.2434	34.05888
489.4066	32.13276
489.5697	32.84851
489.7328	32.33706
489.8959	37.61595
490.059	38.33872
490.2221	35.7767
490.3852	35.92311
490.5482	34.72137
490.7113	34.35858
490.8744	33.56152
491.0374	36.33887
491.2005	30.77413
491.3636	35.09503
491.5266	39.16005
491.6896	31.34916
491.8527	32.13078
492.0157	33.26006
492.1787	29.9881
492.3417	32.36206
492.5047	32.94423
492.6677	35.96707
492.8307	34.31459
492.9937	34.0278
493.1567	38.16038
493.3196	35.84325
493.4826	34.44442
493.6456	32.29705
493.8085	36.48341
493.9715	34.36656
494.1344	31.97238
494.2974	33.89763
494.4603	36.14712
494.6232	33.72459
494.7861	34.90565
494.949	37.13584
495.1119	37.79098
495.2748	34.00563
495.4377	34.5615
495.6006	31.79056
495.7635	33.38205
495.9264	36.79658
496.0892	39.38042
496.2521	42.37361
496.4149	34.3809
496.5778	36.46297
496.7407	34.21776
496.9035	34.57565
497.0663	41.77592
497.2291	34.58759
497.3919	35.3231
497.5547	40.06288
497.7176	36.54822
497.8804	34.0378
498.0432	37.70127
498.2059	37.29765
498.3687	33.46125
498.5315	37.8089
498.6942	37.52192
498.857	39.99047
499.0198	37.79746
499.1825	37.37225
499.3452	34.90228
499.508	33.51519
499.6707	34.84949
499.8334	35.41405
499.9962	36.92276
500.1589	36.93485
500.3216	34.36433
500.4843	39.17875
500.6469	39.58143
500.8096	39.70858
500.9723	37.47246
501.135	38.17336
501.2976	33.10438
501.4603	32.1335
501.623	37.15097
501.7856	37.78771
501.9482	38.17429
502.1109	36.29397
502.2735	35.91254
502.4361	35.9391
502.5987	36.57484
502.7614	38.4026
502.924	38.02798
503.0865	39.36998
503.2491	37.92535
503.4117	36.97312
503.5743	38.32504
503.7368	37.93736
503.8994	39.72569
504.062	38.9977
504.2245	30.95346
504.3871	32.96224
504.5496	38.63164
504.7121	38.51462
504.8746	37.06786
505.0372	39.24218
505.1997	34.06698
505.3622	36.5667
505.5247	35.42247
505.6872	38.63282
505.8497	35.13425
506.0121	40.70538
506.1746	45.01959
506.3371	44.15942
506.4995	37.49223
506.662	41.11804
506.8244	41.71478
506.9869	40.67628
507.1493	39.24155
507.3117	34.67389
507.4742	35.52179
507.6366	41.04921
507.799	40.08941
507.9614	42.14094
508.1238	41.52035
508.2862	39.38228
508.4485	38.97327
508.6109	40.23698
508.7733	35.38604
508.9357	43.5414
509.098	40.69159
509.2604	38.42715
509.4227	42.50489
509.5851	46.81977
509.7474	48.83059
509.9097	44.50735
510.072	42.84163
510.2343	40.60144
510.3966	42.1117
510.5589	39.95354
510.7212	44.68707
510.8835	43.44317
511.0458	37.57924
511.2081	42.55062
511.3703	42.83527
511.5326	42.77976
511.6949	47.51529
511.8571	47.51923
512.0193	45.98088
512.1816	37.65665
512.3438	42.36352
512.506	44.50359
512.6682	44.65216
512.8304	43.52116
512.9926	45.90167
513.1548	43.49238
513.317	40.50339
513.4792	40.1885
513.6414	45.40279
513.8035	44.16439
513.9657	42.70852
514.1279	41.48986
514.29	44.09191
514.4521	45.56501
514.6143	46.72581
514.7764	46.66278
514.9385	44.44414
515.1006	40.95353
515.2628	47.46852
515.4249	45.51406
515.587	42.67097
515.7491	40.18243
515.9111	43.21996
516.0732	44.25208
516.2353	45.59464
516.3973	51.31407
516.5594	46.81117
516.7214	44.17859
516.8835	43.45544
517.0455	37.06581
517.2076	41.24302
517.3696	38.19136
517.5316	42.39745
517.6937	48.74949
517.8557	50.11444
518.0176	46.04877
518.1796	44.98643
518.3416	43.78806
518.5036	38.95653
518.6656	45.92915
518.8275	55.18478
518.9895	53.16292
519.1514	54.87292
519.3134	54.12932
519.4753	55.04263
519.6373	53.39273
519.7992	49.8011
519.9611	51.24012
520.123	54.52132
520.2849	52.66003
520.4468	50.10503
520.6087	50.71979
520.7706	47.09604
520.9325	48.92952
521.0944	48.88942
521.2562	56.19924
521.4181	56.45345
521.58	51.22974
521.7418	54.53296
521.9036	49.71394
522.0655	50.25425
522.2273	52.87246
522.3891	62.29373
522.551	53.36988
522.7128	48.11691
522.8746	52.21609
523.0363	53.91747
523.1981	55.70471
523.3599	54.65154
523.5217	52.4567
523.6835	53.28543
523.8452	59.44014
524.007	59.76083
524.1687	55.76762
524.3304	55.02357
524.4922	53.80715
524.6539	60.16
524.8157	61.60508
524.9774	58.99889
525.1391	62.34058
525.3008	59.18164
525.4625	62.00309
525.6241	64.95744
525.7858	56.87297
525.9475	65.29144
526.1092	63.32491
526.2709	61.60645
526.4325	61.19829
526.5942	52.55793
526.7558	57.42259
526.9174	58.80033
527.079	54.48834
527.2407	57.83314
527.4023	58.96264
527.5639	62.91289
527.7255	68.04187
527.8871	63.6938
528.0487	63.98783
528.2103	61.3005
528.3718	60.21988
528.5334	60.90971
528.695	66.35188
528.8565	67.14127
529.0181	71.63049
529.1796	69.43129
529.3412	69.78619
529.5027	68.93472
529.6642	67.96027
529.8257	64.59095
529.9872	60.71793
530.1487	61.14837
530.3102	63.98419
530.4717	64.20428
530.6332	71.67287
530.7947	68.11862
530.9562	69.05733
531.1176	69.25312
531.2791	74.23121
531.4405	67.32454
531.6019	68.55333
531.7634	70.2194
531.9248	66.03476
532.0862	65.65345
532.2477	66.14568
532.4091	69.57584
532.5704	68.96314
532.7319	61.28115
532.8932	62.14972
533.0546	63.55187
533.216	65.23015
533.3774	68.41131
533.5388	71.25072
533.7001	72.2497
533.8615	70.36197
534.0228	72.97329
534.1841	69.04694
534.3455	65.47971
534.5068	68.47526
534.6681	69.55029
534.8293	71.07806
534.9907	74.52201
535.152	65.81942
535.3132	69.28656
535.4745	70.51245
535.6358	69.46171
535.7971	71.64235
535.9583	72.45651
536.1196	69.34324
536.2808	70.93504
536.4421	75.4321
536.6033	74.04937
536.7645	69.24679
536.9258	65.09789
537.087	68.81146
537.2482	74.59097
537.4094	68.28452
537.5706	69.31261
537.7318	75.24924
537.8929	71.60506
538.0541	66.65394
538.2153	63.77361
538.3764	68.98834
538.5376	72.80631
538.6987	75.19508
538.8599	69.07779
539.021	67.99528
539.1821	69.71104
539.3432	68.22225
539.5043	63.67817
539.6655	63.53512
539.8265	63.98421
539.9876	65.2366
540.1487	65.79466
540.3098	65.89132
540.4708	66.00765
540.6319	72.05165
540.793	72.34882
540.954	73.48713
541.1151	71.46622
541.2761	68.47301
541.4371	66.86679
541.5981	72.56071
541.7592	67.95065
541.9202	69.14654
542.0812	67.56238
542.2422	64.45503
542.4031	66.37733
542.5641	70.4845
542.7251	75.09725
542.886	74.49152
543.0471	69.9604
543.208	67.73959
543.369	69.53992
543.5298	65.7236
543.6908	70.15195
543.8517	74.36309
544.0126	76.82085
544.1736	74.50387
544.3345	70.46333
544.4954	70.48984
544.6563	65.13853
544.8171	62.95995
544.978	65.0993
545.1389	70.31912
545.2997	72.4444
545.4606	73.58593
545.6215	69.84897
545.7823	67.06102
545.9432	72.93153
546.104	74.48045
546.2648	73.32983
546.4256	74.40366
546.5864	72.48567
546.7473	74.66563
546.908	71.47092
547.0688	75.84409
547.2296	75.97765
547.3904	72.12871
547.5511	74.25629
547.7119	69.06203
547.8727	65.00613
548.0334	69.12473
548.1942	66.4759
548.3549	71.45109
548.5156	76.42604
548.6763	71.27785
548.837	69.25256
548.9977	66.01526
549.1584	76.97859
549.3192	75.48302
549.4798	68.97596
549.6405	71.54144
549.8011	72.26248
549.9619	71.00517
550.1225	67.86197
550.2831	67.0734
550.4438	74.61469
550.6044	72.00336
550.765	65.10419
550.9257	71.87617
551.0863	71.35048
551.2469	71.0069
551.4075	66.50782
551.5681	70.37737
551.7287	66.66153
551.8893	69.56828
552.0498	70.76289
552.2104	69.69984
552.371	66.8811
552.5315	74.10445
552.6921	74.41271
552.8526	71.5474
553.0131	77.89868
553.1736	72.65357
553.3342	70.16536
553.4947	72.53874
553.6552	74.29742
553.8157	71.10771
553.9762	73.17835
554.1367	71.17739
554.2971	69.11598
554.4576	68.97224
554.618	67.39882
554.7785	69.38091
554.939	70.42834
555.0994	69.17017
555.2598	75.37076
555.4203	72.3493
555.5807	69.75011
555.7411	70.25726
555.9015	70.67838
556.0619	70.12058
556.2223	69.1728
556.3827	67.78828
556.5431	67.56874
556.7034	68.19833
556.8638	70.78614
557.0242	71.00045
557.1845	64.47386
557.3448	68.84214
557.5052	71.30477
557.6655	73.60899
557.8259	73.53429
557.9861	68.4881
558.1465	70.73179
558.3068	72.44395
558.467	69.70985
558.6274	63.70477
558.7877	64.89217
558.9479	63.50024
559.1082	63.64129
559.2684	66.79865
559.4287	68.75338
559.5889	65.67681
559.7491	67.17477
559.9094	65.66208
560.0696	68.9753
560.2299	64.52581
560.3901	65.14974
560.5502	69.66933
560.7104	68.95535
560.8707	65.45858
561.0308	64.45884
561.191	63.44725
561.3511	60.98271
561.5114	60.91524
561.6714	62.42111
561.8316	65.60513
561.9918	65.34122
562.1519	66.63553
562.312	65.31522
562.4722	64.41199
562.6323	60.7212
562.7924	59.98395
562.9525	63.27754
563.1125	68.20189
563.2726	65.78436
563.4327	62.22307
563.5928	63.71335
563.7528	68.46453
563.9129	66.47769
564.0729	60.53343
564.233	59.99607
564.393	60.02028
564.553	63.65595
564.7131	61.1881
564.873	63.51239
565.0331	60.86621
565.1931	55.41033
565.353	55.36607
565.5131	59.45048
565.673	62.32693
565.833	61.53844
565.9929	57.00303
566.1529	61.56807
566.3129	59.67057
566.4728	61.54927
566.6328	60.11188
566.7927	61.82158
566.9526	61.13219
567.1125	60.79191
567.2724	55.55156
567.4323	61.01464
567.5922	59.85021
567.7521	57.58421
567.9119	58.43548
568.0718	60.23046
568.2317	57.72279
568.3915	58.76003
568.5514	56.90042
568.7112	59.72202
568.871	60.24979
569.0309	59.34692
569.1907	57.36038
569.3505	55.76035
569.5103	56.41749
569.6701	57.56898
569.8299	54.83067
569.9897	60.54515
570.1495	59.5012
570.3092	58.9381
570.469	57.11264
570.6287	56.85983
570.7885	55.96213
570.9482	58.78405
571.108	55.40225
571.2677	56.94355
571.4274	55.40031
571.5871	53.01954
571.7468	57.36975
571.9066	50.34329
572.0662	54.04902
572.2259	58.85959
572.3856	57.51161
572.5452	54.17741
572.7049	56.73028
572.8646	54.92341
573.0242	53.57222
573.1838	56.77776
573.3435	60.38854
573.5031	55.01711
573.6627	52.81504
573.8223	56.32658
573.9819	59.93097
574.1415	58.71992
574.3011	57.08583
574.4607	52.29181
574.6203	50.13995
574.7798	51.45928
574.9394	51.67834
575.099	55.27111
575.2585	52.1975
575.418	53.83549
575.5776	50.96456
575.7371	48.01225
575.8966	50.31919
576.0562	51.0445
576.2156	56.89058
576.3751	54.15948
576.5346	52.4225
576.6941	48.37933
576.8536	51.53071
577.0131	53.48526
577.1725	54.97493
577.332	52.4752
577.4914	49.65581
577.6508	49.75351
577.8103	47.78356
577.9697	46.94628
578.1291	47.04549
578.2885	49.38913
578.4479	49.75983
578.6073	51.30513
578.7667	53.95544
578.9261	46.85469
579.0854	49.89099
579.2448	45.62994
579.4042	49.7629
579.5635	43.83856
579.7229	48.71864
579.8822	43.99509
580.0416	48.30585
580.2009	53.36556
580.3602	51.07209
580.5195	50.44114
580.6788	53.34105
580.8381	49.44992
580.9974	50.77691
581.1566	52.70378
581.3159	50.27403
581.4752	49.05324
581.6345	48.25618
581.7937	48.15832
581.9529	45.27545
582.1122	53.23666
582.2714	46.42461
582.4306	39.07072
582.5898	47.44831
582.749	48.63513
582.9082	47.97025
583.0674	49.04214
583.2266	47.16352
583.3857	48.9608
583.5449	46.40144
583.7041	41.64793
583.8633	45.18509
584.0224	48.77318
584.1815	50.08898
584.3407	49.07704
584.4998	43.94388
584.6589	42.19046
584.818	45.20932
584.9771	45.17087
585.1362	49.66588
585.2953	44.14281
585.4544	44.56918
585.6135	48.99476
585.7725	50.89579
585.9316	44.45221
586.0906	45.38148
586.2497	53.27023
586.4087	49.83165
586.5677	44.01101
586.7267	46.73997
586.8858	47.65954
587.0448	45.20414
587.2038	41.70658
587.3628	44.97105
587.5218	40.96227
587.6807	47.33505
587.8397	47.25568
587.9987	47.26878
588.1577	49.91904
588.3166	41.34852
588.4755	36.85603
588.6345	40.77975
588.7934	44.90931
588.9523	45.59198
589.1112	44.40673
589.2701	40.41166
589.429	47.75404
589.5879	44.47393
589.7468	41.21647
589.9056	39.4997
590.0645	44.52683
590.2234	49.66272
590.3822	44.05552
590.5411	42.16396
590.6999	45.00117
590.8588	40.26923
591.0176	45.83301
591.1764	47.10206
591.3352	44.6376
591.494	43.42351
591.6528	43.03938
591.8116	42.88388
591.9703	44.8497
592.1291	44.51812
592.2878	43.12208
592.4467	42.98112
592.6053	46.44765
592.7641	49.71449
592.9229	46.98783
593.0816	43.19323
593.2403	41.27044
593.399	35.97575
593.5577	44.18036
593.7164	44.25447
593.8751	47.76341
594.0338	43.64629
594.1924	43.37677
594.3511	40.41852
594.5098	43.77388
594.6684	43.00814
594.8271	42.34986
594.9857	42.14035
595.1443	37.08527
595.303	43.18517
595.4615	43.34424
595.6202	41.64378
595.7787	43.3688
595.9374	44.99776
596.0959	42.97121
596.2545	42.89236
596.4131	47.03419
596.5717	44.89398
596.7302	39.78294
596.8887	41.26991
597.0473	41.27506
597.2058	44.23344
597.3644	48.66122
597.5229	46.82613
597.6814	41.43512
597.8399	46.10882
597.9984	45.55562
598.1569	41.9912
598.3154	46.33264
598.4738	45.62961
598.6323	47.19001
598.7908	41.66909
598.9492	45.53887
599.1076	46.04737
599.2661	48.47446
599.4245	45.74671
599.5829	46.37002
599.7413	44.72157
599.8997	39.80797
600.0581	44.96329
600.2165	41.15779
600.3749	39.66162
600.5333	42.47533
600.6917	41.09343
600.85	34.84742
601.0084	42.68336
601.1667	40.65642
601.325	41.76688
601.4833	42.31129
601.6417	42.89245
601.8	41.61207
601.9583	42.68013
602.1166	45.54995
602.2749	41.6774
602.4332	39.26688
602.5914	40.70729
602.7498	41.09893
602.908	40.09988
603.0662	43.70186
603.2245	41.50438
603.3828	43.21857
603.541	39.22612
603.6992	39.92668
603.8574	41.96512
604.0156	39.74853
604.1738	41.87616
604.332	42.11495
604.4902	39.80123
604.6484	40.61598
604.8065	41.06355
604.9647	43.93734
605.1229	44.38689
605.281	41.32672
605.4391	38.59962
605.5973	42.59444
605.7554	42.0051
605.9135	41.61105
606.0717	43.93218
606.2297	43.56546
606.3878	46.25756
606.5459	39.38454
606.704	41.65055
606.8621	39.27205
607.0201	36.9102
607.1782	36.636
607.3362	39.24681
607.4943	39.46304
607.6523	42.52436
607.8104	37.39873
607.9684	40.48719
608.1264	39.38137
608.2844	40.11155
608.4424	39.7212
608.6003	43.33711
608.7584	39.18512
608.9163	39.26154
609.0743	37.84773
609.2322	42.29144
609.3902	38.88322
609.5482	36.16375
609.7061	37.89391
609.864	35.72692
610.0219	42.26205
610.1798	38.49953
610.3377	35.92514
610.4956	38.98639
610.6535	36.70791
610.8114	36.65892
610.9693	37.54171
611.1271	37.81045
611.285	39.19338
611.4429	41.90915
611.6007	43.56064
611.7585	42.49236
611.9164	37.78112
612.0742	38.69651
612.232	35.74138
612.3898	35.30466
612.5476	38.91996
612.7054	39.76661
612.8632	40.50134
613.0209	37.41284
613.1787	41.30253
613.3365	41.25389
613.4942	41.92014
613.652	36.52111
613.8097	29.99237
613.9674	33.49336
614.1252	37.43222
614.2829	37.80061
614.4406	34.75749
614.5983	35.80694
614.756	37.25305
614.9136	45.60984
615.0714	35.54134
615.229	35.03005
615.3867	37.79571
615.5443	35.41969
615.702	37.05252
615.8596	33.52618
616.0172	33.98024
616.1748	28.36875
616.3325	34.93195
616.4901	35.34832
616.6476	34.22517
616.8052	34.4257
616.9628	36.05118
617.1204	38.759
617.278	37.89261
617.4355	37.1595
617.5931	40.24031
617.7506	36.64915
617.9081	36.04235
618.0657	40.79551
618.2232	37.98828
618.3807	34.58524
618.5382	34.54111
618.6957	37.94638
618.8532	34.41779
619.0107	40.17878
619.1682	35.07858
619.3256	35.20515
619.4831	37.09925
619.6406	35.44605
619.798	31.38301
619.9554	33.32318
620.1129	40.28424
620.2703	32.39955
620.4277	39.86457
620.5851	37.20358
620.7425	38.13932
620.8998	35.51568
621.0573	37.58627
621.2146	38.1828
621.372	40.4271
621.5294	41.20222
621.6867	39.43277
621.8441	31.54284
622.0013	33.03312
622.1587	36.47173
622.316	34.43316
622.4733	38.09661
622.6306	36.37788
622.7879	35.24339
622.9452	36.86368
623.1025	33.81639
623.2598	41.36075
623.4171	40.80815
623.5743	33.34935
623.7316	33.39193
623.8888	34.63744
624.046	36.98004
624.2032	33.24577
624.3605	32.57315
624.5176	33.91624
624.6749	36.69095
624.8321	32.40522
624.9893	33.32911
625.1464	34.70325
625.3036	37.84952
625.4608	37.29111
625.6179	29.61472
625.7751	31.47254
625.9322	30.25853
626.0894	36.6426
626.2465	35.10587
626.4036	36.80246
626.5607	38.26548
626.7178	38.0207
626.8749	32.39616
627.032	27.01705
627.189	31.7907
627.3461	35.40702
627.5032	34.18323
627.6602	33.10692
627.8173	31.14725
627.9743	34.08878
628.1313	34.67538
628.2884	34.93383
628.4454	29.14192
628.6024	31.61832
628.7594	29.35999
628.9164	36.49608
629.0734	33.73474
629.2303	36.34802
629.3873	38.82293
629.5443	33.8861
629.7012	33.47989
629.8582	35.90035
630.0151	36.45686
630.172	33.13177
630.3289	32.64571
630.4858	39.12271
630.6428	35.98154
630.7996	34.65872
630.9565	31.88627
631.1134	35.26252
631.2703	36.53158
631.4272	30.90424
631.584	31.9714
631.7408	33.28438
631.8977	36.99271
632.0546	33.53042
632.2114	36.6815
632.3682	34.78644
632.525	32.02541
632.6818	29.28562
632.8386	35.93143
632.9954	35.71404
633.1522	31.41583
633.3089	31.23108
633.4657	35.8279
633.6224	33.73079
633.7792	32.83857
633.9359	33.93682
634.0927	36.68171
634.2494	35.72684
634.4061	29.81916
634.5628	34.65754
634.7195	32.74134
634.8762	28.19291
635.0329	36.41981
635.1895	31.89089
635.3462	31.67471
635.5029	30.42671
635.6595	35.36656
635.8162	34.20655
635.9728	34.57256
636.1295	34.80742
636.2861	32.85437
636.4427	28.51336
636.5992	34.08467
636.7559	34.19559
636.9124	32.34997
637.069	31.00158
637.2256	33.58554
637.3821	35.9086
637.5387	32.60364
637.6953	28.74197
637.8518	29.076
638.0084	33.02839
638.1649	29.68729
638.3214	32.83707
638.4779	29.46941
638.6344	29.30114
638.7909	35.19298
638.9474	37.26182
639.1038	34.61678
639.2603	37.18293
639.4167	30.96329
639.5732	31.36499
639.7297	35.0336
639.8861	30.37083
640.0425	32.44632
640.199	31.77862
640.3553	28.57491
640.5118	30.92181
640.6682	29.02661
640.8245	33.54803
640.981	32.00686
641.1373	26.76043
641.2936	22.19969
641.45	29.15112
641.6064	34.91394
641.7627	33.41492
641.9191	29.58353
642.0754	28.99802
642.2317	28.00335
642.388	33.28794
642.5443	33.63099
642.7006	32.45677
642.8569	31.41864
643.0131	35.29723
643.1694	31.83067
643.3257	27.81528
643.4819	29.98352
643.6382	30.54466
643.7944	32.06849
643.9506	33.86008
644.1069	27.77015
644.2631	31.84226
644.4193	30.90764
644.5754	35.49367
644.7316	32.40322
644.8878	31.97185
645.044	34.134
645.2002	33.61125
645.3563	29.95142
645.5125	31.21976
645.6686	30.41368
645.8248	29.44235
645.9809	28.5704
646.137	26.57185
646.2931	26.87057
646.4492	25.38695
646.6053	35.19088
646.7614	31.39572
646.9174	29.41595
647.0735	32.71431
647.2296	32.2561
647.3856	27.8559
647.5417	30.61945
647.6977	26.7973
647.8537	30.25451
648.0098	28.34118
648.1658	28.77562
648.3218	29.72407
648.4777	28.87816
648.6337	27.15981
648.7897	27.88711
648.9457	28.12986
649.1016	29.40655
649.2576	28.22324
649.4135	30.6215
649.5695	29.76016
649.7254	26.78256
649.8813	29.98564
650.0372	32.72083
650.1932	31.69238
650.3491	27.98697
650.5049	28.4018
650.6608	24.75384
650.8167	25.78347
650.9725	28.00806
651.1284	28.55523
651.2842	29.85392
651.4401	24.00118
651.5959	27.30967
651.7518	27.51516
651.9076	28.69122
652.0634	28.33401
652.2192	30.63495
652.3749	30.99364
652.5308	23.6218
652.6865	24.15266
652.8423	28.82258
652.998	25.5026
653.1538	27.14375
653.3096	29.26542
653.4653	26.04935
653.621	28.97869
653.7767	30.36203
653.9324	28.25835
654.0881	28.49175
654.2438	27.76578
654.3995	31.26538
654.5552	28.34519
654.7109	26.15809
654.8665	27.06071
655.0222	26.40596
655.1778	30.62266
655.3334	31.55505
655.4891	27.43453
655.6447	26.79033
655.8003	30.59782
655.9559	26.77281
656.1115	21.81564
656.2671	29.12667
656.4227	30.2658
656.5782	28.21124
656.7338	28.52294
656.8893	24.6178
657.0449	25.37995
657.2004	25.59368
657.356	28.0624
657.5115	28.82928
657.667	23.90983
657.8225	24.60448
657.978	26.34747
658.1335	27.03695
658.289	28.14254
658.4445	28.83431
658.5999	27.52262
658.7554	28.55384
658.9108	28.12833
659.0663	24.81117
659.2217	27.88797
659.3771	30.95175
659.5325	29.84063
659.6879	25.76644
659.8433	26.25723
659.9987	27.77337
660.1541	25.38982
660.3095	28.86387
660.4648	25.06654
660.6202	24.31022
660.7756	27.41593
660.9309	29.57402
661.0862	27.39051
661.2416	28.39723
661.3969	28.61423
661.5522	25.97249
661.7075	29.31033
661.8628	29.90243
662.0181	25.03752
662.1733	22.78597
662.3286	26.81422
662.4839	31.44263
662.6391	27.61953
662.7944	25.63513
662.9496	26.69036
663.1048	25.69794
663.26	28.46811
663.4152	21.74305
663.5704	21.47971
663.7256	25.09751
663.8808	27.23262
664.036	28.66222
664.1912	25.54369
664.3463	24.17011
664.5015	23.9848
664.6566	29.76467
664.8118	25.02319
664.9669	24.26911
665.122	22.69469
665.2771	29.29195
665.4322	25.51842
665.5873	21.56612
665.7424	28.1231
665.8975	24.51743
666.0526	24.54897
666.2076	21.03487
666.3627	24.72934
666.5177	25.02777
666.6727	22.26104
666.8278	24.47839
666.9828	24.41735
667.1378	28.19789
667.2928	26.36908
667.4478	24.74826
667.6028	24.93256
667.7578	21.67825
667.9127	25.42057
668.0677	26.87886
668.2226	23.73349
668.3776	25.85555
668.5325	24.72862
668.6874	27.55309
668.8423	28.0618
668.9973	24.23587
669.1522	25.53717
669.3071	22.31491
669.4619	25.58195
669.6168	24.72218
669.7717	25.59568
669.9265	20.42653
670.0814	27.71698
670.2362	29.37262
670.3911	22.73007
670.5459	27.93155
670.7007	25.90262
670.8555	22.61197
671.0103	23.34845
671.1651	26.6861
671.3199	27.81824
671.4747	25.24816
671.6295	25.41357
671.7842	27.32473
671.939	22.81783
672.0937	19.97596
672.2484	26.26222
672.4031	25.65062
672.5579	26.22342
672.7126	20.64305
672.8673	25.81363
673.022	24.27904
673.1767	20.1791
673.3314	20.70595
673.486	17.82393
673.6407	17.55415
673.7953	17.77383
673.95	23.55033
674.1046	24.41485
674.2592	23.39942
674.4138	23.33792
674.5684	22.59545
674.723	25.1803
674.8776	26.2493
675.0322	26.87133
675.1868	28.31041
675.3414	32.21725
675.4959	27.17915
675.6505	25.07164
675.805	21.76608
675.9595	24.93447
676.1141	23.81817
676.2686	24.99014
676.4231	22.41975
676.5776	25.30774
676.7321	24.083
676.8866	22.73862
677.041	21.25866
677.1955	24.51083
677.35	23.36266
677.5044	26.72
677.6589	24.27888
677.8133	24.52511
677.9677	27.89037
678.1221	25.07216
678.2766	23.00934
678.4309	23.12751
678.5853	24.34676
678.7397	23.39577
678.8941	27.27081
679.0485	27.02236
679.2028	22.3087
679.3571	20.1856
679.5115	21.1326
679.6658	25.30371
679.8201	27.96657
679.9744	24.19851
680.1288	18.27878
680.2831	22.97936
680.4373	22.4199
680.5916	25.23696
680.7459	27.78701
680.9001	31.46898
681.0544	27.48362
681.2087	29.78004
681.3629	24.27161
681.5171	24.90227
681.6713	24.207
681.8256	24.9935
681.9797	26.69453
682.134	24.78006
682.2881	23.64001
682.4423	19.76123
682.5965	27.71973
682.7507	20.92711
682.9048	23.81068
683.059	24.98112
683.2131	25.83398
683.3672	29.33534
683.5213	24.02389
683.6754	22.79022
683.8295	25.00325
683.9836	27.00857
684.1377	27.66853
684.2918	26.26079
684.4459	23.24546
684.5999	25.85673
684.754	22.89305
684.908	21.94637
685.062	27.11446
685.2161	33.78269
685.3701	30.4814
685.5241	25.64967
685.6781	28.31423
685.8321	25.89416
685.9861	25.95735
686.14	26.76502
686.294	26.87143
686.4479	25.78638
686.6019	26.35715
686.7559	29.1396
686.9098	26.36366
687.0637	25.43933
687.2176	19.20068
687.3715	19.67562
687.5254	20.37192
687.6793	21.40527
687.8332	18.84236
687.9871	24.41999
688.1409	25.10378
688.2947	24.22747
688.4486	25.64434
688.6024	20.63327
688.7563	27.08352
688.9101	26.05904
689.0639	24.2105
689.2177	20.9633
689.3715	20.90297
689.5253	20.65019
689.6791	14.2937
689.8328	18.9327
689.9866	26.77687
690.1403	25.3584
690.2941	27.55731
690.4478	24.88026
690.6015	22.62261
690.7552	26.87067
690.9089	22.1123
691.0626	22.3822
691.2164	26.59447
691.37	20.46018
691.5237	22.29634
691.6774	28.23302
691.831	25.12852
691.9847	25.91792
692.1383	26.97476
692.2919	25.33149
692.4456	22.92489
692.5992	26.92546
692.7527	26.61368
692.9064	25.8187
693.0599	21.46008
693.2136	22.24865
693.3671	25.66649
693.5207	31.81793
693.6742	23.33936
693.8278	28.18229
693.9813	30.59806
694.1348	26.49243
694.2883	29.87992
694.4418	26.95105
694.5953	25.74889
694.7488	25.91763
694.9023	28.82383
695.0558	25.58585
695.2093	25.03126
695.3627	28.7643
695.5162	23.21153
695.6696	26.80656
695.8231	29.04281
695.9764	29.81355
696.1299	29.8693
696.2833	23.69654
696.4367	28.48307
696.5901	27.40302
696.7435	30.17913
696.8968	29.9794
697.0502	27.35581
697.2036	25.61289
697.3569	27.27121
697.5102	26.69727
697.6635	29.02003
697.8168	26.57241
697.9702	27.88044
698.1235	25.04961
698.2768	27.83344
698.4301	30.43145
698.5833	30.05045
698.7366	26.35219
698.8898	28.79825
699.0431	29.45838
699.1964	28.86159
699.3495	31.64782
699.5028	28.69763
699.656	27.34676
699.8092	26.96419
699.9624	25.09747
700.1156	29.43235
700.2688	29.18097
700.4219	33.98704
700.5751	28.46519
700.7283	28.68587
700.8814	32.06281
701.0345	27.48059
701.1877	30.66922
701.3408	33.0687
701.4939	30.28476
701.647	22.75122
701.8001	33.2895
701.9532	28.35851
702.1063	31.70743
702.2593	29.14809
702.4124	30.78476
702.5654	31.23352
702.7184	31.38377
702.8715	26.41232
703.0245	32.58709
703.1776	31.67139
703.3305	29.67511
703.4835	29.69211
703.6365	31.59691
703.7895	31.94042
703.9424	34.28381
704.0954	28.92735
704.2484	32.94095
704.4013	30.46602
704.5543	31.83151
704.7072	33.95763
704.8601	30.77383
705.013	28.88557
705.1659	32.2765
705.3188	29.25025
705.4717	31.92991
705.6246	35.1716
705.7774	27.09684
705.9303	28.21184
706.0831	31.34476
706.236	34.58791
706.3888	32.79503
706.5416	31.58331
706.6944	38.21482
706.8472	38.82734
707	33.83232
707.1528	36.00355
707.3056	37.00245
707.4583	37.86285
707.6111	41.83741
707.7639	34.79534
707.9166	33.67557
708.0693	32.52505
708.222	37.20563
708.3748	36.40036
708.5275	37.90112
708.6802	36.83846
708.8328	35.35555
708.9855	39.94207
709.1382	37.14133
709.2909	40.78194
709.4435	38.12571
709.5962	38.43697
709.7488	38.18261
709.9014	35.92501
710.054	36.17425
710.2067	38.11726
710.3593	41.91164
710.5118	36.71381
710.6644	39.24635
710.817	41.30628
710.9695	40.44004
711.1221	40.28095
711.2747	41.8637
711.4272	43.0731
711.5797	41.84538
711.7322	37.51075
711.8848	42.8822
712.0373	40.1864
712.1898	39.67866
712.3422	42.19393
712.4948	43.33322
712.6472	43.00969
712.7996	40.9635
712.9521	40.18611
713.1046	46.42139
713.257	40.24422
713.4094	41.69904
713.5618	39.95812
713.7142	36.64671
713.8666	39.26098
714.019	42.76377
714.1714	37.86321
714.3237	40.99365
714.4761	42.39131
714.6285	39.92387
714.7808	42.91047
714.9331	40.43415
715.0854	43.77029
715.2378	45.19498
715.3901	42.29481
715.5424	42.6505
715.6947	44.42825
715.8469	43.38195
715.9992	44.02801
716.1515	46.78472
716.3037	44.20951
716.456	40.06974
716.6082	36.62357
716.7604	39.35425
716.9127	44.7947
717.0649	38.38773
717.2171	37.15916
717.3693	36.50826
717.5214	45.33883
717.6736	45.01213
717.8258	42.61287
717.978	43.25681
718.1301	41.11962
718.2822	39.22333
718.4344	41.15649
718.5865	39.86947
718.7386	37.13382
718.8907	39.3649
719.0428	39.43027
719.1949	40.45979
719.3469	38.98246
719.499	38.60474
719.6511	46.75621
719.8031	44.11919
719.9551	40.85007
720.1072	39.26986
720.2592	39.29715
720.4112	38.14328
720.5632	40.33819
720.7152	42.77287
720.8672	46.66018
721.0192	43.88342
721.1711	43.47274
721.3231	45.78254
721.475	52.70765
721.627	50.44423
721.7789	48.50366
721.9308	48.72244
722.0828	49.1763
722.2347	47.20119
722.3866	49.16527
722.5385	48.96752
722.6903	53.09448
722.8422	46.76522
722.9941	50.07461
723.1459	50.16959
723.2977	48.09105
723.4496	46.39042
723.6014	45.65627
723.7532	50.3511
723.905	47.6467
724.0568	47.56447
724.2086	49.21223
724.3604	50.48425
724.5121	47.06178
724.6639	49.29033
724.8157	51.22398
724.9674	50.63816
725.1191	50.98196
725.2709	43.68849
725.4226	50.2609
725.5743	44.59153
725.726	45.19143
725.8777	53.3061
726.0294	54.16865
726.181	55.32119
726.3327	52.18641
726.4844	55.61933
726.636	49.59955
726.7877	50.24846
726.9393	55.39101
727.0909	50.20916
727.2425	53.0004
727.3941	53.20313
727.5457	55.43193
727.6973	50.321
727.8488	50.09653
728.0004	50.83631
728.1519	57.6498
728.3035	62.77016
728.455	60.06714
728.6066	59.02176
728.7581	59.75867
728.9095	58.85162
729.0611	54.42064
729.2126	55.65472
729.364	52.02338
729.5155	57.9324
729.667	56.09692
729.8184	58.477
729.9698	63.56732
730.1213	58.06614
730.2727	53.58531
730.4241	53.67332
730.5756	61.11271
730.7269	57.06886
730.8784	58.8608
731.0297	56.11977
731.1811	57.58218
731.3325	56.71043
731.4838	61.50934
731.6351	63.83318
731.7865	66.83929
731.9378	64.78646
732.0891	64.21887
732.2404	66.41499
732.3917	68.22209
732.543	69.60655
732.6943	73.3349
732.8456	71.75784
732.9968	71.19996
733.1481	68.64639
733.2993	67.17341
733.4506	68.70948
733.6018	64.73042
733.753	66.77483
733.9042	72.33744
734.0554	74.26037
734.2066	74.258
734.3578	72.33131
734.509	68.25511
734.6602	74.99007
734.8113	70.84469
734.9624	76.08514
735.1136	71.92148
735.2647	78.54427
735.4158	76.65288
735.5669	72.94849
735.718	77.83857
735.8691	75.0159
736.0201	75.12595
736.1713	75.40584
736.3223	80.87568
736.4733	76.51815
736.6244	78.1983
736.7755	77.49731
736.9265	76.5014
737.0775	76.9908
737.2285	81.25364
737.3795	79.27613
737.5305	81.92613
737.6815	81.69725
737.8324	85.94441
737.9834	83.65138
738.1343	83.10552
738.2853	83.67663
738.4362	78.92175
738.5871	80.46173
738.738	78.53298
738.8889	78.552
739.0399	79.72224
739.1907	76.48496
739.3416	84.1283
739.4925	87.29888
739.6433	82.83295
739.7942	85.34489
739.945	82.28901
740.0958	85.71166
740.2467	88.70068
740.3975	84.1922
740.5483	87.93134
740.6991	91.05405
740.8499	88.78526
741.0007	86.6893
741.1514	83.46482
741.3022	89.46687
741.4529	87.53828
741.6036	88.27994
741.7544	86.86312
741.9051	88.70135
742.0558	90.85545
742.2065	91.63877
742.3572	86.75017
742.5079	89.03542
742.6586	89.67106
742.8093	84.38592
742.9599	89.99024
743.1105	84.93225
743.2612	88.73826
743.4118	93.57388
743.5624	94.91114
743.7131	93.65781
743.8636	93.94589
744.0142	96.64338
744.1648	95.35993
744.3154	88.26218
744.4659	96.25895
744.6165	90.62988
744.767	90.70872
744.9176	91.89843
745.0681	95.21165
745.2186	94.9845
745.3691	93.84097
745.5197	93.21832
745.6702	91.43866
745.8206	92.18621
745.9711	93.6862
746.1215	92.15367
746.272	92.04588
746.4224	91.534
746.5729	96.09171
746.7233	95.09682
746.8737	95.34161
747.0241	91.42068
747.1745	93.61585
747.3249	91.97881
747.4753	92.69851
747.6257	94.26932
747.776	96.60072
747.9264	95.43912
748.0767	97.48149
748.2271	94.97124
748.3774	90.72893
748.5276	92.55615
748.678	99.43819
748.8282	95.25896
748.9786	93.76822
749.1288	90.94554
749.2791	92.80439
749.4294	94.7155
749.5796	90.88136
749.7299	93.98425
749.8801	91.44759
750.0303	94.25582
750.1805	93.25394
750.3307	92.93606
750.4809	99.26039
750.6311	100.7223
750.7813	98.28164
750.9314	92.77322
751.0816	99.59022
751.2318	99.54878
751.3818	94.80571
751.532	95.48142
751.6821	93.88975
751.8322	96.05077
751.9823	93.68505
752.1324	90.10606
752.2825	94.93856
752.4326	95.50175
752.5826	101.7857
752.7327	95.88702
752.8827	93.9076
753.0327	94.53094
753.1827	97.30133
753.3328	94.5423
753.4828	94.44238
753.6328	93.81662
753.7828	91.80448
753.9327	92.614
754.0827	94.24648
754.2327	94.70629
754.3826	98.39091
754.5325	94.624
754.6825	94.2094
754.8324	95.29216
754.9823	94.33085
755.1322	99.09501
755.2821	95.89806
755.432	92.87663
755.5818	92.33686
755.7318	93.52158
755.8816	87.03844
756.0314	88.5975
756.1813	91.52968
756.3311	91.48549
756.4809	94.06497
756.6307	96.67946
756.7805	97.30959
756.9303	87.95252
757.0801	80.29035
757.2299	87.32492
757.3796	87.4688
757.5294	87.19993
757.6791	94.38096
757.8289	93.98895
757.9786	90.15004
758.1283	89.01231
758.278	89.90597
758.4277	87.3536
758.5773	86.75327
758.7271	82.28909
758.8767	88.17413
759.0264	90.85272
759.176	84.78852
759.3256	73.29037
759.4753	62.60719
759.6249	52.19312
759.7745	40.23253
759.9241	35.5528
760.0737	32.61543
760.2233	27.74529
760.3729	23.93914
760.5224	26.47211
760.6719	29.53339
760.8215	26.78144
760.971	25.58041
761.1205	29.88967
761.2701	30.26793
761.4196	41.96982
761.5691	42.88354
761.7186	51.7337
761.868	60.86359
762.0175	60.34475
762.167	59.64168
762.3164	51.01238
762.4659	42.21997
762.6153	40.17656
762.7647	39.94992
762.9141	41.23247
763.0635	38.80404
763.2129	39.22069
763.3623	37.97142
763.5117	40.96985
763.661	44.71162
763.8104	43.42619
763.9597	44.93665
764.1091	42.04731
764.2584	42.3326
764.4077	45.19627
764.557	47.09837
764.7063	52.68822
764.8556	55.3762
765.0049	56.07658
765.1541	58.05586
765.3034	61.88317
765.4526	57.22832
765.6019	59.35848
765.7511	55.20486
765.9003	57.20907
766.0496	60.04886
766.1987	60.95029
766.348	64.36051
766.4971	67.30173
766.6463	62.93644
766.7955	69.14415
766.9446	69.90659
767.0938	63.46045
767.2429	69.10458
767.392	71.79199
767.5411	72.59611
767.6902	76.08624
767.8394	70.20621
767.9884	70.09427
768.1375	74.49805
768.2866	71.07622
768.4356	69.36897
768.5847	75.1614
768.7337	77.29212
768.8828	74.28683
769.0317	71.23846
769.1808	77.92863
769.3298	84.70142
769.4788	80.06479
769.6277	77.71353
769.7767	76.55849
769.9257	80.21801
770.0746	79.03898
770.2236	76.66978
770.3725	78.40809
770.5214	84.1024
770.6703	77.14983
770.8193	79.45628
770.9681	75.25394
771.1171	76.47041
771.2659	72.97728
771.4148	74.81384
771.5637	77.09549
771.7125	77.34012
771.8613	72.45782
772.0101	76.38599
772.159	77.47956
772.3078	72.47122
772.4566	76.79926
772.6054	77.88676
772.7542	74.08242
772.903	76.47853
773.0517	79.14236
773.2004	78.05827
773.3492	70.56923
773.4979	71.04594
773.6467	69.37457
773.7953	75.70435
773.944	73.66219
774.0928	74.33708
774.2415	71.53996
774.3901	75.17449
774.5388	73.17821
774.6874	72.13828
774.8361	76.23511
774.9847	67.32088
775.1334	69.70969
775.282	70.21601
775.4305	72.32869
775.5792	70.86216
775.7277	72.91302
775.8763	74.91838
776.0249	72.62318
776.1735	68.41213
776.322	66.66521
776.4705	70.39618
776.6191	69.08589
776.7676	68.09605
776.9161	69.25562
777.0646	71.48518
777.2131	71.78876
777.3616	69.74316
777.5101	72.1819
777.6585	67.32109
777.8069	70.47226
777.9554	68.79416
778.1038	74.2434
778.2523	72.81479
778.4007	67.1633
778.5491	68.35372
778.6974	71.71658
778.8459	78.94031
778.9942	73.881
779.1426	68.23814
779.291	65.30408
779.4393	68.45184
779.5876	70.46641
779.736	73.08488
779.8843	71.41611
780.0326	71.30685
780.1809	70.92888
780.3292	69.95889
780.4775	70.87366
780.6257	73.16509
780.774	69.76906
780.9222	64.69784
781.0704	66.78878
781.2187	70.97144
781.3669	69.44782
781.5151	67.32777
781.6633	70.17891
781.8115	71.87283
781.9597	69.76513
782.1078	62.95706
782.256	67.82652
782.4042	70.80868
782.5523	66.28827
782.7004	66.22696
782.8486	66.80054
782.9967	69.25529
783.1448	64.1342
783.2929	64.28751
783.441	69.89329
783.5891	69.28339
783.7371	67.21275
783.8851	67.60016
784.0332	64.28947
784.1812	63.58693
784.3293	68.52625
784.4773	68.40636
784.6253	64.92107
784.7733	68.19704
784.9213	66.59753
785.0692	62.8087
785.2172	63.37085
785.3652	61.73781
785.5131	67.17853
785.6611	68.01077
785.809	66.38673
785.9569	59.97541
786.1048	59.40212
786.2527	62.81496
786.4006	69.13274
786.5485	62.9977
786.6964	62.72223
786.8442	62.30297
786.9921	63.56237
787.1399	63.304
787.2877	65.18005
787.4355	62.73053
787.5833	57.09362
787.7311	62.00468
787.8789	58.89422
788.0267	63.59285
788.1745	58.99319
788.3223	63.52397
788.47	59.91599
788.6177	57.48528
788.7654	54.16179
788.9132	61.93224
789.0609	58.51704
789.2086	58.01329
789.3563	56.26915
789.504	57.16606
789.6517	60.06865
789.7993	60.37277
789.947	63.45312
790.0946	60.89011
790.2422	58.13891
790.3898	56.90428
790.5375	57.84528
790.6851	56.71459
790.8326	56.42827
790.9802	59.22676
791.1278	58.50345
791.2754	58.82012
791.423	62.78218
791.5705	61.75591
791.718	60.2331
791.8655	56.52642
792.0131	58.55104
792.1606	58.64523
792.308	53.55379
792.4556	54.4665
792.603	56.32807
792.7505	57.49498
792.8979	54.87126
793.0454	52.22754
793.1928	57.64487
793.3403	53.89446
793.4877	57.5104
793.6351	64.44336
793.7825	60.09333
793.9299	55.72362
794.0772	54.52605
794.2246	48.9853
794.3719	50.71854
794.5193	53.15488
794.6666	52.87539
794.814	51.38702
794.9613	55.87697
795.1086	57.94303
795.2559	56.721
795.4032	57.47783
795.5505	57.63913
795.6978	59.4642
795.845	53.35095
795.9922	51.76596
796.1395	53.5212
796.2867	58.96828
796.4339	58.18636
796.5811	59.48834
796.7283	58.45487
796.8755	55.61964
797.0227	53.57123
797.1699	52.96054
797.317	55.92738
797.4642	55.80925
797.6113	55.22274
797.7584	54.88245
797.9056	61.11586
798.0527	56.98804
798.1998	56.13625
798.3469	53.84289
798.494	53.31455
798.641	53.34639
798.7881	54.94714
798.9351	53.21601
799.0822	54.60521
799.2292	53.76134
799.3762	55.40144
799.5232	59.70888
799.6702	55.21162
799.8172	53.75719
799.9642	50.1017
800.1111	53.33536
800.2581	53.05081
800.4051	50.88693
800.552	51.09703
800.6989	54.48149
800.8458	55.20367
800.9927	52.03931
801.1396	53.69238
801.2866	53.51883
801.4334	51.28076
801.5803	55.64337
801.7272	50.77458
801.874	48.50246
802.0209	48.9473
802.1677	52.02879
802.3145	50.72012
802.4613	52.04561
802.6081	51.5111
802.7549	49.67171
802.9017	49.74808
803.0485	53.12033
803.1952	47.72229
803.342	47.98348
803.4887	47.85837
803.6354	45.39723
803.7822	52.01217
803.9289	50.95852
804.0756	46.63086
804.2223	53.44835
804.369	53.44228
804.5156	45.2846
804.6623	46.84748
804.8089	48.43622
804.9556	51.20043
805.1022	52.83142
805.2488	49.75568
805.3954	47.24567
805.542	45.32161
805.6886	49.21932
805.8352	48.47812
805.9818	45.41696
806.1283	53.11096
806.2749	52.94875
806.4214	48.72584
806.5679	50.03069
806.7145	49.7267
806.861	54.41141
807.0074	52.49951
807.154	49.47475
807.3004	47.58394
807.4469	47.45541
807.5934	49.01996
807.7398	51.0056
807.8862	48.05946
808.0327	48.76945
808.1791	48.87592
808.3255	47.58735
808.4719	45.57848
808.6183	48.50951
808.7647	47.51047
808.9111	46.63614
809.0574	45.41943
809.2037	47.89057
809.3501	47.73858
809.4965	47.84969
809.6428	45.8048
809.7891	47.32512
809.9354	44.40617
810.0817	46.73777
810.2279	45.43331
810.3742	46.78996
810.5204	45.4976
810.6667	44.74859
810.8129	42.84976
810.9592	43.75112
811.1054	45.37376
811.2516	48.78609
811.3978	44.98709
811.5439	48.69175
811.6901	46.37422
811.8363	41.11049
811.9825	49.52366
812.1286	42.62796
812.2748	45.28593
812.4209	41.83511
812.567	39.41851
812.7131	41.71293
812.8592	42.01932
813.0053	42.4592
813.1514	37.36158
813.2974	37.98465
813.4435	38.11442
813.5895	38.36207
813.7356	41.03706
813.8816	42.18134
814.0276	39.57328
814.1736	42.20137
814.3196	37.60374
814.4656	37.09568
814.6116	38.51643
814.7576	26.64632
814.9035	35.01216
815.0494	32.28102
815.1954	32.60527
815.3413	32.29393
815.4872	37.11422
815.6331	35.75599
815.779	35.78283
815.9249	36.49599
816.0707	34.96756
816.2166	25.90257
816.3625	29.72883
816.5083	33.7355
816.6542	32.63066
816.8	26.69574
816.9458	32.99591
817.0916	31.30416
817.2374	31.43068
817.3832	35.80073
817.5289	34.06063
817.6747	31.15022
817.8204	30.9417
817.9662	30.66552
818.1119	32.09154
818.2576	33.96628
818.4034	33.36335
818.5491	32.51009
818.6948	32.36966
818.8405	30.0788
818.9861	31.32236
819.1318	36.74863
819.2774	32.97023
819.423	34.65611
819.5687	40.18851
819.7143	33.92625
819.8599	30.38943
820.0055	28.481
820.1511	27.63107
820.2967	28.71438
820.4422	33.08867
820.5878	36.00821
820.7333	37.4166
820.8788	35.271
821.0244	35.47962
821.1699	32.54105
821.3154	32.91864
821.4609	35.71255
821.6064	35.56938
821.7519	35.03894
821.8973	37.25577
822.0428	35.07777
822.1882	28.49275
822.3337	29.84579
822.4791	31.3063
822.6245	31.56248
822.7699	29.86884
822.9153	21.0044
823.0607	22.77152
823.2061	23.77412
823.3514	25.79798
823.4968	27.62152
823.6422	29.69794
823.7875	32.19015
823.9328	34.50568
824.0781	33.34092
824.2234	31.9821
824.3687	31.80961
824.514	35.8428
824.6592	33.54034
824.8045	35.88744
824.9498	32.1953
825.095	34.79943
825.2402	32.44398
825.3854	31.66938
825.5306	29.34901
825.6758	29.99073
825.821	29.08347
825.9662	30.79073
826.1114	31.03217
826.2565	32.50143
826.4017	31.49581
826.5468	35.52092
826.692	35.55802
826.837	33.47302
826.9822	28.87885
827.1273	29.93302
827.2723	34.19975
827.4174	26.92456
827.5625	27.3604
827.7075	29.8095
827.8526	29.73313
827.9976	29.14286
828.1426	29.68216
828.2877	32.02292
828.4327	30.84341
828.5776	28.84031
828.7227	29.32398
828.8676	31.65788
829.0126	27.23884
829.1575	28.33605
829.3024	31.2388
829.4474	29.29346
829.5923	29.4701
829.7372	27.86927
829.8821	29.71801
830.027	29.14948
830.1719	28.8433
830.3168	30.32838
830.4616	26.33297
830.6064	28.54025
830.7513	29.57642
830.8961	27.2754
831.041	29.05785
831.1857	28.54917
831.3306	31.4939
831.4753	30.96981
831.6201	30.78644
831.7649	26.40737
831.9096	26.06918
832.0544	29.18799
832.1991	32.59729
832.3438	31.78331
832.4885	27.78394
832.6332	28.02037
832.778	28.69155
832.9226	30.05892
833.0673	24.21193
833.2119	25.75388
833.3566	30.2718
833.5012	28.44718
833.6459	29.66886
833.7905	29.99055
833.9351	30.4069
834.0797	27.25497
834.2243	29.15197
834.3688	31.51659
834.5134	27.44728
834.658	31.58151
834.8026	29.19946
834.9471	33.57769
835.0916	33.50331
835.2361	30.51356
835.3806	29.76725
835.5251	32.4404
835.6696	27.9108
835.8141	28.30009
835.9586	29.27561
836.103	28.75968
836.2474	29.4805
836.3918	31.61476
836.5363	31.59566
836.6807	34.224
836.8251	27.60715
836.9695	33.00122
837.1138	32.22477
837.2582	32.08569
837.4026	35.51394
837.5469	31.5824
837.6913	26.67337
837.8356	28.56852
837.9799	33.94675
838.1242	31.16947
838.2686	32.82547
838.4128	30.37326
838.5571	29.12757
838.7014	29.60064
838.8456	30.36058
838.9899	28.62181
839.1341	29.94939
839.2783	32.34943
839.4225	29.29732
839.5667	31.75714
839.7109	28.09967
839.8551	29.80009
839.9993	34.69847
840.1434	31.0958
840.2876	27.17437
840.4317	30.9051
840.5759	35.24706
840.72	27.79916
840.8641	29.62047
841.0082	31.42562
841.1523	30.97009
841.2963	29.88884
841.4404	30.46208
841.5845	28.30094
841.7285	28.8193
841.8726	31.50705
842.0165	28.33209
842.1606	31.38113
842.3046	27.71055
842.4485	28.58015
842.5925	28.95765
842.7365	28.1974
842.8805	33.44202
843.0244	29.25208
843.1684	25.21203
843.3123	26.90625
843.4562	30.04848
843.6002	30.40903
843.744	27.63488
843.8879	31.07041
844.0318	32.41947
844.1757	30.29343
844.3195	29.60358
844.4634	27.60825
844.6072	29.92143
844.751	30.51409
844.8948	30.44843
845.0386	33.97116
845.1824	30.71865
845.3262	33.00727
845.47	31.00995
845.6138	31.12599
845.7575	27.25215
845.9012	33.81144
846.045	26.32763
846.1887	21.89941
846.3324	28.40009
846.4761	31.00018
846.6198	26.17743
846.7635	27.47501
846.9071	29.12265
847.0508	26.75481
847.1944	27.64378
847.3381	29.44869
847.4817	32.41565
847.6253	28.11186
847.7689	26.5563
847.9125	22.70442
848.0561	24.34733
848.1996	29.87979
848.3432	28.57108
848.4868	27.76186
848.6303	31.52163
848.7738	28.12685
848.9174	29.46539
849.0609	27.8153
849.2043	24.93114
849.3478	26.73865
849.4913	22.45227
849.6348	25.04648
849.7782	23.52649
849.9217	20.5462
850.0651	26.53195
850.2086	24.18558
850.3519	31.60202
850.4954	26.82229
850.6387	28.59875
850.7821	32.844
850.9255	25.22607
851.0688	25.33484
851.2122	25.8401
851.3555	26.44541
851.4988	25.21831
851.6422	22.86872
851.7855	26.16489
851.9288	29.71376
852.0721	20.06507
852.2153	21.4633
852.3586	26.87544
852.5018	24.39696
852.6451	20.72192
852.7883	23.04381
852.9315	24.39645
853.0748	20.8035
853.218	21.83729
853.3611	24.82949
853.5043	28.11035
853.6475	28.08588
853.7906	18.34395
853.9338	20.43268
854.0769	19.17894
854.22	16.85937
854.3632	17.87152
854.5063	18.66747
854.6494	23.14687
854.7924	20.81202
854.9355	26.18913
855.0786	27.57038
855.2216	24.18322
855.3647	22.42437
855.5077	28.0799
855.6507	30.61453
855.7937	29.00431
855.9367	26.36045
856.0797	26.09358
856.2227	30.01384
856.3657	27.03393
856.5086	28.51492
856.6516	24.74191
856.7945	23.948
856.9374	19.76096
857.0803	22.5634
857.2232	19.52399
857.3661	22.94604
857.509	24.58944
857.6519	20.93881
857.7947	25.85676
857.9376	22.5869
858.0804	21.40136
858.2232	22.82478
858.366	25.52061
858.5089	24.94318
858.6516	24.3676
858.7944	26.88904
858.9372	23.16102
859.08	24.69682
859.2227	29.74192
859.3654	22.64236
859.5082	20.72533
859.6509	25.43949
859.7936	24.60727
859.9363	27.95487
860.079	20.61076
860.2217	20.73164
860.3643	21.47943
860.507	22.38382
860.6496	24.41359
860.7922	21.8305
860.9349	22.84541
861.0775	24.16503
861.2201	24.292
861.3627	17.69413
861.5052	21.72794
861.6478	22.99669
861.7904	25.0372
861.9329	21.9469
862.0755	24.03699
862.218	23.8947
862.3605	19.9604
862.503	18.21951
862.6455	19.57939
862.788	23.06025
862.9305	22.79287
863.0729	24.00738
863.2154	25.3079
863.3578	22.43048
863.5002	17.77248
863.6426	16.47976
863.7851	16.71592
863.9275	21.88598
864.0698	22.34082
864.2122	20.86595
864.3546	18.71391
864.4969	17.44906
864.6393	23.91309
864.7816	21.74199
864.924	20.8281
865.0662	26.08021
865.2086	24.04175
865.3508	23.5964
865.4931	20.23089
865.6354	18.34234
865.7776	24.04056
865.9199	20.33087
866.0621	18.12576
866.2043	18.98015
866.3466	18.32952
866.4888	20.82603
866.6309	19.8718
866.7731	21.22139
866.9153	19.0725
867.0574	19.45041
867.1996	21.9346
867.3417	20.4736
867.4839	23.24524
867.626	20.41333
867.7681	20.30872
867.9102	15.97835
868.0522	20.6751
868.1943	24.26857
868.3364	23.12537
868.4785	23.12931
868.6205	24.01846
868.7625	20.8411
868.9045	22.2641
869.0465	21.13007
869.1885	21.31742
869.3305	19.11029
869.4725	19.51492
869.6144	19.92742
869.7564	18.10396
869.8983	24.01552
870.0403	22.80454
870.1822	22.04181
870.3241	16.01663
870.466	23.48236
870.6079	23.80186
870.7498	20.48812
870.8916	20.15163
871.0335	17.09914
871.1754	19.9536
871.3171	14.58367
871.459	20.77079
871.6008	22.19309
871.7426	23.27744
871.8844	22.85424
872.0262	24.26079
872.1679	18.98467
872.3097	14.57364
872.4514	21.3206
872.5931	19.16243
872.7349	18.10034
872.8766	15.20843
873.0183	15.44575
873.16	16.21216
873.3017	16.48211
873.4434	18.97455
873.585	19.86874
873.7266	21.52706
873.8683	19.08795
874.0099	24.52823
874.1516	25.83094
874.2932	18.28755
874.4348	19.59468
874.5763	22.99402
874.7179	17.57455
874.8594	18.47789
875.001	19.82175
875.1425	14.0671
875.2841	18.38443
875.4256	15.7377
875.5671	19.47692
875.7086	19.30288
875.85	17.49212
875.9915	15.56718
876.133	18.92292
876.2744	21.42827
876.4159	22.59647
876.5573	18.55845
876.6987	18.78008
876.8401	24.39279
876.9815	22.6689
877.1229	17.7354
877.2643	17.17394
877.4056	17.9648
877.547	18.88938
877.6884	20.52257
877.8297	19.51117
877.971	19.69612
878.1123	23.05803
878.2536	18.825
878.3949	20.29749
878.5362	20.54958
878.6774	17.52068
878.8187	17.95623
878.9599	16.16546
879.1011	16.67917
879.2424	16.93151
879.3836	18.68787
879.5248	14.01686
879.666	18.9325
879.8071	17.91602
879.9483	18.63707
880.0895	18.1594
880.2306	17.76218
880.3718	17.97341
880.5129	17.4367
880.654	18.99621
880.7951	14.08577
880.9362	14.52822
881.0773	16.27915
881.2183	17.0755
881.3594	17.24706
881.5004	14.47723
881.6414	12.31372
881.7825	17.60272
881.9235	17.23571
882.0645	21.78647
882.2054	13.77781
882.3464	13.75609
882.4874	17.36048
882.6284	16.81203
882.7693	21.85242
882.9103	18.34973
883.0512	15.11616
883.1921	14.39485
883.333	18.19452
883.4739	13.02136
883.6147	17.08878
883.7556	17.76804
883.8965	20.23687
884.0374	18.15003
884.1782	21.83755
884.319	18.58062
884.4598	13.59605
884.6006	16.12537
884.7414	19.50686
884.8822	12.79036
885.0229	12.03213
885.1637	15.21021
885.3044	13.83633
885.4452	19.65686
885.5859	15.21065
885.7266	15.93465
885.8673	15.88048
886.008	16.15178
886.1487	15.45214
886.2894	15.77625
886.43	17.59722
886.5707	16.30183
886.7113	14.89021
886.8519	12.03182
886.9926	13.59657
887.1331	14.35054
887.2737	13.89871
887.4143	14.95585
887.5549	19.22303
887.6954	16.87153
887.836	17.47292
887.9765	16.65082
888.1171	12.10501
888.2576	12.43162
888.3981	12.85567
888.5386	12.07543
888.679	13.13132
888.8195	13.51899
888.96	14.23639
889.1004	13.80438
889.2408	17.27792
889.3813	16.39171
889.5217	18.18587
889.6621	20.43526
889.8025	17.20272
889.9429	20.75791
890.0833	13.37472
890.2236	13.76033
890.364	16.39735
890.5043	12.29823
890.6446	12.31898
890.7849	15.61576
890.9252	16.57338
891.0655	14.25447
891.2058	16.49705
891.3461	12.91248
891.4863	17.22394
891.6266	17.19057
891.7668	12.79055
891.907	9.591097
892.0472	11.1745
892.1874	12.37001
892.3276	13.47487
892.4678	16.05471
892.608	18.89166
892.7481	20.75204
892.8883	12.83097
893.0284	12.78732
893.1685	9.961701
893.3087	8.192225
893.4487	11.07961
893.5889	18.26511
893.7289	18.69824
893.869	17.30769
894.009	13.02252
894.1491	15.71
894.2891	10.06546
894.4291	6.749869
894.5692	11.35358
894.7092	15.29077
894.8491	13.53533
894.9891	12.5213
895.1291	13.41578
895.269	14.85247
895.409	11.05043
895.549	13.39898
895.6888	9.880966
895.8288	13.03555
895.9687	15.03704
896.1086	11.89168
896.2484	9.66623
896.3883	8.677996
896.5281	8.640313
896.668	14.27627
896.8079	11.48147
896.9476	8.666724
897.0875	14.78021
897.2272	15.41973
897.3671	11.03704
897.5068	13.21892
897.6466	14.55462
897.7864	11.9137
897.9261	10.37313
898.0658	8.226164
898.2056	11.04025
898.3453	12.91514
898.4849	12.16821
898.6246	9.860702
898.7643	6.022905
898.904	5.514206
899.0436	6.901109
899.1833	6.792382
899.3229	9.195128
899.4625	15.82643
899.6021	13.78014
899.7417	12.77276
899.8813	10.25231
900.0209	11.14708
900.1605	10.5217
900.3	9.077231
900.4395	5.562675
900.579	10.83953
900.7186	12.08852
900.8581	8.969698
900.9976	7.238486
901.1371	8.459584
901.2766	9.041479
901.416	9.299958
901.5555	11.82657
901.6949	5.508555
901.8344	7.968217
901.9738	6.995041
902.1132	11.32636
902.2526	11.52972
902.3919	4.726949
902.5313	9.700198
902.6707	11.6129
