SPECTRUM DATA FILE
SpectrumCount:	1
PixelCount:	3648
UserName:	ToughBook User
SampleName:	
LightSource:	
Comments:	
DeviceName:	Qwave
DeviceManufacturer:	Broadcom
DeviceSerialNo:	11311

Name:	last spectrum
Date:	2024-05-02T15:06:47.2397461+02:00
ExposureTime:	0.02
TemporalAvg:	1
IntensityUnit:	normalizedCounts
CCDLoadLevel:	0.02203952
Temperature:	28.27905
DiagramColor:	200
ProcessingSteps:	335

Wavelength [nm]	Intensity1
334.421	1.902985
334.5891	3.463141
334.7573	2.185892
334.9254	5.348006
335.0935	3.585108
335.2616	7.354944
335.4297	4.226556
335.5978	4.59899
335.7659	3.449059
335.934	0.584461
336.1021	3.699014
336.2701	0.9097369
336.4382	2.036492
336.6063	1.278274
336.7744	7.205175
336.9424	3.877446
337.1105	6.309947
337.2785	5.47048
337.4466	4.961478
337.6146	1.98001
337.7827	2.928854
337.9507	6.886834
338.1187	2.549058
338.2867	-1.078116
338.4548	4.433561
338.6228	5.590177
338.7908	1.427671
338.9588	6.972921
339.1268	-0.8894697
339.2948	3.285617
339.4628	4.207646
339.6308	4.584563
339.7988	4.355266
339.9667	5.15746
340.1347	5.916232
340.3027	5.781196
340.4707	3.468677
340.6386	1.946197
340.8066	1.906713
340.9745	4.811012
341.1425	5.022304
341.3104	3.209191
341.4784	5.437535
341.6463	1.592813
341.8142	2.684597
341.9821	-0.7269341
342.1501	4.300118
342.318	4.095252
342.4859	4.145345
342.6538	5.523594
342.8217	0.3298578
342.9896	1.923491
343.1575	6.436208
343.3254	7.026885
343.4933	6.476231
343.6612	6.29511
343.829	4.658555
343.9969	6.221224
344.1648	5.066003
344.3326	3.880861
344.5005	4.681082
344.6683	3.959398
344.8362	1.350923
345.004	-0.1139927
345.1719	8.530036
345.3397	4.641984
345.5075	4.610927
345.6754	-0.2765726
345.8432	2.804236
346.011	4.369552
346.1788	5.603224
346.3466	4.579237
346.5144	7.821629
346.6822	7.862275
346.85	8.587543
347.0178	2.500465
347.1856	2.297216
347.3534	3.325347
347.5211	4.22285
347.6889	5.425048
347.8567	5.867977
348.0244	2.22048
348.1922	3.130122
348.3599	9.252913
348.5277	4.913054
348.6954	7.535184
348.8632	5.063171
349.0309	4.223257
349.1986	3.545994
349.3663	4.852675
349.5341	9.737466
349.7018	6.918458
349.8695	7.699705
350.0372	9.326643
350.2049	2.006253
350.3726	0.3513059
350.5403	5.775894
350.7079	7.855033
350.8756	7.625177
351.0433	5.512696
351.211	5.612847
351.3786	4.274895
351.5463	1.993056
351.714	3.748698
351.8816	5.019726
352.0493	5.318388
352.2169	5.355391
352.3846	6.986762
352.5522	6.784741
352.7198	5.343045
352.8875	6.024768
353.0551	7.998994
353.2227	10.24776
353.3903	6.175545
353.5579	5.49739
353.7255	6.665746
353.8931	5.12152
354.0607	3.838699
354.2283	7.478443
354.3958	6.82351
354.5634	6.626247
354.731	5.112197
354.8986	6.658923
355.0661	3.07892
355.2337	9.198639
355.4012	10.45051
355.5688	6.5053
355.7363	6.580359
355.9039	5.893625
356.0714	6.183634
356.239	6.473814
356.4065	4.951589
356.574	6.067871
356.7415	1.684379
356.909	3.767791
357.0765	5.128881
357.244	6.940587
357.4115	5.062245
357.579	8.586246
357.7465	6.425838
357.914	0.3716753
358.0815	-0.5409729
358.249	5.013011
358.4164	4.534105
358.5839	5.550186
358.7513	6.810246
358.9188	2.760325
359.0862	5.268615
359.2537	5.995028
359.4211	3.63077
359.5886	4.695934
359.756	3.087972
359.9234	7.427611
360.0909	5.90584
360.2583	2.883565
360.4257	1.414092
360.5931	3.809745
360.7605	7.85402
360.9279	6.629011
361.0953	5.457088
361.2627	7.616653
361.4301	5.253253
361.5974	5.237075
361.7648	5.26413
361.9322	1.255653
362.0995	0.1895569
362.2669	3.650191
362.4343	5.087853
362.6016	5.387763
362.769	5.942721
362.9363	10.11478
363.1036	7.660227
363.271	6.051353
363.4383	5.081391
363.6056	-0.9146668
363.7729	4.079946
363.9402	9.675247
364.1075	8.439125
364.2748	11.15591
364.4421	4.991582
364.6094	5.716046
364.7767	6.396662
364.944	7.821249
365.1113	5.801981
365.2786	7.293607
365.4458	7.349381
365.6131	9.840137
365.7803	5.999379
365.9476	5.545338
366.1148	8.314857
366.2821	2.890296
366.4493	2.3062
366.6166	7.912796
366.7838	5.982013
366.951	5.914946
367.1182	6.569246
367.2855	6.661342
367.4527	5.397572
367.6199	6.599522
367.7871	2.653241
367.9543	6.245326
368.1215	3.840121
368.2886	3.127298
368.4558	4.300973
368.623	6.53055
368.7902	5.382193
368.9573	3.396788
369.1245	3.951513
369.2917	3.992171
369.4588	7.399533
369.6259	4.294326
369.7931	3.912004
369.9602	7.751743
370.1274	5.23323
370.2945	5.610641
370.4616	1.176975
370.6287	8.751973
370.7958	6.146592
370.963	5.788997
371.1301	5.486533
371.2971	6.411065
371.4643	4.844829
371.6313	4.013015
371.7984	5.783374
371.9655	6.799414
372.1326	8.403515
372.2997	3.740546
372.4667	9.606996
372.6338	9.96691
372.8008	8.024951
372.9679	11.50042
373.1349	9.82916
373.3019	8.891538
373.469	3.557758
373.636	6.494539
373.803	2.567991
373.9701	6.144063
374.1371	4.666601
374.3041	8.514309
374.4711	9.126441
374.6381	13.32938
374.8051	4.270859
374.9721	5.221699
375.1391	3.531354
375.3061	5.393868
375.473	8.537025
375.64	7.048855
375.8069	6.893517
375.9739	6.663974
376.1409	9.587476
376.3078	7.265739
376.4748	5.190876
376.6417	6.350852
376.8087	8.058201
376.9756	7.329706
377.1425	7.408046
377.3094	10.02567
377.4763	7.616941
377.6432	7.963324
377.8102	10.18053
377.9771	8.67526
378.144	9.351891
378.3109	7.767647
378.4777	5.984634
378.6446	3.332664
378.8115	7.042141
378.9784	7.875581
379.1452	6.236182
379.3121	5.935056
379.4789	8.128121
379.6458	6.75973
379.8127	7.405959
379.9795	5.303507
380.1463	6.525318
380.3131	4.390194
380.48	5.873388
380.6468	6.425035
380.8136	9.046442
380.9804	6.883862
381.1472	6.973126
381.314	13.59178
381.4808	5.26549
381.6476	5.313836
381.8144	6.315577
381.9812	5.767743
382.148	8.582835
382.3147	10.62768
382.4815	7.976404
382.6483	3.532013
382.815	5.391776
382.9818	6.673333
383.1485	9.728469
383.3153	7.063111
383.482	8.564685
383.6487	6.54112
383.8155	9.578114
383.9822	3.687529
384.1489	4.812507
384.3156	6.973163
384.4823	6.071559
384.649	7.087969
384.8157	9.088562
384.9824	10.60926
385.1491	3.103811
385.3158	5.405872
385.4825	6.391613
385.6491	5.743421
385.8158	10.6237
385.9825	7.939615
386.1491	5.142973
386.3157	3.498286
386.4824	9.086108
386.649	4.647932
386.8157	7.851164
386.9823	4.761923
387.1489	7.544246
387.3156	4.765394
387.4821	15.1617
387.6488	12.33103
387.8154	5.009343
387.982	6.698277
388.1486	6.75175
388.3152	6.5703
388.4818	9.233307
388.6483	7.584801
388.8149	6.76158
388.9815	5.893211
389.148	8.108278
389.3146	7.685368
389.4811	6.845979
389.6477	12.73314
389.8142	9.027951
389.9808	8.515826
390.1473	8.128761
390.3138	8.156658
390.4804	6.949034
390.6469	9.143116
390.8134	11.94367
390.9799	9.592092
391.1464	5.077264
391.3129	10.28733
391.4794	4.651517
391.6459	10.05944
391.8124	8.798779
391.9789	7.202051
392.1453	8.215597
392.3118	13.68297
392.4782	13.49039
392.6447	6.70417
392.8112	8.055085
392.9776	5.510526
393.144	9.183788
393.3105	9.055443
393.4769	8.445662
393.6433	10.98259
393.8098	12.95382
393.9762	9.132627
394.1426	10.70095
394.309	11.29393
394.4754	11.63095
394.6418	6.785787
394.8082	6.633842
394.9746	10.73456
395.141	9.402297
395.3073	12.87738
395.4737	9.319576
395.64	9.709907
395.8064	10.88089
395.9728	10.40644
396.1391	7.070881
396.3055	12.6161
396.4718	11.94853
396.6381	9.626492
396.8045	6.55016
396.9708	7.296187
397.1371	8.067532
397.3034	5.818858
397.4697	13.85074
397.636	10.72346
397.8023	10.82081
397.9686	11.02656
398.1349	10.09225
398.3012	3.076946
398.4675	11.90838
398.6337	9.210559
398.8	7.65283
398.9662	5.183077
399.1325	12.16423
399.2988	12.42465
399.465	16.36542
399.6313	14.73632
399.7975	10.52525
399.9637	13.99535
400.1299	10.6635
400.2961	16.92245
400.4624	13.69791
400.6286	10.16513
400.7948	11.98399
400.961	13.95238
401.1272	12.32807
401.2934	13.03448
401.4595	11.221
401.6257	14.4252
401.7919	14.74411
401.9581	9.242033
402.1242	13.48516
402.2904	13.37308
402.4565	12.80826
402.6227	11.51627
402.7888	12.84139
402.955	8.305749
403.1211	10.42237
403.2872	12.3224
403.4533	12.26149
403.6194	11.13402
403.7856	15.09822
403.9517	14.49048
404.1177	13.42964
404.2838	13.83659
404.4499	13.61654
404.616	11.37632
404.7821	13.97042
404.9482	10.38685
405.1142	16.01721
405.2803	13.78492
405.4464	10.19918
405.6124	11.32671
405.7784	11.01867
405.9445	11.74088
406.1105	12.21747
406.2766	11.55506
406.4426	11.29424
406.6086	9.82515
406.7746	12.52184
406.9406	14.84208
407.1066	13.1585
407.2726	15.25307
407.4386	12.67295
407.6046	14.84583
407.7706	14.31924
407.9366	13.03301
408.1025	19.70229
408.2685	12.83785
408.4344	16.60113
408.6004	14.43875
408.7664	15.25937
408.9323	15.09834
409.0983	14.35846
409.2642	16.66026
409.4301	17.64781
409.596	16.16979
409.762	12.4906
409.9279	13.47215
410.0938	8.746932
410.2597	14.72704
410.4256	18.17787
410.5915	17.81045
410.7574	12.6212
410.9232	16.31955
411.0891	14.02
411.255	14.21053
411.4209	17.22763
411.5867	15.31521
411.7526	12.99461
411.9184	15.17948
412.0843	17.49485
412.2501	14.92091
412.4159	19.06121
412.5818	17.75952
412.7476	15.2981
412.9134	12.22105
413.0792	12.7941
413.245	16.3494
413.4108	18.04397
413.5766	16.98243
413.7424	20.81
413.9082	19.02628
414.074	13.77399
414.2397	14.73534
414.4055	15.47302
414.5713	18.80251
414.737	16.0092
414.9028	13.15449
415.0685	14.27289
415.2343	13.82634
415.4	15.09109
415.5658	19.83504
415.7315	19.14901
415.8972	19.98397
416.0629	18.94412
416.2286	15.3279
416.3943	15.26694
416.56	18.77138
416.7257	16.04895
416.8914	15.42131
417.0571	12.3684
417.2228	17.42989
417.3884	20.3018
417.5541	12.15874
417.7198	14.26999
417.8854	15.42375
418.0511	16.85855
418.2167	11.28374
418.3824	10.46872
418.548	13.62074
418.7136	16.21058
418.8792	13.23925
419.0449	15.46292
419.2105	13.12055
419.3761	13.81984
419.5417	15.40357
419.7073	16.29234
419.8729	15.82195
420.0385	16.71588
420.204	21.70889
420.3696	15.65772
420.5352	22.21247
420.7007	20.803
420.8663	14.73063
421.0319	16.49133
421.1974	23.24457
421.3629	16.66007
421.5285	20.50169
421.694	20.04501
421.8595	19.89223
422.0251	20.33232
422.1906	15.5881
422.3561	16.89338
422.5216	16.66729
422.6871	17.46101
422.8526	23.38549
423.0181	16.15146
423.1835	17.41106
423.349	18.29803
423.5145	17.39729
423.68	19.10974
423.8454	17.4191
424.0109	21.36521
424.1763	24.11535
424.3418	22.86496
424.5072	19.77926
424.6726	16.54231
424.838	17.91228
425.0035	24.25357
425.1689	21.8228
425.3343	26.00347
425.4997	20.98567
425.6651	18.38459
425.8305	20.67666
425.9959	14.1112
426.1613	19.03032
426.3267	18.84454
426.492	18.91414
426.6574	17.29248
426.8228	22.57477
426.9881	19.73724
427.1534	20.45758
427.3188	25.24735
427.4841	19.25941
427.6495	21.73829
427.8148	26.4691
427.9801	25.31627
428.1454	18.41812
428.3107	21.54525
428.476	20.46696
428.6414	22.89022
428.8066	25.43624
428.9719	21.17274
429.1372	19.14335
429.3025	18.79048
429.4678	18.95172
429.633	19.05678
429.7983	17.49086
429.9636	14.61412
430.1288	14.75681
430.294	17.63824
430.4593	16.79576
430.6245	16.40394
430.7897	15.49493
430.955	14.54403
431.1202	14.64296
431.2854	17.70985
431.4506	19.47877
431.6158	22.32822
431.781	24.38544
431.9462	20.91758
432.1114	20.34455
432.2766	19.77421
432.4417	18.2716
432.6069	16.6414
432.772	19.53379
432.9372	20.13282
433.1024	23.70499
433.2675	27.9706
433.4326	22.65139
433.5977	22.01483
433.7629	20.63747
433.928	23.10571
434.0931	19.18316
434.2582	21.37314
434.4233	16.70656
434.5884	19.72506
434.7535	23.92307
434.9186	24.6711
435.0837	20.86536
435.2488	20.68915
435.4138	20.53074
435.5789	21.81904
435.744	22.09178
435.909	23.41283
436.0741	29.74717
436.2391	24.88495
436.4042	28.47484
436.5692	25.23072
436.7342	24.14909
436.8992	25.90669
437.0643	25.13908
437.2293	26.59242
437.3943	25.35009
437.5593	22.21035
437.7243	25.18831
437.8893	28.74548
438.0542	22.171
438.2192	18.75138
438.3842	18.25126
438.5491	23.10241
438.7141	24.96219
438.8791	27.20179
439.044	27.65298
439.209	24.94648
439.3739	27.50595
439.5388	24.32526
439.7037	27.2374
439.8687	28.21771
440.0336	25.31566
440.1985	28.56113
440.3634	22.24465
440.5283	25.29087
440.6932	25.15897
440.8581	19.27593
441.0229	28.20393
441.1878	31.72895
441.3527	27.46347
441.5175	22.38869
441.6824	22.18164
441.8472	28.33386
442.0121	24.87568
442.1769	26.19578
442.3418	30.13904
442.5066	27.80622
442.6714	26.6169
442.8362	22.81287
443.001	28.10969
443.1659	31.8859
443.3307	24.0674
443.4955	27.29233
443.6602	31.22144
443.825	31.24448
443.9898	29.9216
444.1546	30.19903
444.3193	25.59911
444.4841	29.6739
444.6488	26.51795
444.8136	28.33412
444.9783	32.66121
445.1431	35.39071
445.3078	28.37143
445.4725	23.67561
445.6372	25.08561
445.802	26.33089
445.9667	24.43677
446.1314	24.2587
446.2961	26.44619
446.4608	24.76808
446.6255	29.63196
446.7901	27.34282
446.9548	23.8383
447.1195	26.66427
447.2841	27.23992
447.4488	26.93733
447.6134	28.44634
447.7781	29.77391
447.9427	33.27215
448.1074	27.27306
448.272	27.36715
448.4366	24.75185
448.6012	24.22385
448.7658	27.83682
448.9305	32.9121
449.095	27.31924
449.2596	25.6304
449.4242	29.86482
449.5888	29.31102
449.7534	29.84881
449.9179	29.04517
450.0825	28.4881
450.2471	26.79993
450.4116	29.62727
450.5762	32.29033
450.7407	30.60452
450.9052	36.36125
451.0698	34.6402
451.2343	27.01468
451.3988	28.68283
451.5633	30.17885
451.7278	27.23386
451.8923	27.35117
452.0568	30.34992
452.2213	33.87529
452.3858	30.99213
452.5503	26.99546
452.7148	31.42684
452.8792	27.14642
453.0437	26.74678
453.2081	31.44378
453.3726	32.12765
453.537	30.98341
453.7015	29.57326
453.8659	32.41538
454.0303	31.74468
454.1947	28.93945
454.3592	31.14111
454.5236	29.89882
454.688	27.81915
454.8524	33.727
455.0168	31.15857
455.1811	29.56015
455.3455	27.69118
455.5099	32.1987
455.6743	34.35977
455.8386	33.3811
456.003	35.16608
456.1673	29.37647
456.3317	31.20491
456.496	31.9437
456.6603	29.14636
456.8246	30.24756
456.989	36.81321
457.1533	33.58278
457.3176	33.36442
457.4819	34.63352
457.6462	34.41887
457.8105	29.39843
457.9748	31.53766
458.1391	35.80504
458.3033	35.10563
458.4676	31.65108
458.6319	33.90366
458.7961	34.15595
458.9604	30.81307
459.1246	32.41953
459.2888	31.87097
459.4531	33.69836
459.6173	34.53084
459.7815	35.45494
459.9457	32.063
460.11	33.99578
460.2741	30.08324
460.4384	33.43009
460.6025	36.11289
460.7667	34.5349
460.9309	34.12619
461.0951	36.57439
461.2592	32.70651
461.4234	35.20056
461.5876	34.78478
461.7517	34.37772
461.9159	38.25684
462.08	34.58631
462.2441	34.18535
462.4082	36.13123
462.5724	31.03744
462.7365	32.67384
462.9006	30.70627
463.0647	35.07914
463.2288	30.79582
463.3929	34.53346
463.557	31.66833
463.721	35.24547
463.8851	35.31844
464.0492	31.20881
464.2132	30.69269
464.3773	30.78235
464.5414	31.38607
464.7054	32.74122
464.8694	34.58514
465.0334	36.79249
465.1975	30.24299
465.3615	32.91124
465.5255	27.20045
465.6895	37.9353
465.8535	33.77856
466.0175	35.81277
466.1815	37.81413
466.3455	35.09977
466.5095	31.07029
466.6734	30.82823
466.8374	29.54513
467.0014	28.73151
467.1653	36.08995
467.3293	34.75542
467.4932	35.41049
467.6571	35.40804
467.8211	35.26675
467.985	32.82691
468.1489	34.92656
468.3128	32.69743
468.4767	33.04527
468.6406	33.94086
468.8045	33.60274
468.9684	33.83615
469.1323	35.94137
469.2962	34.02993
469.46	32.87718
469.6239	32.94032
469.7878	34.67316
469.9516	37.08458
470.1154	35.29606
470.2793	35.76811
470.4431	33.87481
470.607	35.27636
470.7708	37.63753
470.9346	32.14523
471.0984	35.41552
471.2622	38.99239
471.426	32.98444
471.5898	34.51966
471.7536	36.29033
471.9174	42.13276
472.0811	37.9669
472.2449	34.9869
472.4087	34.72105
472.5724	29.24368
472.7362	32.81892
472.8999	27.98064
473.0637	32.74365
473.2274	39.70497
473.3911	35.43327
473.5548	36.66265
473.7185	38.91129
473.8822	38.40407
474.0459	34.50613
474.2096	37.76497
474.3733	32.7619
474.537	36.54278
474.7007	36.75442
474.8643	37.52541
475.028	38.6128
475.1917	36.22059
475.3553	33.31058
475.519	38.83823
475.6826	34.22049
475.8463	30.88054
476.0099	38.35597
476.1735	35.8083
476.3371	32.87723
476.5007	33.92774
476.6643	38.63816
476.8279	37.40891
476.9915	37.59137
477.1551	37.7635
477.3187	37.85825
477.4823	41.0815
477.6458	36.81412
477.8094	30.31036
477.9729	36.14761
478.1365	41.51604
478.3	37.74144
478.4636	37.78042
478.6271	35.07303
478.7906	36.22049
478.9541	38.25956
479.1176	34.98737
479.2812	36.85567
479.4447	39.76886
479.6082	36.84885
479.7716	32.99195
479.9351	34.58504
480.0986	34.91479
480.2621	38.68508
480.4255	39.63673
480.589	37.57712
480.7524	36.41404
480.9159	32.10618
481.0793	31.45381
481.2428	39.13746
481.4062	36.43121
481.5696	37.2494
481.733	36.00112
481.8964	33.27592
482.0598	39.73581
482.2232	39.33302
482.3866	33.21229
482.55	35.67661
482.7134	37.55746
482.8768	36.70205
483.0401	37.99682
483.2035	37.30786
483.3668	39.49953
483.5302	37.65361
483.6935	36.61863
483.8568	38.06297
484.0202	35.60615
484.1835	32.79644
484.3468	35.3586
484.5101	32.031
484.6734	32.41962
484.8367	37.03424
485	36.0406
485.1633	32.55591
485.3266	36.17755
485.4899	34.17752
485.6531	33.15461
485.8164	30.71888
485.9796	27.70486
486.1429	27.27797
486.3061	29.15034
486.4694	35.84531
486.6326	32.86638
486.7958	32.0617
486.959	35.72379
487.1223	34.60036
487.2855	36.45416
487.4486	35.64191
487.6118	34.27765
487.775	37.55568
487.9382	29.69903
488.1014	34.71155
488.2646	36.62903
488.4277	36.91373
488.5909	35.73954
488.754	36.92008
488.9171	34.28611
489.0803	35.9282
489.2434	34.17542
489.4066	39.70447
489.5697	40.48821
489.7328	42.36357
489.8959	38.78606
490.059	36.86188
490.2221	39.65877
490.3852	40.35175
490.5482	38.01543
490.7113	39.587
490.8744	37.73985
491.0374	37.72844
491.2005	37.46622
491.3636	41.88466
491.5266	37.57178
491.6896	35.57915
491.8527	38.32143
492.0157	38.45687
492.1787	37.71129
492.3417	35.04528
492.5047	34.07175
492.6677	41.9237
492.8307	38.29694
492.9937	44.12975
493.1567	39.46264
493.3196	38.15157
493.4826	38.39862
493.6456	37.84228
493.8085	37.94261
493.9715	39.87458
494.1344	41.48061
494.2974	39.72587
494.4603	39.06146
494.6232	41.90497
494.7861	43.27957
494.949	44.11016
495.1119	35.92033
495.2748	40.52897
495.4377	38.89609
495.6006	40.73545
495.7635	42.08985
495.9264	35.04121
496.0892	36.99342
496.2521	38.25847
496.4149	39.01783
496.5778	41.5176
496.7407	44.38166
496.9035	39.49598
497.0663	42.6095
497.2291	41.92455
497.3919	43.09744
497.5547	43.12276
497.7176	39.82478
497.8804	38.52959
498.0432	39.17043
498.2059	43.45282
498.3687	34.59553
498.5315	33.42537
498.6942	38.74667
498.857	41.94884
499.0198	41.97294
499.1825	36.04778
499.3452	39.64062
499.508	39.7491
499.6707	42.12812
499.8334	39.8577
499.9962	40.09519
500.1589	42.17546
500.3216	40.54264
500.4843	38.43074
500.6469	39.40633
500.8096	35.71487
500.9723	37.37568
501.135	40.67362
501.2976	32.87262
501.4603	37.85618
501.623	40.78485
501.7856	44.10863
501.9482	42.9895
502.1109	44.36642
502.2735	41.80535
502.4361	40.97271
502.5987	41.18834
502.7614	39.67569
502.924	40.68306
503.0865	39.97066
503.2491	45.37499
503.4117	44.7311
503.5743	42.33545
503.7368	39.70293
503.8994	41.51109
504.062	36.20854
504.2245	40.19584
504.3871	41.44934
504.5496	42.30115
504.7121	43.90155
504.8746	43.71487
505.0372	40.28788
505.1997	37.30722
505.3622	37.62277
505.5247	43.2627
505.6872	38.48812
505.8497	43.95715
506.0121	42.43696
506.1746	42.68835
506.3371	39.509
506.4995	41.7585
506.662	46.27884
506.8244	44.74435
506.9869	43.39861
507.1493	42.53511
507.3117	41.42253
507.4742	39.7345
507.6366	40.17738
507.799	42.10255
507.9614	38.44365
508.1238	46.00054
508.2862	47.02658
508.4485	48.60405
508.6109	42.72819
508.7733	42.14017
508.9357	46.80867
509.098	44.17223
509.2604	46.88335
509.4227	49.00602
509.5851	46.12396
509.7474	44.26062
509.9097	42.30775
510.072	43.71027
510.2343	47.32084
510.3966	46.71282
510.5589	47.36574
510.7212	45.03527
510.8835	45.50352
511.0458	43.10087
511.2081	48.18647
511.3703	47.47621
511.5326	47.55972
511.6949	48.22208
511.8571	52.08567
512.0193	50.39593
512.1816	50.87474
512.3438	49.93053
512.506	46.87386
512.6682	47.11787
512.8304	44.24598
512.9926	43.66643
513.1548	49.72247
513.317	41.73404
513.4792	49.13858
513.6414	48.59927
513.8035	48.72793
513.9657	45.62586
514.1279	44.89127
514.29	50.00351
514.4521	45.78634
514.6143	50.77658
514.7764	53.84199
514.9385	51.01368
515.1006	48.58671
515.2628	49.46418
515.4249	45.7269
515.587	50.91291
515.7491	47.94906
515.9111	50.07753
516.0732	48.59909
516.2353	49.20496
516.3973	50.14283
516.5594	49.08855
516.7214	48.34607
516.8835	45.60952
517.0455	43.47669
517.2076	49.62669
517.3696	47.51902
517.5316	51.89375
517.6937	56.24073
517.8557	55.27422
518.0176	51.25565
518.1796	53.01518
518.3416	47.9264
518.5036	53.39028
518.6656	49.01617
518.8275	52.65974
518.9895	52.40725
519.1514	51.07022
519.3134	51.55607
519.4753	59.03758
519.6373	54.87369
519.7992	52.52323
519.9611	52.52528
520.123	58.74522
520.2849	51.25165
520.4468	54.60967
520.6087	57.0088
520.7706	55.02721
520.9325	53.71045
521.0944	54.0341
521.2562	60.3451
521.4181	59.73502
521.58	58.9988
521.7418	56.02658
521.9036	59.01019
522.0655	58.57833
522.2273	58.51168
522.3891	61.27881
522.551	63.1377
522.7128	57.84912
522.8746	55.50418
523.0363	60.84366
523.1981	62.25422
523.3599	58.24309
523.5217	61.78653
523.6835	64.11894
523.8452	65.66493
524.007	64.3482
524.1687	63.22992
524.3304	62.8959
524.4922	59.23515
524.6539	60.77379
524.8157	62.09895
524.9774	60.92267
525.1391	60.14759
525.3008	61.14478
525.4625	59.08127
525.6241	65.33797
525.7858	66.05815
525.9475	65.46048
526.1092	70.84586
526.2709	65.39773
526.4325	64.40161
526.5942	63.13411
526.7558	59.88559
526.9174	61.95832
527.079	65.35758
527.2407	63.46826
527.4023	64.62984
527.5639	67.81301
527.7255	60.05075
527.8871	61.97799
528.0487	68.80894
528.2103	73.25689
528.3718	67.6948
528.5334	65.08315
528.695	65.74627
528.8565	76.08034
529.0181	76.48617
529.1796	72.08349
529.3412	69.14053
529.5027	73.75225
529.6642	76.89494
529.8257	76.01059
529.9872	71.35173
530.1487	70.61359
530.3102	76.7772
530.4717	71.67598
530.6332	77.53232
530.7947	77.16853
530.9562	78.47546
531.1176	76.92204
531.2791	74.21796
531.4405	78.38969
531.6019	74.58624
531.7634	75.76832
531.9248	77.39671
532.0862	75.03735
532.2477	72.96513
532.4091	75.31269
532.5704	70.7235
532.7319	70.71132
532.8932	65.32352
533.0546	69.47084
533.216	76.0139
533.3774	72.99703
533.5388	74.9031
533.7001	77.99168
533.8615	84.19057
534.0228	72.40615
534.1841	66.35393
534.3455	73.09934
534.5068	68.85552
534.6681	73.06881
534.8293	75.13301
534.9907	72.44199
535.152	73.7655
535.3132	76.59234
535.4745	75.38963
535.6358	80.69496
535.7971	78.55081
535.9583	78.88859
536.1196	76.12772
536.2808	75.47925
536.4421	75.32618
536.6033	80.50634
536.7645	73.84557
536.9258	72.44895
537.087	70.71455
537.2482	72.76485
537.4094	76.4398
537.5706	80.01252
537.7318	80.87787
537.8929	80.11589
538.0541	76.29367
538.2153	82.79101
538.3764	78.92878
538.5376	73.70911
538.6987	76.50055
538.8599	83.02154
539.021	74.79942
539.1821	74.84521
539.3432	76.81713
539.5043	76.2046
539.6655	80.39808
539.8265	70.23421
539.9876	75.68426
540.1487	76.11118
540.3098	73.89931
540.4708	65.15937
540.6319	70.62569
540.793	69.44756
540.954	71.74203
541.1151	78.4694
541.2761	78.07391
541.4371	76.85169
541.5981	74.33363
541.7592	74.79918
541.9202	75.53437
542.0812	75.20918
542.2422	77.49915
542.4031	77.87398
542.5641	78.34147
542.7251	78.68434
542.886	77.29431
543.0471	71.84714
543.208	74.35238
543.369	75.40418
543.5298	75.59059
543.6908	76.17451
543.8517	72.45409
544.0126	78.23945
544.1736	82.51022
544.3345	75.22362
544.4954	75.87301
544.6563	77.67226
544.8171	70.7614
544.978	75.46658
545.1389	77.20222
545.2997	79.60783
545.4606	77.95769
545.6215	73.90796
545.7823	74.87654
545.9432	78.53537
546.104	80.46605
546.2648	78.06686
546.4256	71.45093
546.5864	75.43872
546.7473	77.00013
546.908	80.44325
547.0688	75.77811
547.2296	79.61378
547.3904	78.53054
547.5511	75.75735
547.7119	72.74506
547.8727	76.51035
548.0334	79.56834
548.1942	76.9864
548.3549	74.45231
548.5156	77.88824
548.6763	79.99979
548.837	78.41804
548.9977	71.76431
549.1584	76.1479
549.3192	74.87875
549.4798	77.6134
549.6405	72.04965
549.8011	70.97012
549.9619	72.20297
550.1225	73.94131
550.2831	73.9697
550.4438	75.28182
550.6044	73.36089
550.765	73.87086
550.9257	78.82087
551.0863	76.1039
551.2469	78.1634
551.4075	80.52882
551.5681	79.3559
551.7287	76.93723
551.8893	78.92076
552.0498	79.23808
552.2104	82.80303
552.371	78.9621
552.5315	74.08146
552.6921	73.20217
552.8526	75.60383
553.0131	71.55806
553.1736	76.66431
553.3342	75.05898
553.4947	82.54053
553.6552	83.53778
553.8157	78.80516
553.9762	77.53843
554.1367	78.20869
554.2971	71.6602
554.4576	68.51125
554.618	74.15942
554.7785	78.15973
554.939	73.15637
555.0994	79.53211
555.2598	80.7949
555.4203	75.32946
555.5807	72.62428
555.7411	73.70596
555.9015	74.01449
556.0619	73.4436
556.2223	73.5106
556.3827	72.93309
556.5431	79.51472
556.7034	76.55871
556.8638	75.37988
557.0242	71.1239
557.1845	79.38387
557.3448	70.83632
557.5052	71.12009
557.6655	71.79824
557.8259	75.57068
557.9861	73.14489
558.1465	73.71459
558.3068	77.36342
558.467	73.62107
558.6274	68.58475
558.7877	70.06708
558.9479	70.23
559.1082	72.03571
559.2684	64.32446
559.4287	61.92704
559.5889	72.65468
559.7491	73.51318
559.9094	69.63435
560.0696	71.05198
560.2299	62.23383
560.3901	61.13536
560.5502	71.90922
560.7104	78.87856
560.8707	70.88962
561.0308	69.09624
561.191	71.13867
561.3511	76.94688
561.5114	68.41793
561.6714	66.40045
561.8316	61.36011
561.9918	70.65702
562.1519	64.27467
562.312	68.09559
562.4722	71.14639
562.6323	72.15863
562.7924	70.52726
562.9525	70.79662
563.1125	69.25107
563.2726	66.59873
563.4327	69.49615
563.5928	69.42194
563.7528	68.82409
563.9129	67.10572
564.0729	66.18587
564.233	65.95325
564.393	69.23282
564.553	69.69078
564.7131	69.97309
564.873	69.48962
565.0331	76.55166
565.1931	71.33496
565.353	68.96314
565.5131	62.97993
565.673	64.94834
565.833	65.19469
565.9929	58.22668
566.1529	60.72069
566.3129	64.98917
566.4728	63.33332
566.6328	58.9898
566.7927	67.71864
566.9526	67.61043
567.1125	66.71499
567.2724	71.30351
567.4323	66.25295
567.5922	66.07757
567.7521	63.43921
567.9119	62.76772
568.0718	63.04975
568.2317	65.40902
568.3915	62.97613
568.5514	66.44362
568.7112	62.235
568.871	61.79718
569.0309	65.31062
569.1907	68.56049
569.3505	66.33532
569.5103	60.6644
569.6701	55.53356
569.8299	61.79628
569.9897	59.81596
570.1495	58.37514
570.3092	58.81404
570.469	60.10751
570.6287	61.99075
570.7885	60.84798
570.9482	59.73018
571.108	55.38133
571.2677	54.43516
571.4274	56.77059
571.5871	61.55224
571.7468	61.38924
571.9066	58.32272
572.0662	58.23201
572.2259	58.06293
572.3856	60.26499
572.5452	65.57662
572.7049	65.15823
572.8646	61.95187
573.0242	59.73967
573.1838	59.18671
573.3435	59.28676
573.5031	60.12949
573.6627	57.91446
573.8223	59.71575
573.9819	60.36171
574.1415	54.49274
574.3011	57.00028
574.4607	58.24403
574.6203	52.97987
574.7798	55.77986
574.9394	54.02747
575.099	63.10469
575.2585	58.65545
575.418	58.25623
575.5776	55.68573
575.7371	57.16307
575.8966	56.01394
576.0562	54.86572
576.2156	54.65344
576.3751	54.10606
576.5346	51.3458
576.6941	59.25134
576.8536	61.75193
577.0131	54.48808
577.1725	56.54822
577.332	53.15688
577.4914	54.09832
577.6508	56.76051
577.8103	55.16875
577.9697	58.41592
578.1291	57.58238
578.2885	56.65517
578.4479	51.69344
578.6073	58.75545
578.7667	53.66924
578.9261	54.52081
579.0854	55.43118
579.2448	52.9058
579.4042	51.69446
579.5635	51.78939
579.7229	57.24138
579.8822	54.38332
580.0416	53.4875
580.2009	52.72836
580.3602	50.9084
580.5195	53.19224
580.6788	56.51915
580.8381	58.28713
580.9974	55.86714
581.1566	54.71365
581.3159	56.48306
581.4752	57.15123
581.6345	50.41023
581.7937	50.86055
581.9529	59.36705
582.1122	53.91748
582.2714	50.01181
582.4306	54.68426
582.5898	55.06384
582.749	50.50867
582.9082	50.29305
583.0674	52.78353
583.2266	54.89227
583.3857	45.6097
583.5449	56.27066
583.7041	55.89447
583.8633	50.68063
584.0224	51.1053
584.1815	48.15088
584.3407	51.15701
584.4998	50.94577
584.6589	50.13346
584.818	52.23597
584.9771	58.70252
585.1362	48.776
585.2953	55.09261
585.4544	55.52594
585.6135	53.4748
585.7725	44.48721
585.9316	47.56969
586.0906	48.37237
586.2497	46.30896
586.4087	54.23245
586.5677	51.5264
586.7267	50.05626
586.8858	47.16175
587.0448	45.35603
587.2038	47.25882
587.3628	50.58533
587.5218	49.96469
587.6807	48.02873
587.8397	49.56174
587.9987	48.8523
588.1577	48.98484
588.3166	52.23743
588.4755	46.67319
588.6345	44.47656
588.7934	38.11723
588.9523	48.46357
589.1112	46.27114
589.2701	46.05789
589.429	47.73481
589.5879	45.45968
589.7468	47.19615
589.9056	51.11372
590.0645	50.7901
590.2234	47.36533
590.3822	49.31373
590.5411	47.65371
590.6999	50.24287
590.8588	43.50431
591.0176	46.69026
591.1764	48.41246
591.3352	48.53422
591.494	45.84149
591.6528	46.6737
591.8116	47.46834
591.9703	51.28523
592.1291	45.149
592.2878	45.25463
592.4467	47.80673
592.6053	42.43461
592.7641	46.91579
592.9229	51.40414
593.0816	47.13287
593.2403	44.21846
593.399	50.39272
593.5577	47.73757
593.7164	48.18423
593.8751	48.45173
594.0338	44.03044
594.1924	43.98468
594.3511	43.1981
594.5098	49.86297
594.6684	45.92127
594.8271	45.25362
594.9857	48.39532
595.1443	44.18193
595.303	46.52445
595.4615	50.398
595.6202	47.92931
595.7787	49.95356
595.9374	43.39005
596.0959	47.48066
596.2545	47.92676
596.4131	52.48697
596.5717	50.08614
596.7302	44.53677
596.8887	47.80887
597.0473	41.70182
597.2058	44.73994
597.3644	46.97438
597.5229	49.20869
597.6814	46.46125
597.8399	47.11748
597.9984	46.77102
598.1569	44.78561
598.3154	46.18067
598.4738	45.88633
598.6323	45.83434
598.7908	49.34173
598.9492	46.35329
599.1076	46.86762
599.2661	47.77569
599.4245	49.47603
599.5829	40.27253
599.7413	45.33064
599.8997	44.08507
600.0581	45.26665
600.2165	45.09441
600.3749	44.96338
600.5333	45.99373
600.6917	44.73037
600.85	46.14796
601.0084	41.29708
601.1667	45.7394
601.325	45.94374
601.4833	46.61613
601.6417	43.28382
601.8	41.08491
601.9583	43.51884
602.1166	46.62251
602.2749	47.44274
602.4332	42.46092
602.5914	44.18368
602.7498	45.17653
602.908	44.92506
603.0662	44.45621
603.2245	47.02577
603.3828	48.94749
603.541	43.72483
603.6992	48.13061
603.8574	48.10749
604.0156	43.99028
604.1738	51.18638
604.332	45.14101
604.4902	44.13546
604.6484	40.75672
604.8065	42.72068
604.9647	44.23168
605.1229	42.53254
605.281	38.8691
605.4391	47.60133
605.5973	47.77015
605.7554	45.13052
605.9135	41.38568
606.0717	44.53555
606.2297	42.55075
606.3878	45.86481
606.5459	45.50889
606.704	42.83311
606.8621	43.80929
607.0201	45.27798
607.1782	42.6553
607.3362	39.97506
607.4943	42.63224
607.6523	42.9758
607.8104	44.56364
607.9684	45.04597
608.1264	41.34837
608.2844	39.48418
608.4424	47.06861
608.6003	45.44197
608.7584	42.55767
608.9163	39.53946
609.0743	37.89378
609.2322	44.03594
609.3902	50.99542
609.5482	46.25228
609.7061	46.3634
609.864	45.59618
610.0219	41.69371
610.1798	38.03056
610.3377	38.50167
610.4956	41.17672
610.6535	43.24532
610.8114	45.43409
610.9693	38.56791
611.1271	42.82031
611.285	45.01006
611.4429	45.39677
611.6007	40.83406
611.7585	38.69651
611.9164	43.71645
612.0742	42.87759
612.232	41.50809
612.3898	40.69057
612.5476	39.46025
612.7054	41.41751
612.8632	41.50186
613.0209	37.79329
613.1787	34.94329
613.3365	38.19216
613.4942	42.26355
613.652	41.62953
613.8097	40.32647
613.9674	40.31232
614.1252	39.05977
614.2829	38.07027
614.4406	41.22048
614.5983	40.25837
614.756	40.35198
614.9136	38.63507
615.0714	38.07687
615.229	38.9542
615.3867	35.75367
615.5443	39.20159
615.702	38.88313
615.8596	36.87796
616.0172	34.62783
616.1748	32.64364
616.3325	37.37169
616.4901	42.112
616.6476	36.03369
616.8052	36.707
616.9628	38.93148
617.1204	35.16778
617.278	35.13047
617.4355	36.37382
617.5931	39.75126
617.7506	33.32922
617.9081	36.18723
618.0657	35.38363
618.2232	36.17135
618.3807	38.81334
618.5382	35.50123
618.6957	41.53624
618.8532	40.06352
619.0107	33.14611
619.1682	40.34715
619.3256	41.43116
619.4831	38.71574
619.6406	36.15465
619.798	39.66663
619.9554	35.85717
620.1129	36.82483
620.2703	45.08896
620.4277	37.4991
620.5851	36.16706
620.7425	35.99024
620.8998	37.75298
621.0573	36.77029
621.2146	38.46145
621.372	39.41427
621.5294	36.20971
621.6867	37.75829
621.8441	39.54702
622.0013	39.34444
622.1587	39.42071
622.316	37.89584
622.4733	35.45839
622.6306	39.04336
622.7879	38.54542
622.9452	42.62945
623.1025	38.35968
623.2598	33.82436
623.4171	31.60436
623.5743	37.76846
623.7316	33.1239
623.8888	34.47482
624.046	38.72952
624.2032	35.06388
624.3605	36.85861
624.5176	40.28566
624.6749	37.53046
624.8321	39.78701
624.9893	37.1754
625.1464	38.90737
625.3036	37.65095
625.4608	39.99173
625.6179	36.34664
625.7751	37.48024
625.9322	36.34104
626.0894	33.48014
626.2465	42.72193
626.4036	43.20045
626.5607	42.19016
626.7178	37.53752
626.8749	38.59484
627.032	38.37409
627.189	33.66599
627.3461	33.55207
627.5032	33.1922
627.6602	34.07118
627.8173	39.9143
627.9743	35.21571
628.1313	33.75056
628.2884	35.21743
628.4454	32.79246
628.6024	38.64753
628.7594	38.61126
628.9164	36.46833
629.0734	37.77808
629.2303	37.2052
629.3873	41.17691
629.5443	39.27905
629.7012	36.16853
629.8582	36.89994
630.0151	36.37563
630.172	41.82899
630.3289	38.76891
630.4858	36.97379
630.6428	36.64434
630.7996	38.23724
630.9565	37.96252
631.1134	36.99893
631.2703	36.54773
631.4272	35.26253
631.584	39.4318
631.7408	36.76495
631.8977	35.76968
632.0546	39.08798
632.2114	37.32615
632.3682	36.82121
632.525	33.86371
632.6818	35.90725
632.8386	34.70361
632.9954	34.32079
633.1522	31.60082
633.3089	36.3732
633.4657	39.38694
633.6224	40.21582
633.7792	37.94469
633.9359	34.3415
634.0927	38.31654
634.2494	31.25388
634.4061	34.78131
634.5628	39.6575
634.7195	35.4204
634.8762	39.9227
635.0329	35.38597
635.1895	37.80669
635.3462	34.56951
635.5029	34.94091
635.6595	32.48742
635.8162	37.03275
635.9728	35.22563
636.1295	35.29222
636.2861	34.55062
636.4427	35.4774
636.5992	33.69339
636.7559	39.84772
636.9124	36.37466
637.069	35.54536
637.2256	37.83704
637.3821	35.02826
637.5387	35.15427
637.6953	34.70839
637.8518	35.36504
638.0084	35.89481
638.1649	38.01834
638.3214	36.72707
638.4779	32.47669
638.6344	35.77213
638.7909	37.29585
638.9474	36.51908
639.1038	37.38715
639.2603	33.09891
639.4167	32.59496
639.5732	34.87041
639.7297	41.34477
639.8861	34.53795
640.0425	33.6501
640.199	29.6295
640.3553	34.37135
640.5118	34.84032
640.6682	31.71602
640.8245	34.19517
640.981	35.50756
641.1373	37.24433
641.2936	35.01349
641.45	32.04996
641.6064	34.63418
641.7627	36.09681
641.9191	36.05965
642.0754	34.7215
642.2317	35.57895
642.388	32.26463
642.5443	28.51178
642.7006	33.00478
642.8569	35.33107
643.0131	35.55714
643.1694	39.20184
643.3257	34.78239
643.4819	32.24694
643.6382	35.22552
643.7944	33.71457
643.9506	31.54786
644.1069	33.57617
644.2631	37.0257
644.4193	34.54241
644.5754	30.61369
644.7316	28.8737
644.8878	33.61429
645.044	38.04498
645.2002	31.53165
645.3563	35.22758
645.5125	34.19955
645.6686	30.14232
645.8248	32.05257
645.9809	33.10086
646.137	33.09793
646.2931	32.35139
646.4492	31.06803
646.6053	29.26476
646.7614	28.70591
646.9174	29.25269
647.0735	34.40482
647.2296	35.90763
647.3856	30.80966
647.5417	28.81703
647.6977	29.3903
647.8537	34.62887
648.0098	29.5648
648.1658	33.11629
648.3218	35.93913
648.4777	35.5327
648.6337	31.00517
648.7897	29.42141
648.9457	34.21633
649.1016	33.69515
649.2576	29.45647
649.4135	34.12275
649.5695	31.96725
649.7254	31.02734
649.8813	33.21738
650.0372	31.29234
650.1932	28.69337
650.3491	26.65079
650.5049	32.62323
650.6608	31.83072
650.8167	35.71063
650.9725	32.11948
651.1284	31.2867
651.2842	24.64746
651.4401	29.33025
651.5959	30.03573
651.7518	33.70721
651.9076	31.66028
652.0634	29.85431
652.2192	33.14699
652.3749	31.28966
652.5308	34.33603
652.6865	26.14162
652.8423	28.67121
652.998	36.14869
653.1538	31.10288
653.3096	28.56245
653.4653	29.2318
653.621	28.54487
653.7767	26.65808
653.9324	27.98122
654.0881	27.12154
654.2438	33.6833
654.3995	30.65469
654.5552	29.53307
654.7109	27.5174
654.8665	28.11231
655.0222	31.33012
655.1778	24.57961
655.3334	26.74623
655.4891	25.99117
655.6447	34.60281
655.8003	31.21515
655.9559	25.87568
656.1115	30.1279
656.2671	29.11744
656.4227	26.0785
656.5782	27.78011
656.7338	31.35182
656.8893	29.15646
657.0449	32.12507
657.2004	28.96785
657.356	29.68304
657.5115	30.58068
657.667	30.04064
657.8225	28.15656
657.978	28.66681
658.1335	25.48936
658.289	28.73238
658.4445	31.76326
658.5999	28.38137
658.7554	28.60015
658.9108	25.07638
659.0663	31.01822
659.2217	33.22924
659.3771	29.95763
659.5325	32.00697
659.6879	28.59325
659.8433	29.52987
659.9987	30.71865
660.1541	26.02211
660.3095	32.8922
660.4648	34.15761
660.6202	25.99739
660.7756	28.16841
660.9309	31.1995
661.0862	33.58406
661.2416	30.94008
661.3969	29.27395
661.5522	29.92413
661.7075	25.45212
661.8628	28.59251
662.0181	31.50126
662.1733	29.61383
662.3286	26.70751
662.4839	25.17051
662.6391	24.73045
662.7944	25.99884
662.9496	25.7687
663.1048	24.01398
663.26	29.39848
663.4152	22.55769
663.5704	30.84891
663.7256	26.70498
663.8808	30.06436
664.036	27.55075
664.1912	28.73906
664.3463	30.64806
664.5015	28.70864
664.6566	27.71469
664.8118	28.58934
664.9669	26.3684
665.122	25.98663
665.2771	31.04368
665.4322	29.84665
665.5873	24.99778
665.7424	28.39105
665.8975	27.6417
666.0526	26.76137
666.2076	30.88263
666.3627	25.41721
666.5177	22.9729
666.6727	22.11304
666.8278	25.98878
666.9828	28.29502
667.1378	29.09282
667.2928	28.49838
667.4478	29.07895
667.6028	24.14865
667.7578	24.14421
667.9127	28.89362
668.0677	27.66397
668.2226	29.97179
668.3776	26.08659
668.5325	24.33974
668.6874	24.36187
668.8423	25.96849
668.9973	28.02619
669.1522	27.48065
669.3071	25.58537
669.4619	24.81934
669.6168	25.48707
669.7717	25.02513
669.9265	25.51664
670.0814	21.28559
670.2362	22.12491
670.3911	23.76508
670.5459	24.24147
670.7007	23.8665
670.8555	27.21213
671.0103	25.65246
671.1651	22.61861
671.3199	23.10533
671.4747	24.56482
671.6295	27.795
671.7842	28.65064
671.939	24.33618
672.0937	25.16107
672.2484	26.72844
672.4031	27.40657
672.5579	29.03085
672.7126	29.96695
672.8673	26.99813
673.022	25.1433
673.1767	27.19269
673.3314	26.63941
673.486	25.17594
673.6407	25.71013
673.7953	26.02477
673.95	23.80452
674.1046	27.07092
674.2592	23.02905
674.4138	22.80942
674.5684	29.15374
674.723	26.14878
674.8776	29.93189
675.0322	29.73574
675.1868	27.67892
675.3414	25.01185
675.4959	27.29332
675.6505	26.82146
675.805	29.9849
675.9595	27.62861
676.1141	28.0756
676.2686	25.11256
676.4231	24.77148
676.5776	25.43994
676.7321	24.72809
676.8866	22.33002
677.041	24.5083
677.1955	27.21551
677.35	27.13877
677.5044	30.08954
677.6589	26.46992
677.8133	26.54431
677.9677	27.22543
678.1221	28.9986
678.2766	21.13047
678.4309	27.02728
678.5853	24.69479
678.7397	30.08751
678.8941	27.18995
679.0485	28.26183
679.2028	24.82302
679.3571	23.75076
679.5115	27.45302
679.6658	28.71471
679.8201	25.32957
679.9744	25.30021
680.1288	27.13102
680.2831	30.68899
680.4373	27.64178
680.5916	23.70154
680.7459	28.58706
680.9001	21.02129
681.0544	25.00452
681.2087	26.16682
681.3629	26.37257
681.5171	28.5372
681.6713	23.41531
681.8256	21.13703
681.9797	21.73275
682.134	24.38261
682.2881	27.72795
682.4423	25.35671
682.5965	20.51278
682.7507	20.54007
682.9048	23.6049
683.059	24.80001
683.2131	25.2635
683.3672	21.66673
683.5213	27.05396
683.6754	21.83605
683.8295	24.92171
683.9836	26.69541
684.1377	27.45116
684.2918	28.72597
684.4459	28.58319
684.5999	28.40918
684.754	25.10372
684.908	29.71265
685.062	26.6715
685.2161	23.24302
685.3701	24.4748
685.5241	22.87815
685.6781	22.4384
685.8321	20.42362
685.9861	20.60632
686.14	25.90267
686.294	24.66682
686.4479	27.94031
686.6019	28.42106
686.7559	27.86343
686.9098	18.58688
687.0637	23.2008
687.2176	22.88161
687.3715	24.60023
687.5254	27.59784
687.6793	24.20828
687.8332	24.63408
687.9871	24.17411
688.1409	23.34567
688.2947	29.59006
688.4486	29.0835
688.6024	22.15685
688.7563	25.35965
688.9101	27.31661
689.0639	27.28959
689.2177	20.53631
689.3715	27.22113
689.5253	30.06813
689.6791	23.56293
689.8328	27.82523
689.9866	27.26851
690.1403	29.03192
690.2941	23.88863
690.4478	25.93419
690.6015	25.21291
690.7552	30.21172
690.9089	26.56412
691.0626	27.52112
691.2164	27.6265
691.37	24.45613
691.5237	24.35148
691.6774	28.06868
691.831	28.24349
691.9847	29.3979
692.1383	28.46807
692.2919	27.97962
692.4456	21.61112
692.5992	27.36943
692.7527	25.13877
692.9064	28.07072
693.0599	29.00912
693.2136	30.14201
693.3671	31.00634
693.5207	29.97637
693.6742	21.93077
693.8278	27.7293
693.9813	25.76873
694.1348	24.31438
694.2883	22.83365
694.4418	24.49581
694.5953	24.58016
694.7488	22.69126
694.9023	27.81448
695.0558	25.669
695.2093	27.62724
695.3627	28.52188
695.5162	28.08834
695.6696	26.33015
695.8231	27.52613
695.9764	23.89849
696.1299	27.73708
696.2833	28.12515
696.4367	31.73668
696.5901	27.19822
696.7435	31.29826
696.8968	27.91736
697.0502	28.3049
697.2036	31.78747
697.3569	30.15938
697.5102	29.94279
697.6635	30.62789
697.8168	26.6599
697.9702	28.78918
698.1235	31.68249
698.2768	36.07066
698.4301	35.32586
698.5833	28.99226
698.7366	29.67224
698.8898	29.04624
699.0431	29.94531
699.1964	30.63648
699.3495	34.77072
699.5028	32.00499
699.656	27.77737
699.8092	24.60464
699.9624	27.89422
700.1156	30.16975
700.2688	32.57413
700.4219	31.62439
700.5751	27.40795
700.7283	33.81379
700.8814	35.82803
701.0345	35.91976
701.1877	32.81815
701.3408	33.20091
701.4939	31.10476
701.647	28.59323
701.8001	35.69704
701.9532	36.03634
702.1063	34.16595
702.2593	34.61566
702.4124	32.12397
702.5654	28.93864
702.7184	30.3468
702.8715	31.88821
703.0245	33.41764
703.1776	34.65162
703.3305	32.19608
703.4835	31.76964
703.6365	34.75002
703.7895	36.59282
703.9424	34.06249
704.0954	34.23569
704.2484	33.75686
704.4013	33.00936
704.5543	35.30524
704.7072	34.50517
704.8601	33.79342
705.013	33.94552
705.1659	35.83021
705.3188	37.07955
705.4717	34.0136
705.6246	30.97834
705.7774	35.41053
705.9303	37.29143
706.0831	40.35137
706.236	36.06863
706.3888	36.35141
706.5416	37.2218
706.6944	41.20866
706.8472	40.04692
707	35.97083
707.1528	37.59949
707.3056	33.34782
707.4583	34.82256
707.6111	35.61599
707.7639	35.18273
707.9166	34.71229
708.0693	35.63212
708.222	36.50437
708.3748	41.09431
708.5275	40.29681
708.6802	43.08331
708.8328	37.12813
708.9855	38.97694
709.1382	40.66209
709.2909	39.2013
709.4435	42.5112
709.5962	41.3258
709.7488	40.03704
709.9014	37.40852
710.054	41.52597
710.2067	40.26112
710.3593	44.28321
710.5118	45.43474
710.6644	39.47473
710.817	37.92036
710.9695	36.34337
711.1221	37.61224
711.2747	39.70817
711.4272	39.03416
711.5797	43.03481
711.7322	45.61852
711.8848	42.23227
712.0373	40.86908
712.1898	38.47672
712.3422	40.15622
712.4948	46.41759
712.6472	40.97032
712.7996	39.10299
712.9521	43.46931
713.1046	45.73439
713.257	42.8424
713.4094	42.81134
713.5618	46.70022
713.7142	46.81861
713.8666	42.68738
714.019	45.90605
714.1714	48.52265
714.3237	44.33439
714.4761	37.18321
714.6285	38.54451
714.7808	43.08037
714.9331	45.33092
715.0854	45.6224
715.2378	47.97308
715.3901	50.57766
715.5424	41.61874
715.6947	45.02674
715.8469	48.04443
715.9992	47.78531
716.1515	44.84985
716.3037	43.68813
716.456	42.20062
716.6082	43.58685
716.7604	43.08908
716.9127	39.9556
717.0649	36.17542
717.2171	38.21241
717.3693	43.40151
717.5214	39.33661
717.6736	45.68915
717.8258	45.74802
717.978	45.21853
718.1301	43.26027
718.2822	41.86319
718.4344	41.19426
718.5865	44.35011
718.7386	44.62302
718.8907	42.31791
719.0428	39.66687
719.1949	37.0126
719.3469	39.17599
719.499	44.08561
719.6511	44.41948
719.8031	40.15284
719.9551	42.79676
720.1072	45.74556
720.2592	41.03053
720.4112	44.26704
720.5632	44.19176
720.7152	42.33622
720.8672	45.92058
721.0192	52.32174
721.1711	51.10987
721.3231	49.88253
721.475	51.1339
721.627	53.61868
721.7789	55.16768
721.9308	54.29863
722.0828	50.34948
722.2347	49.30565
722.3866	54.8551
722.5385	54.56081
722.6903	47.35907
722.8422	53.18999
722.9941	54.41492
723.1459	53.56585
723.2977	50.37988
723.4496	44.88385
723.6014	47.87837
723.7532	43.90943
723.905	47.36922
724.0568	52.57296
724.2086	52.58193
724.3604	51.24288
724.5121	50.2542
724.6639	56.26152
724.8157	54.18586
724.9674	50.88596
725.1191	49.0405
725.2709	51.36415
725.4226	44.4034
725.5743	50.24338
725.726	56.04948
725.8777	56.27723
726.0294	58.94604
726.181	57.31591
726.3327	56.94641
726.4844	56.94523
726.636	58.19678
726.7877	57.0652
726.9393	55.86231
727.0909	56.4795
727.2425	56.32301
727.3941	58.53888
727.5457	50.29613
727.6973	53.6857
727.8488	56.23594
728.0004	61.28111
728.1519	61.51567
728.3035	67.74509
728.455	59.77066
728.6066	58.21108
728.7581	58.89329
728.9095	56.40723
729.0611	59.04637
729.2126	59.93608
729.364	60.22581
729.5155	61.68179
729.667	62.52008
729.8184	62.20261
729.9698	60.19957
730.1213	60.38003
730.2727	58.96305
730.4241	61.35574
730.5756	61.44847
730.7269	63.94845
730.8784	61.50661
731.0297	63.09053
731.1811	58.15668
731.3325	61.66459
731.4838	64.31899
731.6351	66.31297
731.7865	61.20599
731.9378	62.31615
732.0891	70.35744
732.2404	67.57048
732.3917	69.99752
732.543	70.65464
732.6943	74.02283
732.8456	73.53613
732.9968	75.96198
733.1481	69.8875
733.2993	75.95815
733.4506	73.92422
733.6018	75.11409
733.753	75.02512
733.9042	80.76485
734.0554	77.92114
734.2066	72.51295
734.3578	75.48983
734.509	74.32189
734.6602	72.54734
734.8113	72.89112
734.9624	74.36257
735.1136	75.28809
735.2647	75.66663
735.4158	73.79579
735.5669	73.3517
735.718	74.59694
735.8691	77.22933
736.0201	77.91006
736.1713	79.12179
736.3223	77.59586
736.4733	79.44135
736.6244	74.44976
736.7755	76.26208
736.9265	81.95451
737.0775	77.10097
737.2285	79.68719
737.3795	80.45474
737.5305	81.07555
737.6815	88.61889
737.8324	84.383
737.9834	88.0683
738.1343	86.0332
738.2853	79.7756
738.4362	79.306
738.5871	85.03535
738.738	77.19104
738.8889	84.77722
739.0399	81.74925
739.1907	81.66404
739.3416	83.51376
739.4925	89.70734
739.6433	85.66576
739.7942	88.47765
739.945	83.64896
740.0958	81.7115
740.2467	83.07825
740.3975	84.96494
740.5483	88.94281
740.6991	90.14374
740.8499	84.99402
741.0007	84.99753
741.1514	89.96767
741.3022	86.68813
741.4529	87.18501
741.6036	87.84685
741.7544	85.34554
741.9051	90.00175
742.0558	90.94653
742.2065	84.17106
742.3572	89.51002
742.5079	86.90962
742.6586	89.4513
742.8093	92.42202
742.9599	92.73275
743.1105	92.24059
743.2612	86.85944
743.4118	93.25611
743.5624	92.30508
743.7131	90.49147
743.8636	91.4085
744.0142	91.4183
744.1648	87.55595
744.3154	92.91159
744.4659	88.29643
744.6165	90.68508
744.767	88.29504
744.9176	91.73209
745.0681	92.75799
745.2186	94.76669
745.3691	93.98578
745.5197	97.75533
745.6702	90.82026
745.8206	91.60556
745.9711	92.95925
746.1215	95.93339
746.272	95.67794
746.4224	90.5043
746.5729	93.07903
746.7233	90.74545
746.8737	95.51495
747.0241	97.50205
747.1745	88.10993
747.3249	88.91089
747.4753	92.89688
747.6257	90.61271
747.776	91.94707
747.9264	88.90437
748.0767	96.40079
748.2271	94.77217
748.3774	94.47836
748.5276	97.66596
748.678	96.29269
748.8282	91.22073
748.9786	94.86006
749.1288	89.15723
749.2791	91.9601
749.4294	91.27773
749.5796	91.82174
749.7299	87.30041
749.8801	92.45237
750.0303	93.94603
750.1805	97.3598
750.3307	104.2067
750.4809	91.6263
750.6311	94.81205
750.7813	97.63919
750.9314	91.77384
751.0816	93.06126
751.2318	88.94781
751.3818	85.89453
751.532	97.16133
751.6821	95.86596
751.8322	91.13754
751.9823	95.70126
752.1324	99.62943
752.2825	95.66585
752.4326	95.39938
752.5826	97.99313
752.7327	91.32843
752.8827	93.8054
753.0327	100.1316
753.1827	91.88241
753.3328	91.87603
753.4828	90.5193
753.6328	90.33321
753.7828	91.85211
753.9327	97.0954
754.0827	91.96709
754.2327	89.78779
754.3826	94.2256
754.5325	94.71584
754.6825	90.18369
754.8324	87.47901
754.9823	87.16231
755.1322	94.79188
755.2821	88.84022
755.432	95.49814
755.5818	98.7761
755.7318	94.40532
755.8816	94.41269
756.0314	92.41243
756.1813	91.67558
756.3311	90.23645
756.4809	92.78255
756.6307	95.61925
756.7805	91.24223
756.9303	91.01299
757.0801	95.64276
757.2299	90.99892
757.3796	93.55621
757.5294	90.26294
757.6791	88.52924
757.8289	94.33942
757.9786	91.50154
758.1283	90.21433
758.278	89.94543
758.4277	88.04803
758.5773	86.1011
758.7271	87.82966
758.8767	86.9157
759.0264	84.4994
759.176	81.95441
759.3256	74.12389
759.4753	60.17844
759.6249	45.15369
759.7745	39.22656
759.9241	34.68169
760.0737	28.1639
760.2233	31.99307
760.3729	26.72075
760.5224	26.8505
760.6719	24.31132
760.8215	25.61499
760.971	26.69537
761.1205	32.08414
761.2701	35.42494
761.4196	34.42854
761.5691	45.00213
761.7186	51.37139
761.868	61.82196
762.0175	60.0181
762.167	51.52443
762.3164	46.36127
762.4659	42.58988
762.6153	44.66928
762.7647	43.04031
762.9141	41.34984
763.0635	42.21755
763.2129	40.09673
763.3623	36.40764
763.5117	38.3059
763.661	39.37565
763.8104	38.07595
763.9597	42.92546
764.1091	46.75315
764.2584	48.1338
764.4077	49.3283
764.557	45.91038
764.7063	47.2162
764.8556	51.58168
765.0049	53.62755
765.1541	51.77889
765.3034	58.49524
765.4526	54.57533
765.6019	58.11987
765.7511	62.78861
765.9003	62.58578
766.0496	59.66592
766.1987	63.08235
766.348	64.55437
766.4971	64.4541
766.6463	67.86787
766.7955	69.05878
766.9446	67.1844
767.0938	68.49537
767.2429	69.26083
767.392	72.33371
767.5411	74.44855
767.6902	75.69506
767.8394	74.66982
767.9884	75.10955
768.1375	73.5237
768.2866	73.94162
768.4356	74.08349
768.5847	77.55888
768.7337	84.37679
768.8828	72.80177
769.0317	71.48666
769.1808	73.08047
769.3298	72.19717
769.4788	77.45113
769.6277	75.30781
769.7767	70.74802
769.9257	75.26598
770.0746	74.28957
770.2236	75.49563
770.3725	78.14168
770.5214	74.43674
770.6703	72.98354
770.8193	74.11974
770.9681	76.88545
771.1171	75.2963
771.2659	73.13638
771.4148	69.44685
771.5637	74.40717
771.7125	79.34421
771.8613	73.7602
772.0101	75.4651
772.159	75.23058
772.3078	76.27064
772.4566	74.92821
772.6054	69.94936
772.7542	73.35172
772.903	72.68587
773.0517	75.29943
773.2004	71.10902
773.3492	70.09074
773.4979	71.16731
773.6467	71.69666
773.7953	75.39535
773.944	72.16625
774.0928	74.0552
774.2415	73.34184
774.3901	68.48005
774.5388	71.9118
774.6874	73.5208
774.8361	67.07499
774.9847	74.24068
775.1334	75.9688
775.282	68.89033
775.4305	69.36212
775.5792	67.13276
775.7277	68.24504
775.8763	70.39558
776.0249	74.23019
776.1735	76.06328
776.322	72.95122
776.4705	71.59677
776.6191	68.58624
776.7676	74.65981
776.9161	74.44115
777.0646	72.88529
777.2131	69.28094
777.3616	72.72877
777.5101	69.3387
777.6585	72.00587
777.8069	69.94817
777.9554	69.28365
778.1038	62.88327
778.2523	67.33849
778.4007	71.94743
778.5491	73.27017
778.6974	68.17059
778.8459	67.444
778.9942	73.97432
779.1426	66.81062
779.291	68.0097
779.4393	72.5908
779.5876	70.70605
779.736	68.3672
779.8843	65.28601
780.0326	65.07542
780.1809	66.92233
780.3292	63.46695
780.4775	68.06038
780.6257	70.15332
780.774	70.15125
780.9222	68.09212
781.0704	67.82834
781.2187	70.394
781.3669	68.13379
781.5151	68.95672
781.6633	65.79374
781.8115	63.73857
781.9597	64.87356
782.1078	66.52879
782.256	67.23788
782.4042	69.88831
782.5523	65.97276
782.7004	68.66502
782.8486	75.2712
782.9967	67.33846
783.1448	70.85145
783.2929	65.35287
783.441	61.6111
783.5891	61.39614
783.7371	67.23624
783.8851	62.98113
784.0332	64.86659
784.1812	69.14099
784.3293	65.42938
784.4773	64.59004
784.6253	60.98296
784.7733	58.07202
784.9213	62.08207
785.0692	63.47238
785.2172	61.89939
785.3652	60.5594
785.5131	58.77681
785.6611	66.30338
785.809	69.8961
785.9569	60.06094
786.1048	60.98731
786.2527	61.85118
786.4006	65.48224
786.5485	68.80414
786.6964	64.63429
786.8442	62.8609
786.9921	65.35637
787.1399	67.10286
787.2877	60.28114
787.4355	61.19947
787.5833	61.29615
787.7311	62.52533
787.8789	56.41716
788.0267	55.00449
788.1745	60.4854
788.3223	62.93147
788.47	64.46996
788.6177	64.0763
788.7654	59.17415
788.9132	60.33331
789.0609	60.45792
789.2086	58.16475
789.3563	52.8225
789.504	59.2067
789.6517	57.60363
789.7993	59.57577
789.947	67.58965
790.0946	60.83416
790.2422	56.19094
790.3898	62.69519
790.5375	60.73661
790.6851	60.30292
790.8326	68.09341
790.9802	57.5953
791.1278	59.48782
791.2754	59.12175
791.423	63.93701
791.5705	60.21761
791.718	54.38713
791.8655	59.61946
792.0131	58.20895
792.1606	58.9358
792.308	60.59298
792.4556	62.76257
792.603	56.71582
792.7505	56.72644
792.8979	62.94963
793.0454	60.50744
793.1928	55.43069
793.3403	58.44101
793.4877	53.54334
793.6351	52.75056
793.7825	54.74748
793.9299	56.77735
794.0772	60.30044
794.2246	57.76263
794.3719	54.69324
794.5193	55.71119
794.6666	49.76513
794.814	57.99665
794.9613	56.04295
795.1086	56.15503
795.2559	52.31115
795.4032	53.68321
795.5505	57.05061
795.6978	59.71817
795.845	57.62262
795.9922	56.17591
796.1395	56.15238
796.2867	53.72169
796.4339	55.70893
796.5811	49.53125
796.7283	51.21554
796.8755	57.16463
797.0227	53.63973
797.1699	52.87746
797.317	54.10341
797.4642	63.53226
797.6113	58.68682
797.7584	60.16766
797.9056	58.85292
798.0527	55.24149
798.1998	56.20442
798.3469	59.46711
798.494	53.97918
798.641	53.34484
798.7881	50.37493
798.9351	50.45068
799.0822	54.6764
799.2292	53.97412
799.3762	52.02052
799.5232	51.20051
799.6702	52.74551
799.8172	51.31151
799.9642	53.54443
800.1111	49.10698
800.2581	53.32321
800.4051	56.53488
800.552	50.39204
800.6989	55.61924
800.8458	55.79889
800.9927	50.51712
801.1396	50.79744
801.2866	48.12569
801.4334	55.59733
801.5803	49.65799
801.7272	55.72881
801.874	51.86555
802.0209	48.1086
802.1677	51.58472
802.3145	47.64928
802.4613	53.1487
802.6081	47.46398
802.7549	47.1916
802.9017	52.73209
803.0485	55.25981
803.1952	50.48402
803.342	50.43476
803.4887	50.56886
803.6354	52.81293
803.7822	46.27622
803.9289	49.832
804.0756	46.36983
804.2223	53.77576
804.369	50.04929
804.5156	42.04617
804.6623	48.69348
804.8089	48.71007
804.9556	47.15433
805.1022	52.51023
805.2488	44.35972
805.3954	51.53684
805.542	51.90112
805.6886	53.9738
805.8352	45.40472
805.9818	46.36286
806.1283	46.16365
806.2749	48.50362
806.4214	48.99322
806.5679	48.8848
806.7145	51.72943
806.861	45.06561
807.0074	49.17878
807.154	44.33492
807.3004	44.75581
807.4469	50.85487
807.5934	45.75139
807.7398	45.79832
807.8862	44.90894
808.0327	46.93219
808.1791	47.19485
808.3255	42.9642
808.4719	45.57901
808.6183	41.26065
808.7647	41.03849
808.9111	43.74568
809.0574	41.33121
809.2037	43.09986
809.3501	41.85674
809.4965	45.59829
809.6428	42.70378
809.7891	42.54306
809.9354	40.00055
810.0817	41.20902
810.2279	46.17339
810.3742	46.99278
810.5204	46.43032
810.6667	41.05367
810.8129	43.0104
810.9592	42.99653
811.1054	44.4298
811.2516	40.02034
811.3978	42.69799
811.5439	44.70941
811.6901	41.73694
811.8363	41.2177
811.9825	40.45284
812.1286	43.25669
812.2748	41.24092
812.4209	36.91526
812.567	37.44323
812.7131	44.19915
812.8592	48.3143
813.0053	40.58968
813.1514	36.95762
813.2974	34.63535
813.4435	37.96974
813.5895	35.17108
813.7356	36.53309
813.8816	39.84593
814.0276	41.31054
814.1736	37.16829
814.3196	30.67695
814.4656	35.02126
814.6116	36.21523
814.7576	34.29011
814.9035	28.05976
815.0494	31.7947
815.1954	29.46514
815.3413	29.0581
815.4872	29.57465
815.6331	30.40297
815.779	33.7923
815.9249	36.42171
816.0707	37.95566
816.2166	30.87741
816.3625	29.72262
816.5083	32.81896
816.6542	31.01288
816.8	32.87856
816.9458	34.44736
817.0916	35.52973
817.2374	34.61308
817.3832	37.10103
817.5289	36.515
817.6747	27.17659
817.8204	29.88668
817.9662	29.73596
818.1119	32.40503
818.2576	33.56084
818.4034	35.61515
818.5491	28.79831
818.6948	32.82026
818.8405	34.33223
818.9861	35.92768
819.1318	28.74391
819.2774	32.08356
819.423	31.71387
819.5687	34.82304
819.7143	31.16501
819.8599	30.83735
820.0055	30.53732
820.1511	30.05362
820.2967	31.74235
820.4422	35.9614
820.5878	38.76649
820.7333	38.05088
820.8788	35.69937
821.0244	35.60462
821.1699	35.83251
821.3154	31.33509
821.4609	30.31892
821.6064	34.7873
821.7519	35.12112
821.8973	35.10622
822.0428	36.74272
822.1882	36.57204
822.3337	31.11793
822.4791	28.30652
822.6245	23.22944
822.7699	20.00366
822.9153	23.03149
823.0607	23.06703
823.2061	24.2672
823.3514	23.50288
823.4968	23.23213
823.6422	26.91364
823.7875	31.61082
823.9328	31.02825
824.0781	34.84987
824.2234	34.11052
824.3687	30.2814
824.514	31.57627
824.6592	36.8494
824.8045	32.05157
824.9498	36.15884
825.095	30.44556
825.2402	27.98604
825.3854	33.4648
825.5306	32.76573
825.6758	33.03774
825.821	26.88742
825.9662	33.8731
826.1114	31.3884
826.2565	34.75497
826.4017	35.42125
826.5468	32.88879
826.692	33.91354
826.837	33.32087
826.9822	38.43998
827.1273	36.34155
827.2723	35.07881
827.4174	31.83568
827.5625	30.62877
827.7075	29.79339
827.8526	29.95515
827.9976	25.40755
828.1426	27.64779
828.2877	33.03112
828.4327	32.60878
828.5776	30.16982
828.7227	31.0814
828.8676	30.38499
829.0126	28.57568
829.1575	25.05995
829.3024	32.05651
829.4474	32.3628
829.5923	28.91418
829.7372	31.90874
829.8821	29.9321
830.027	32.46088
830.1719	34.6205
830.3168	28.84925
830.4616	32.23458
830.6064	31.37423
830.7513	32.05392
830.8961	36.46122
831.041	32.22147
831.1857	30.85932
831.3306	32.02047
831.4753	33.54583
831.6201	28.96965
831.7649	32.89671
831.9096	28.86735
832.0544	31.12031
832.1991	27.27482
832.3438	23.60988
832.4885	31.64785
832.6332	28.61173
832.778	29.70843
832.9226	28.53968
833.0673	29.51125
833.2119	31.74019
833.3566	28.18931
833.5012	27.22456
833.6459	28.66766
833.7905	28.38216
833.9351	27.90065
834.0797	28.543
834.2243	29.13595
834.3688	31.53638
834.5134	26.49939
834.658	31.75889
834.8026	30.47127
834.9471	33.25779
835.0916	29.02117
835.2361	28.43447
835.3806	27.48145
835.5251	30.45469
835.6696	33.16425
835.8141	28.96168
835.9586	29.29259
836.103	26.27914
836.2474	29.06066
836.3918	27.3161
836.5363	28.44588
836.6807	28.49888
836.8251	28.51329
836.9695	23.15236
837.1138	26.67028
837.2582	30.23557
837.4026	26.81979
837.5469	26.71456
837.6913	29.76891
837.8356	27.17689
837.9799	30.47633
838.1242	27.17727
838.2686	30.08146
838.4128	29.76174
838.5571	28.74021
838.7014	33.53457
838.8456	27.51634
838.9899	29.60189
839.1341	33.11329
839.2783	31.59574
839.4225	30.78573
839.5667	28.68379
839.7109	27.14774
839.8551	28.40618
839.9993	26.39239
840.1434	31.16685
840.2876	25.93059
840.4317	25.4614
840.5759	32.97482
840.72	32.07012
840.8641	28.06035
841.0082	29.75963
841.1523	26.96221
841.2963	28.76166
841.4404	29.26545
841.5845	26.11063
841.7285	28.6511
841.8726	27.68535
842.0165	26.26183
842.1606	26.40438
842.3046	26.71282
842.4485	29.70998
842.5925	26.86182
842.7365	29.91526
842.8805	28.92392
843.0244	30.43592
843.1684	30.67933
843.3123	25.95939
843.4562	30.85131
843.6002	25.63995
843.744	28.35278
843.8879	27.57525
844.0318	27.78066
844.1757	27.39156
844.3195	24.40009
844.4634	27.4029
844.6072	28.91104
844.751	22.56134
844.8948	29.43505
845.0386	26.27622
845.1824	27.70982
845.3262	27.21165
845.47	30.11065
845.6138	31.87514
845.7575	30.54124
845.9012	31.62042
846.045	31.22482
846.1887	27.35738
846.3324	24.36634
846.4761	24.38019
846.6198	23.95214
846.7635	28.92582
846.9071	28.96261
847.0508	31.23252
847.1944	31.65852
847.3381	32.34109
847.4817	28.06057
847.6253	27.44437
847.7689	25.92322
847.9125	25.9584
848.0561	30.46382
848.1996	27.8567
848.3432	29.23437
848.4868	31.13135
848.6303	26.32406
848.7738	30.02604
848.9174	29.22709
849.0609	23.12297
849.2043	24.49577
849.3478	27.24865
849.4913	25.87349
849.6348	29.8861
849.7782	23.05994
849.9217	23.67229
850.0651	25.30101
850.2086	25.18006
850.3519	29.95857
850.4954	25.19441
850.6387	27.50279
850.7821	28.83254
850.9255	27.52506
851.0688	24.03448
851.2122	24.32671
851.3555	25.28386
851.4988	23.77215
851.6422	22.45234
851.7855	24.3687
851.9288	24.54595
852.0721	23.93665
852.2153	27.47039
852.3586	28.98135
852.5018	24.16479
852.6451	21.49012
852.7883	22.24197
852.9315	24.20897
853.0748	24.58782
853.218	27.25286
853.3611	30.08417
853.5043	24.3009
853.6475	27.87056
853.7906	25.09853
853.9338	21.66845
854.0769	17.93754
854.22	21.45081
854.3632	19.223
854.5063	22.04033
854.6494	25.16271
854.7924	24.71874
854.9355	22.26195
855.0786	25.14265
855.2216	23.4939
855.3647	24.05235
855.5077	22.77212
855.6507	23.31706
855.7937	21.75807
855.9367	21.18556
856.0797	24.59829
856.2227	24.13616
856.3657	20.5969
856.5086	22.09912
856.6516	22.84643
856.7945	24.57176
856.9374	29.1271
857.0803	26.51975
857.2232	30.66971
857.3661	20.85028
857.509	21.81171
857.6519	25.37858
857.7947	25.42002
857.9376	24.69078
858.0804	22.43718
858.2232	30.14552
858.366	24.78555
858.5089	24.00424
858.6516	23.49258
858.7944	23.19783
858.9372	24.63893
859.08	29.01765
859.2227	25.93699
859.3654	22.3401
859.5082	25.49813
859.6509	22.87686
859.7936	25.45429
859.9363	27.99969
860.079	23.96391
860.2217	23.11191
860.3643	23.99982
860.507	25.51398
860.6496	23.66585
860.7922	27.17142
860.9349	28.53585
861.0775	26.56916
861.2201	24.27638
861.3627	22.61877
861.5052	22.3273
861.6478	25.65937
861.7904	24.21778
861.9329	23.24105
862.0755	23.86124
862.218	21.44089
862.3605	25.80079
862.503	21.10411
862.6455	24.67502
862.788	23.31058
862.9305	26.73155
863.0729	26.01202
863.2154	23.3553
863.3578	26.07497
863.5002	25.39212
863.6426	24.49462
863.7851	24.70716
863.9275	23.1375
864.0698	26.80271
864.2122	26.80543
864.3546	22.44096
864.4969	18.65999
864.6393	20.71697
864.7816	18.32384
864.924	17.03586
865.0662	23.4302
865.2086	24.68853
865.3508	25.69092
865.4931	24.15822
865.6354	21.80885
865.7776	23.505
865.9199	23.43827
866.0621	19.98931
866.2043	19.01604
866.3466	12.51668
866.4888	21.28234
866.6309	16.21393
866.7731	21.07194
866.9153	27.86032
867.0574	24.32749
867.1996	21.611
867.3417	17.69704
867.4839	18.76127
867.626	22.97745
867.7681	22.27073
867.9102	22.00272
868.0522	17.77407
868.1943	16.98499
868.3364	19.60643
868.4785	23.70349
868.6205	20.47044
868.7625	20.21473
868.9045	19.36285
869.0465	19.35809
869.1885	19.95664
869.3305	19.7289
869.4725	19.94469
869.6144	17.88891
869.7564	16.62593
869.8983	20.4665
870.0403	21.17946
870.1822	18.86169
870.3241	19.92942
870.466	19.18743
870.6079	22.27979
870.7498	19.66129
870.8916	21.66786
871.0335	21.31947
871.1754	17.25188
871.3171	23.5998
871.459	22.79615
871.6008	21.02453
871.7426	20.57069
871.8844	18.5844
872.0262	19.406
872.1679	18.00041
872.3097	17.35864
872.4514	15.51694
872.5931	17.73846
872.7349	18.22235
872.8766	17.03749
873.0183	18.57425
873.16	20.98547
873.3017	22.65142
873.4434	23.63654
873.585	18.9277
873.7266	23.13305
873.8683	22.0193
874.0099	18.5511
874.1516	21.60101
874.2932	19.52205
874.4348	21.22905
874.5763	18.46944
874.7179	16.90711
874.8594	16.73128
875.001	17.11265
875.1425	16.60542
875.2841	16.94237
875.4256	19.28295
875.5671	19.46858
875.7086	16.85064
875.85	15.46427
875.9915	16.70607
876.133	20.29222
876.2744	19.40505
876.4159	22.08896
876.5573	20.32414
876.6987	21.08404
876.8401	17.843
876.9815	18.29808
877.1229	15.50984
877.2643	18.32094
877.4056	24.86301
877.547	20.19811
877.6884	19.13485
877.8297	16.18235
877.971	16.01991
878.1123	17.87564
878.2536	19.26605
878.3949	19.46829
878.5362	17.30128
878.6774	19.28897
878.8187	15.59683
878.9599	15.28298
879.1011	16.97393
879.2424	14.25688
879.3836	19.67238
879.5248	22.34863
879.666	16.29605
879.8071	11.50262
879.9483	15.12694
880.0895	15.43451
880.2306	14.43437
880.3718	15.69765
880.5129	14.23247
880.654	12.85919
880.7951	14.22407
880.9362	17.92543
881.0773	19.71241
881.2183	18.39335
881.3594	18.74378
881.5004	17.21125
881.6414	18.85675
881.7825	16.02625
881.9235	16.93991
882.0645	16.31797
882.2054	20.03683
882.3464	20.50812
882.4874	13.86089
882.6284	15.7293
882.7693	16.3871
882.9103	10.61175
883.0512	13.81081
883.1921	16.33277
883.333	17.54279
883.4739	17.74903
883.6147	15.67637
883.7556	12.53706
883.8965	15.73935
884.0374	16.35014
884.1782	21.78485
884.319	15.2489
884.4598	15.98786
884.6006	18.34179
884.7414	19.8806
884.8822	16.25464
885.0229	17.84574
885.1637	15.90715
885.3044	18.0151
885.4452	21.6641
885.5859	18.54099
885.7266	18.37442
885.8673	14.87673
886.008	13.99372
886.1487	18.95105
886.2894	17.94843
886.43	15.62648
886.5707	15.88381
886.7113	17.77234
886.8519	15.78969
886.9926	12.62144
887.1331	9.596582
887.2737	15.82752
887.4143	19.14153
887.5549	16.06502
887.6954	11.99153
887.836	16.72024
887.9765	19.76122
888.1171	14.73975
888.2576	20.39721
888.3981	16.47734
888.5386	18.2322
888.679	19.19658
888.8195	16.94359
888.96	17.16784
889.1004	15.92724
889.2408	11.88117
889.3813	17.49282
889.5217	13.30119
889.6621	15.44546
889.8025	12.63411
889.9429	15.77015
890.0833	15.17874
890.2236	12.93564
890.364	16.60367
890.5043	18.77956
890.6446	15.06407
890.7849	15.86655
890.9252	15.91986
891.0655	16.68112
891.2058	16.21972
891.3461	16.79866
891.4863	12.69121
891.6266	16.64439
891.7668	13.09785
891.907	18.06177
892.0472	17.01758
892.1874	16.47579
892.3276	18.38305
892.4678	17.3044
892.608	17.3665
892.7481	18.47003
892.8883	18.46589
893.0284	12.75175
893.1685	12.08798
893.3087	12.96476
893.4487	13.14385
893.5889	11.98132
893.7289	12.28058
893.869	15.81918
894.009	16.87659
894.1491	13.95526
894.2891	14.65068
894.4291	16.47678
894.5692	15.2368
894.7092	8.548162
894.8491	13.04587
894.9891	10.71165
895.1291	12.08616
895.269	12.02754
895.409	17.05647
895.549	12.05811
895.6888	7.115108
895.8288	15.87188
895.9687	16.80871
896.1086	12.53648
896.2484	12.66751
896.3883	11.05039
896.5281	12.85583
896.668	11.49992
896.8079	7.524987
896.9476	14.00676
897.0875	10.45504
897.2272	10.16703
897.3671	10.01951
897.5068	12.88124
897.6466	14.68911
897.7864	14.31513
897.9261	12.168
898.0658	11.0094
898.2056	10.00573
898.3453	13.44387
898.4849	13.23664
898.6246	10.61944
898.7643	6.969169
898.904	7.023305
899.0436	8.361037
899.1833	8.840045
899.3229	11.15879
899.4625	15.32476
899.6021	11.40946
899.7417	12.76499
899.8813	13.24307
900.0209	12.7513
900.1605	14.20232
900.3	11.91631
900.4395	13.0943
900.579	6.310218
900.7186	7.097276
900.8581	9.637145
900.9976	12.60383
901.1371	8.418955
901.2766	9.063581
901.416	11.61157
901.5555	13.33911
901.6949	12.81552
901.8344	12.68702
901.9738	11.11594
902.1132	9.618644
902.2526	10.20361
902.3919	8.065398
902.5313	7.981764
902.6707	6.63741
