SPECTRUM DATA FILE
SpectrumCount:	1
PixelCount:	3648
UserName:	ToughBook User
SampleName:	
LightSource:	
Comments:	
DeviceName:	Qwave
DeviceManufacturer:	Broadcom
DeviceSerialNo:	11311

Name:	last spectrum
Date:	2024-05-02T15:07:39.4299580+02:00
ExposureTime:	0.02
TemporalAvg:	1
IntensityUnit:	normalizedCounts
CCDLoadLevel:	0.02417305
Temperature:	27.96298
DiagramColor:	200
ProcessingSteps:	335

Wavelength [nm]	Intensity1
334.421	3.799086
334.5891	7.132984
334.7573	0.1960487
334.9254	1.272628
335.0935	4.863329
335.2616	3.839251
335.4297	5.798947
335.5978	2.012008
335.7659	2.236728
335.934	5.450128
336.1021	7.06313
336.2701	5.9789
336.4382	6.756075
336.6063	7.988411
336.7744	0.6775241
336.9424	6.717905
337.1105	8.6061
337.2785	6.858986
337.4466	8.796527
337.6146	8.290544
337.7827	4.684973
337.9507	7.203961
338.1187	3.890739
338.2867	2.882783
338.4548	1.664772
338.6228	1.221044
338.7908	1.164674
338.9588	-1.317217
339.1268	4.007744
339.2948	6.151123
339.4628	4.821171
339.6308	1.515562
339.7988	3.620333
339.9667	3.649245
340.1347	3.565662
340.3027	2.554731
340.4707	5.957479
340.6386	9.345612
340.8066	4.666488
340.9745	1.914131
341.1425	5.412124
341.3104	4.650775
341.4784	5.168057
341.6463	4.666933
341.8142	2.422417
341.9821	0.9432182
342.1501	1.729947
342.318	2.752252
342.4859	5.348812
342.6538	6.454936
342.8217	4.988111
342.9896	4.652348
343.1575	6.761729
343.3254	9.614048
343.4933	8.024981
343.6612	6.328194
343.829	2.227477
343.9969	3.667454
344.1648	1.275958
344.3326	5.782711
344.5005	3.047096
344.6683	8.45842
344.8362	7.298026
345.004	3.174798
345.1719	1.064171
345.3397	3.319113
345.5075	8.585344
345.6754	4.952354
345.8432	1.486247
346.011	1.48692
346.1788	1.609473
346.3466	5.824715
346.5144	5.495313
346.6822	5.974803
346.85	5.596076
347.0178	0.626632
347.1856	4.616957
347.3534	2.134613
347.5211	3.553121
347.6889	6.826685
347.8567	8.132961
348.0244	6.235652
348.1922	6.422311
348.3599	10.05486
348.5277	7.956635
348.6954	8.005718
348.8632	6.395109
349.0309	-2.248361
349.1986	4.200368
349.3663	4.957855
349.5341	-0.580306
349.7018	6.400897
349.8695	4.707966
350.0372	-0.7373778
350.2049	3.124735
350.3726	3.072986
350.5403	3.966563
350.7079	6.101385
350.8756	6.051187
351.0433	4.220374
351.211	4.78751
351.3786	1.063676
351.5463	2.299528
351.714	4.155996
351.8816	0.6008063
352.0493	3.49013
352.2169	7.130188
352.3846	0.9944682
352.5522	6.130335
352.7198	5.477824
352.8875	3.751658
353.0551	3.803849
353.2227	4.037716
353.3903	6.598743
353.5579	8.351978
353.7255	6.69327
353.8931	5.555502
354.0607	6.336545
354.2283	5.042353
354.3958	8.499318
354.5634	6.745215
354.731	10.90804
354.8986	6.48021
355.0661	5.990919
355.2337	4.827094
355.4012	7.308975
355.5688	6.645719
355.7363	8.144226
355.9039	4.194838
356.0714	6.712469
356.239	7.393764
356.4065	4.275215
356.574	4.487218
356.7415	6.39448
356.909	1.222887
357.0765	5.455773
357.244	4.225147
357.4115	7.032068
357.579	5.23409
357.7465	5.287816
357.914	5.272213
358.0815	4.744019
358.249	2.46469
358.4164	4.098416
358.5839	4.460342
358.7513	7.58957
358.9188	3.447296
359.0862	2.100133
359.2537	1.308696
359.4211	6.837126
359.5886	2.44731
359.756	-1.229264
359.9234	1.810828
360.0909	8.588228
360.2583	11.74917
360.4257	5.944358
360.5931	6.877388
360.7605	5.258237
360.9279	7.799991
361.0953	7.037282
361.2627	5.17698
361.4301	6.26688
361.5974	6.54334
361.7648	8.593828
361.9322	9.282507
362.0995	6.249815
362.2669	5.569767
362.4343	12.08323
362.6016	5.311358
362.769	2.282826
362.9363	9.748521
363.1036	9.338901
363.271	13.26296
363.4383	6.436314
363.6056	5.387631
363.7729	3.910445
363.9402	7.046363
364.1075	1.761199
364.2748	7.17031
364.4421	7.070541
364.6094	8.320417
364.7767	2.941706
364.944	4.376623
365.1113	10.03614
365.2786	10.38539
365.4458	5.743734
365.6131	5.6016
365.7803	4.710344
365.9476	6.576011
366.1148	6.944507
366.2821	7.612362
366.4493	7.219869
366.6166	8.127005
366.7838	8.289251
366.951	2.995975
367.1182	5.992089
367.2855	6.581625
367.4527	4.465057
367.6199	2.663551
367.7871	5.065403
367.9543	3.789316
368.1215	4.915248
368.2886	2.87715
368.4558	4.148513
368.623	6.846601
368.7902	9.620946
368.9573	2.482929
369.1245	0.3530797
369.2917	7.930824
369.4588	11.61519
369.6259	9.600611
369.7931	7.378383
369.9602	6.539307
370.1274	6.46838
370.2945	8.723125
370.4616	8.861865
370.6287	7.150662
370.7958	5.119955
370.963	6.282001
371.1301	6.76744
371.2971	6.921793
371.4643	2.018387
371.6313	7.608309
371.7984	5.612527
371.9655	4.633737
372.1326	8.026407
372.2997	4.369024
372.4667	5.720288
372.6338	4.860673
372.8008	9.804443
372.9679	11.31435
373.1349	8.609165
373.3019	11.52733
373.469	4.232827
373.636	7.992928
373.803	11.14411
373.9701	5.32876
374.1371	6.264529
374.3041	6.951064
374.4711	7.552232
374.6381	11.2399
374.8051	7.054832
374.9721	7.669168
375.1391	9.687026
375.3061	8.896468
375.473	8.56212
375.64	8.125278
375.8069	4.07445
375.9739	7.311182
376.1409	13.04273
376.3078	11.42677
376.4748	7.772882
376.6417	10.15797
376.8087	8.184378
376.9756	8.373411
377.1425	3.516812
377.3094	4.351447
377.4763	8.247957
377.6432	10.17116
377.8102	11.00738
377.9771	8.130982
378.144	4.826531
378.3109	5.09097
378.4777	8.767122
378.6446	9.31771
378.8115	9.337561
378.9784	7.345718
379.1452	9.136025
379.3121	5.962348
379.4789	6.508013
379.6458	6.599293
379.8127	7.705522
379.9795	8.507544
380.1463	7.722683
380.3131	4.964304
380.48	9.96516
380.6468	10.50735
380.8136	6.989712
380.9804	8.713943
381.1472	11.25171
381.314	9.896435
381.4808	7.743455
381.6476	5.355538
381.8144	10.39912
381.9812	10.69743
382.148	10.2815
382.3147	10.44967
382.4815	9.119227
382.6483	6.775949
382.815	3.620805
382.9818	5.755676
383.1485	11.77081
383.3153	6.773671
383.482	9.254245
383.6487	7.733497
383.8155	6.66116
383.9822	7.173026
384.1489	5.142838
384.3156	4.797421
384.4823	9.513925
384.649	9.332874
384.8157	5.265801
384.9824	6.777803
385.1491	6.896035
385.3158	12.35034
385.4825	9.286784
385.6491	5.588197
385.8158	6.761454
385.9825	6.313106
386.1491	7.927866
386.3157	8.773536
386.4824	10.65821
386.649	8.066746
386.8157	9.423478
386.9823	8.799429
387.1489	6.036887
387.3156	6.565591
387.4821	7.716258
387.6488	8.052258
387.8154	10.00989
387.982	10.17341
388.1486	7.675997
388.3152	8.093886
388.4818	9.368452
388.6483	12.43588
388.8149	11.5984
388.9815	12.89445
389.148	4.948398
389.3146	7.227529
389.4811	6.089258
389.6477	5.022855
389.8142	9.935759
389.9808	9.521263
390.1473	12.70781
390.3138	11.08241
390.4804	12.07262
390.6469	10.01401
390.8134	11.01085
390.9799	8.373513
391.1464	6.721418
391.3129	10.4209
391.4794	5.339561
391.6459	9.631082
391.8124	11.65003
391.9789	13.5209
392.1453	9.279379
392.3118	9.220828
392.4782	13.42955
392.6447	11.99293
392.8112	12.12083
392.9776	7.331708
393.144	2.104392
393.3105	9.938714
393.4769	8.290259
393.6433	7.284524
393.8098	4.645955
393.9762	10.01762
394.1426	6.545515
394.309	6.825952
394.4754	9.398487
394.6418	10.93649
394.8082	5.269411
394.9746	9.658073
395.141	2.534187
395.3073	10.18275
395.4737	11.87109
395.64	3.248972
395.8064	11.11475
395.9728	10.42747
396.1391	9.654284
396.3055	7.597299
396.4718	12.90406
396.6381	8.20823
396.8045	7.184999
396.9708	6.082314
397.1371	8.195285
397.3034	8.958191
397.4697	4.615838
397.636	11.08168
397.8023	10.2361
397.9686	11.1713
398.1349	15.13629
398.3012	11.42241
398.4675	11.94039
398.6337	8.715005
398.8	11.20445
398.9662	10.79924
399.1325	10.33578
399.2988	8.531569
399.465	13.83053
399.6313	15.90555
399.7975	9.242707
399.9637	8.936511
400.1299	14.74562
400.2961	11.05414
400.4624	8.881673
400.6286	10.09346
400.7948	11.60469
400.961	14.67535
401.1272	17.60684
401.2934	12.86202
401.4595	9.384531
401.6257	7.300948
401.7919	10.59949
401.9581	11.0015
402.1242	13.50647
402.2904	12.92831
402.4565	17.31571
402.6227	8.69631
402.7888	11.44761
402.955	14.43709
403.1211	14.0972
403.2872	15.97847
403.4533	17.49912
403.6194	11.63115
403.7856	12.99623
403.9517	13.41679
404.1177	12.79952
404.2838	13.21292
404.4499	11.91278
404.616	12.68475
404.7821	16.46095
404.9482	17.53967
405.1142	13.20603
405.2803	13.17384
405.4464	11.49319
405.6124	12.63523
405.7784	9.212387
405.9445	14.0702
406.1105	16.95826
406.2766	12.32245
406.4426	10.46989
406.6086	11.43257
406.7746	12.34164
406.9406	13.63384
407.1066	13.57662
407.2726	14.89136
407.4386	15.79542
407.6046	10.21411
407.7706	15.30832
407.9366	11.38868
408.1025	13.90971
408.2685	14.93522
408.4344	10.94057
408.6004	17.86646
408.7664	16.39547
408.9323	20.89223
409.0983	18.34876
409.2642	17.49908
409.4301	12.53806
409.596	14.01692
409.762	20.56106
409.9279	17.41438
410.0938	12.61576
410.2597	10.06642
410.4256	14.66132
410.5915	13.96124
410.7574	15.79552
410.9232	19.06606
411.0891	17.93711
411.255	18.22829
411.4209	18.53226
411.5867	22.81099
411.7526	19.64939
411.9184	18.7825
412.0843	18.66458
412.2501	15.78999
412.4159	18.89861
412.5818	21.54827
412.7476	19.50529
412.9134	18.18215
413.0792	16.03805
413.245	14.52771
413.4108	17.0322
413.5766	15.35159
413.7424	18.86578
413.9082	22.13579
414.074	20.64787
414.2397	19.32593
414.4055	14.77045
414.5713	15.00546
414.737	16.84176
414.9028	19.45935
415.0685	14.50402
415.2343	18.41213
415.4	22.19897
415.5658	20.16844
415.7315	19.09735
415.8972	17.88129
416.0629	17.41982
416.2286	19.94088
416.3943	18.81448
416.56	20.11692
416.7257	22.76964
416.8914	20.24341
417.0571	17.17407
417.2228	23.2487
417.3884	14.92844
417.5541	14.86818
417.7198	17.5301
417.8854	20.70053
418.0511	16.97218
418.2167	22.40747
418.3824	17.64355
418.548	17.68326
418.7136	12.84447
418.8792	20.85866
419.0449	17.69304
419.2105	15.43158
419.3761	20.62959
419.5417	19.76077
419.7073	20.01139
419.8729	18.50155
420.0385	15.60612
420.204	18.01574
420.3696	21.10304
420.5352	16.42933
420.7007	18.94733
420.8663	26.25385
421.0319	21.97858
421.1974	18.26379
421.3629	20.60199
421.5285	20.99497
421.694	23.99051
421.8595	21.83417
422.0251	22.28383
422.1906	22.23415
422.3561	21.89402
422.5216	20.82613
422.6871	19.37202
422.8526	23.61614
423.0181	20.25693
423.1835	20.13061
423.349	19.80564
423.5145	18.51995
423.68	19.82808
423.8454	19.36436
424.0109	17.41574
424.1763	22.40951
424.3418	28.59689
424.5072	21.42945
424.6726	26.28892
424.838	28.2828
425.0035	21.28299
425.1689	19.18565
425.3343	25.71078
425.4997	22.32912
425.6651	23.4718
425.8305	21.22887
425.9959	21.25162
426.1613	19.66665
426.3267	22.16584
426.492	28.32018
426.6574	20.60467
426.8228	21.47533
426.9881	26.02272
427.1534	26.30726
427.3188	25.27763
427.4841	18.57039
427.6495	16.75121
427.8148	22.51172
427.9801	19.73864
428.1454	20.8861
428.3107	18.35557
428.476	20.20629
428.6414	23.22466
428.8066	24.26084
428.9719	22.41369
429.1372	21.95703
429.3025	20.48443
429.4678	18.97207
429.633	16.12952
429.7983	19.96786
429.9636	21.3858
430.1288	19.36205
430.294	18.16325
430.4593	21.4673
430.6245	20.93984
430.7897	17.62147
430.955	20.59498
431.1202	23.34435
431.2854	22.09155
431.4506	21.95214
431.6158	23.56464
431.781	28.8266
431.9462	26.47475
432.1114	21.86872
432.2766	27.90323
432.4417	22.48218
432.6069	20.36321
432.772	19.44253
432.9372	29.49622
433.1024	25.10132
433.2675	24.55272
433.4326	26.08927
433.5977	30.19796
433.7629	26.86409
433.928	22.398
434.0931	20.78842
434.2582	23.7293
434.4233	21.9481
434.5884	24.22738
434.7535	24.68434
434.9186	24.12772
435.0837	25.98748
435.2488	24.02705
435.4138	23.68134
435.5789	23.25507
435.744	26.40812
435.909	27.30265
436.0741	30.75293
436.2391	29.29457
436.4042	30.2424
436.5692	32.01789
436.7342	36.08292
436.8992	30.28044
437.0643	33.71957
437.2293	28.59433
437.3943	26.6586
437.5593	31.06922
437.7243	32.48147
437.8893	27.3508
438.0542	30.01035
438.2192	32.9333
438.3842	30.0246
438.5491	28.13649
438.7141	26.5314
438.8791	29.16791
439.044	28.79969
439.209	28.77757
439.3739	34.44818
439.5388	34.17158
439.7037	31.48439
439.8687	23.16655
440.0336	28.03109
440.1985	30.01851
440.3634	30.03923
440.5283	28.42127
440.6932	25.78016
440.8581	32.60087
441.0229	30.41605
441.1878	30.81211
441.3527	32.5797
441.5175	32.27419
441.6824	33.69522
441.8472	34.55301
442.0121	34.6921
442.1769	37.02779
442.3418	34.37609
442.5066	30.80429
442.6714	29.38816
442.8362	34.25156
443.001	29.75666
443.1659	34.94621
443.3307	35.82045
443.4955	37.51157
443.6602	29.51686
443.825	27.74539
443.9898	33.62415
444.1546	35.51534
444.3193	33.97667
444.4841	36.23725
444.6488	39.68111
444.8136	33.16856
444.9783	33.7436
445.1431	33.25267
445.3078	35.67228
445.4725	33.67893
445.6372	29.65588
445.802	29.15312
445.9667	32.49663
446.1314	37.91352
446.2961	29.77311
446.4608	30.16998
446.6255	30.78392
446.7901	32.61789
446.9548	34.14471
447.1195	30.02735
447.2841	33.50261
447.4488	35.98358
447.6134	36.43578
447.7781	36.46402
447.9427	35.23188
448.1074	34.86083
448.272	33.09374
448.4366	36.80087
448.6012	34.59803
448.7658	33.73048
448.9305	33.40045
449.095	35.37185
449.2596	33.85511
449.4242	36.90833
449.5888	34.63684
449.7534	34.64216
449.9179	33.93185
450.0825	32.65627
450.2471	36.961
450.4116	39.33706
450.5762	41.20424
450.7407	37.4784
450.9052	39.43913
451.0698	37.4636
451.2343	38.78848
451.3988	35.44384
451.5633	39.12275
451.7278	36.97865
451.8923	39.57331
452.0568	37.21203
452.2213	41.51994
452.3858	41.4411
452.5503	35.39066
452.7148	35.88939
452.8792	36.27597
453.0437	36.3955
453.2081	34.69227
453.3726	33.53558
453.537	32.19083
453.7015	35.54244
453.8659	40.68966
454.0303	40.96546
454.1947	38.29195
454.3592	37.89263
454.5236	40.7324
454.688	38.60117
454.8524	36.3933
455.0168	32.79547
455.1811	37.06506
455.3455	36.62986
455.5099	41.98466
455.6743	41.06514
455.8386	42.60093
456.003	42.1306
456.1673	39.76859
456.3317	39.12296
456.496	39.96928
456.6603	37.72428
456.8246	41.43803
456.989	39.44486
457.1533	43.00912
457.3176	40.81294
457.4819	36.02023
457.6462	31.69589
457.8105	38.93255
457.9748	43.68006
458.1391	40.93189
458.3033	41.88758
458.4676	41.5805
458.6319	42.67717
458.7961	47.78786
458.9604	41.74866
459.1246	39.49896
459.2888	35.61329
459.4531	44.38585
459.6173	39.10368
459.7815	41.75497
459.9457	38.25115
460.11	36.87754
460.2741	40.94057
460.4384	42.3092
460.6025	39.28404
460.7667	42.04986
460.9309	43.5526
461.0951	44.4444
461.2592	41.04587
461.4234	40.71172
461.5876	37.70622
461.7517	38.46668
461.9159	42.82576
462.08	41.4173
462.2441	41.58637
462.4082	40.16249
462.5724	40.44347
462.7365	39.90353
462.9006	40.62503
463.0647	43.80976
463.2288	49.80138
463.3929	47.8088
463.557	42.49252
463.721	37.84114
463.8851	41.06309
464.0492	38.92606
464.2132	39.44007
464.3773	38.92316
464.5414	34.52934
464.7054	33.71453
464.8694	38.73253
465.0334	41.01196
465.1975	41.18003
465.3615	40.49501
465.5255	38.85336
465.6895	37.94624
465.8535	38.05494
466.0175	41.27522
466.1815	42.086
466.3455	41.77641
466.5095	39.0437
466.6734	36.87772
466.8374	38.19273
467.0014	35.6102
467.1653	39.36938
467.3293	40.53001
467.4932	38.86003
467.6571	43.05896
467.8211	44.0452
467.985	37.79992
468.1489	39.71668
468.3128	40.97447
468.4767	45.75425
468.6406	44.2239
468.8045	40.88132
468.9684	44.64385
469.1323	39.75576
469.2962	39.27705
469.46	42.33096
469.6239	48.63441
469.7878	43.68714
469.9516	47.27711
470.1154	40.80809
470.2793	41.87112
470.4431	40.10077
470.607	39.95137
470.7708	42.52363
470.9346	42.80831
471.0984	41.02282
471.2622	44.30762
471.426	43.43315
471.5898	42.51965
471.7536	42.53822
471.9174	47.11746
472.0811	44.95619
472.2449	47.55483
472.4087	47.626
472.5724	44.66077
472.7362	42.4367
472.8999	39.82714
473.0637	38.00188
473.2274	42.4485
473.3911	45.61161
473.5548	42.31292
473.7185	41.55838
473.8822	46.39863
474.0459	44.63565
474.2096	38.68888
474.3733	43.01514
474.537	46.19558
474.7007	46.72414
474.8643	44.0472
475.028	47.15873
475.1917	43.76207
475.3553	45.33141
475.519	42.43385
475.6826	38.33623
475.8463	44.53638
476.0099	41.82708
476.1735	42.00275
476.3371	43.47044
476.5007	42.67541
476.6643	43.6389
476.8279	40.37623
476.9915	39.3439
477.1551	45.89668
477.3187	48.2935
477.4823	46.5616
477.6458	41.67545
477.8094	43.74221
477.9729	48.73964
478.1365	40.73516
478.3	41.3744
478.4636	45.08522
478.6271	45.16194
478.7906	42.84039
478.9541	45.26809
479.1176	44.8476
479.2812	45.19712
479.4447	50.47118
479.6082	49.92071
479.7716	46.12642
479.9351	42.77376
480.0986	43.18671
480.2621	49.27228
480.4255	45.20655
480.589	48.71078
480.7524	44.58937
480.9159	44.80392
481.0793	46.25776
481.2428	48.86866
481.4062	44.8779
481.5696	45.51577
481.733	47.40228
481.8964	45.80695
482.0598	46.14934
482.2232	43.46179
482.3866	46.37391
482.55	44.16186
482.7134	47.14541
482.8768	45.32812
483.0401	43.58569
483.2035	44.23898
483.3668	46.52143
483.5302	41.36221
483.6935	42.8601
483.8568	43.9234
484.0202	41.00599
484.1835	43.26826
484.3468	46.48055
484.5101	47.71341
484.6734	43.6746
484.8367	42.63773
485	43.43743
485.1633	42.03986
485.3266	45.85682
485.4899	40.57062
485.6531	41.95159
485.8164	41.43481
485.9796	36.12331
486.1429	34.56401
486.3061	34.44019
486.4694	34.23465
486.6326	38.23959
486.7958	39.29433
486.959	42.39784
487.1223	39.53899
487.2855	45.2865
487.4486	44.58638
487.6118	46.6586
487.775	44.3062
487.9382	44.10102
488.1014	42.49136
488.2646	43.73084
488.4277	42.15897
488.5909	43.36065
488.754	46.45574
488.9171	46.41791
489.0803	40.83979
489.2434	41.78209
489.4066	48.82411
489.5697	47.234
489.7328	43.89069
489.8959	46.97981
490.059	48.29007
490.2221	50.1896
490.3852	48.77749
490.5482	47.05758
490.7113	48.74163
490.8744	48.4305
491.0374	46.7994
491.2005	44.30592
491.3636	41.8053
491.5266	44.8315
491.6896	48.36789
491.8527	47.32506
492.0157	41.75574
492.1787	42.23356
492.3417	43.13797
492.5047	45.24022
492.6677	46.65776
492.8307	48.25081
492.9937	43.63947
493.1567	46.9573
493.3196	51.28325
493.4826	44.06573
493.6456	42.57905
493.8085	38.46696
493.9715	39.99466
494.1344	43.63972
494.2974	43.21135
494.4603	47.76394
494.6232	51.31783
494.7861	48.91065
494.949	46.06506
495.1119	52.5387
495.2748	49.29734
495.4377	46.2203
495.6006	49.86496
495.7635	43.621
495.9264	47.0916
496.0892	46.60435
496.2521	46.83551
496.4149	51.50632
496.5778	46.46012
496.7407	46.71148
496.9035	46.72699
497.0663	48.02636
497.2291	44.52053
497.3919	49.45737
497.5547	51.66394
497.7176	49.64137
497.8804	51.58023
498.0432	45.20107
498.2059	41.1121
498.3687	46.70003
498.5315	47.66579
498.6942	48.05085
498.857	44.20483
499.0198	46.46498
499.1825	48.48749
499.3452	47.69631
499.508	48.65619
499.6707	50.02252
499.8334	49.85454
499.9962	48.9287
500.1589	43.34241
500.3216	46.59808
500.4843	48.37985
500.6469	43.05118
500.8096	43.8204
500.9723	44.61595
501.135	45.70893
501.2976	47.72864
501.4603	47.23364
501.623	47.97078
501.7856	48.27267
501.9482	50.04422
502.1109	45.69065
502.2735	46.50328
502.4361	45.02471
502.5987	46.25776
502.7614	48.73912
502.924	46.5693
503.0865	47.61865
503.2491	48.44977
503.4117	52.19662
503.5743	47.0035
503.7368	46.14746
503.8994	47.57098
504.062	45.97654
504.2245	49.42353
504.3871	45.09817
504.5496	51.36715
504.7121	52.96968
504.8746	51.36966
505.0372	48.22908
505.1997	51.90425
505.3622	52.80294
505.5247	51.14256
505.6872	50.80431
505.8497	52.44268
506.0121	51.99058
506.1746	44.50633
506.3371	54.29313
506.4995	54.86404
506.662	48.77969
506.8244	48.58192
506.9869	55.36427
507.1493	55.11652
507.3117	53.75586
507.4742	53.33681
507.6366	46.09896
507.799	50.94057
507.9614	51.26422
508.1238	49.2204
508.2862	46.25841
508.4485	50.85304
508.6109	51.44658
508.7733	55.68515
508.9357	51.54929
509.098	51.87443
509.2604	56.56265
509.4227	58.61689
509.5851	58.72443
509.7474	56.79585
509.9097	54.26027
510.072	48.81318
510.2343	49.5317
510.3966	54.1445
510.5589	56.506
510.7212	58.29089
510.8835	55.6242
511.0458	56.24301
511.2081	55.38469
511.3703	53.55486
511.5326	53.73498
511.6949	56.05246
511.8571	55.73997
512.0193	59.44506
512.1816	57.3019
512.3438	57.07613
512.506	54.01536
512.6682	60.91825
512.8304	60.40844
512.9926	55.45983
513.1548	57.71552
513.317	57.61596
513.4792	59.20068
513.6414	54.64509
513.8035	54.99873
513.9657	52.81113
514.1279	55.37745
514.29	56.57412
514.4521	55.85593
514.6143	57.55894
514.7764	57.56189
514.9385	57.7147
515.1006	56.61476
515.2628	55.73113
515.4249	51.68394
515.587	57.89071
515.7491	54.08944
515.9111	60.01914
516.0732	60.26926
516.2353	61.75319
516.3973	57.81319
516.5594	50.13083
516.7214	54.35706
516.8835	53.33476
517.0455	52.12896
517.2076	48.03701
517.3696	55.22815
517.5316	58.47243
517.6937	56.95867
517.8557	61.95075
518.0176	59.646
518.1796	57.66354
518.3416	56.09369
518.5036	53.62028
518.6656	53.15605
518.8275	60.49716
518.9895	64.82317
519.1514	61.69248
519.3134	60.87851
519.4753	63.93087
519.6373	60.35651
519.7992	62.14893
519.9611	64.68298
520.123	63.2849
520.2849	68.40137
520.4468	64.44235
520.6087	63.88995
520.7706	64.84163
520.9325	59.39352
521.0944	59.87685
521.2562	66.98997
521.4181	69.08426
521.58	64.83393
521.7418	66.19009
521.9036	64.61594
522.0655	68.71742
522.2273	72.77855
522.3891	67.33773
522.551	65.17696
522.7128	64.5736
522.8746	60.40609
523.0363	64.22038
523.1981	69.82194
523.3599	71.2094
523.5217	71.00628
523.6835	69.72722
523.8452	70.32057
524.007	77.31369
524.1687	75.8017
524.3304	70.44674
524.4922	74.61063
524.6539	75.49535
524.8157	73.03101
524.9774	72.69375
525.1391	74.36144
525.3008	74.31549
525.4625	73.44047
525.6241	75.29008
525.7858	75.638
525.9475	75.96922
526.1092	80.89925
526.2709	76.69253
526.4325	71.10109
526.5942	65.03288
526.7558	65.27357
526.9174	69.79218
527.079	70.82938
527.2407	70.5575
527.4023	72.49339
527.5639	74.74148
527.7255	77.24777
527.8871	82.80483
528.0487	73.40711
528.2103	79.47675
528.3718	78.9971
528.5334	80.9937
528.695	87.04819
528.8565	81.07201
529.0181	86.30164
529.1796	88.87088
529.3412	84.12823
529.5027	82.66339
529.6642	83.29677
529.8257	78.26134
529.9872	77.07455
530.1487	80.71854
530.3102	81.73846
530.4717	82.85665
530.6332	83.08705
530.7947	82.93597
530.9562	84.84251
531.1176	89.17199
531.2791	86.66874
531.4405	83.70773
531.6019	89.5434
531.7634	87.00777
531.9248	83.81263
532.0862	85.89738
532.2477	90.47108
532.4091	83.05157
532.5704	87.38527
532.7319	80.14118
532.8932	74.4799
533.0546	79.42815
533.216	81.30312
533.3774	85.74343
533.5388	85.06491
533.7001	83.57111
533.8615	81.00774
534.0228	80.40292
534.1841	83.54936
534.3455	80.22608
534.5068	85.25329
534.6681	83.59847
534.8293	85.35432
534.9907	84.97345
535.152	85.52756
535.3132	83.43981
535.4745	92.76215
535.6358	95.47186
535.7971	93.5229
535.9583	88.0451
536.1196	85.78558
536.2808	86.2484
536.4421	85.41679
536.6033	85.57908
536.7645	83.04913
536.9258	86.97842
537.087	84.33319
537.2482	80.33347
537.4094	85.72516
537.5706	90.40957
537.7318	89.37608
537.8929	88.38342
538.0541	83.35296
538.2153	83.92356
538.3764	82.17255
538.5376	81.19169
538.6987	89.82483
538.8599	91.49981
539.021	86.60358
539.1821	86.55075
539.3432	85.49255
539.5043	89.59354
539.6655	77.90765
539.8265	77.29551
539.9876	81.51389
540.1487	83.03143
540.3098	83.24148
540.4708	82.08671
540.6319	82.35482
540.793	86.50489
540.954	86.59312
541.1151	85.88096
541.2761	86.67087
541.4371	86.83197
541.5981	86.8849
541.7592	93.20681
541.9202	90.54083
542.0812	87.11868
542.2422	87.9116
542.4031	80.06754
542.5641	84.57032
542.7251	84.42535
542.886	84.03065
543.0471	89.31198
543.208	78.08546
543.369	80.22318
543.5298	84.06067
543.6908	82.47263
543.8517	82.35577
544.0126	86.37066
544.1736	88.47842
544.3345	84.67606
544.4954	85.0162
544.6563	87.39452
544.8171	87.37991
544.978	84.97415
545.1389	86.43407
545.2997	91.92432
545.4606	86.0089
545.6215	86.28297
545.7823	88.97126
545.9432	91.46431
546.104	86.15803
546.2648	89.45598
546.4256	90.70416
546.5864	84.56248
546.7473	85.55573
546.908	87.4622
547.0688	88.536
547.2296	90.36052
547.3904	88.10683
547.5511	89.73841
547.7119	87.57954
547.8727	81.28345
548.0334	83.94897
548.1942	82.90862
548.3549	86.57864
548.5156	91.93533
548.6763	86.69572
548.837	84.92216
548.9977	88.69714
549.1584	85.04867
549.3192	84.44324
549.4798	92.63607
549.6405	92.42307
549.8011	89.64161
549.9619	90.51273
550.1225	87.96294
550.2831	86.54417
550.4438	83.75006
550.6044	83.74911
550.765	89.05214
550.9257	88.84584
551.0863	86.81303
551.2469	87.92599
551.4075	86.13548
551.5681	83.82695
551.7287	88.16668
551.8893	90.26967
552.0498	89.92702
552.2104	89.03211
552.371	86.64954
552.5315	89.67627
552.6921	86.66021
552.8526	83.23471
553.0131	83.67046
553.1736	87.90101
553.3342	82.49353
553.4947	85.77109
553.6552	87.06013
553.8157	83.29915
553.9762	86.66315
554.1367	89.69223
554.2971	80.81097
554.4576	78.66982
554.618	87.49055
554.7785	90.90484
554.939	90.43974
555.0994	84.57893
555.2598	87.32318
555.4203	86.80158
555.5807	87.66184
555.7411	90.02753
555.9015	88.3804
556.0619	86.4459
556.2223	85.63077
556.3827	86.07011
556.5431	83.89467
556.7034	85.53816
556.8638	82.66603
557.0242	80.91359
557.1845	83.47248
557.3448	85.74432
557.5052	77.70595
557.6655	81.29586
557.8259	89.86804
557.9861	82.96836
558.1465	85.62103
558.3068	84.08671
558.467	81.13504
558.6274	81.12035
558.7877	81.89385
558.9479	82.17313
559.1082	84.98174
559.2684	78.87638
559.4287	83.47354
559.5889	79.86758
559.7491	81.34816
559.9094	81.5639
560.0696	76.66373
560.2299	85.00928
560.3901	82.29881
560.5502	84.56596
560.7104	78.98936
560.8707	82.04012
561.0308	82.53422
561.191	87.29137
561.3511	82.26747
561.5114	79.46222
561.6714	80.14325
561.8316	74.07433
561.9918	79.66135
562.1519	77.69123
562.312	85.79426
562.4722	87.14176
562.6323	82.55629
562.7924	75.3193
562.9525	69.52006
563.1125	74.45485
563.2726	80.34402
563.4327	77.66277
563.5928	80.08829
563.7528	78.66202
563.9129	85.79182
564.0729	80.95734
564.233	77.14597
564.393	78.23606
564.553	75.8226
564.7131	75.71606
564.873	75.62601
565.0331	79.92489
565.1931	74.39737
565.353	76.1647
565.5131	78.82333
565.673	72.32387
565.833	75.10225
565.9929	70.56063
566.1529	71.97009
566.3129	71.1514
566.4728	67.34098
566.6328	75.00984
566.7927	71.33141
566.9526	73.06538
567.1125	74.86947
567.2724	72.68451
567.4323	69.94353
567.5922	70.73941
567.7521	71.75803
567.9119	75.90201
568.0718	74.71609
568.2317	67.93729
568.3915	67.42973
568.5514	69.33091
568.7112	67.71558
568.871	71.8791
569.0309	66.37906
569.1907	65.12975
569.3505	70.84398
569.5103	73.24533
569.6701	71.34248
569.8299	70.45473
569.9897	66.67239
570.1495	68.74418
570.3092	71.07356
570.469	69.62366
570.6287	68.92445
570.7885	67.50067
570.9482	66.30531
571.108	70.22478
571.2677	64.24612
571.4274	65.45058
571.5871	72.78621
571.7468	71.61089
571.9066	70.08648
572.0662	69.44166
572.2259	72.2681
572.3856	74.40417
572.5452	71.18991
572.7049	66.0357
572.8646	73.14087
573.0242	68.52096
573.1838	66.91678
573.3435	67.65559
573.5031	70.77942
573.6627	70.99429
573.8223	72.2392
573.9819	69.63291
574.1415	67.99439
574.3011	64.15031
574.4607	65.72218
574.6203	69.2124
574.7798	69.59995
574.9394	69.42343
575.099	66.05066
575.2585	63.40797
575.418	59.67361
575.5776	61.76229
575.7371	63.3448
575.8966	67.71423
576.0562	63.5356
576.2156	65.74586
576.3751	62.50799
576.5346	62.31348
576.6941	63.01807
576.8536	62.80281
577.0131	63.90944
577.1725	62.40718
577.332	58.75953
577.4914	63.39798
577.6508	62.47607
577.8103	63.99201
577.9697	66.48385
578.1291	60.02267
578.2885	60.55021
578.4479	60.1616
578.6073	61.98378
578.7667	65.67586
578.9261	62.24876
579.0854	59.25525
579.2448	63.88486
579.4042	62.49047
579.5635	62.87836
579.7229	61.55086
579.8822	61.56246
580.0416	58.61859
580.2009	59.9198
580.3602	58.10811
580.5195	59.70801
580.6788	63.62034
580.8381	60.77111
580.9974	59.53924
581.1566	57.40198
581.3159	56.38772
581.4752	53.9056
581.6345	61.70674
581.7937	61.05993
581.9529	60.47084
582.1122	63.22345
582.2714	60.73654
582.4306	56.69589
582.5898	55.37901
582.749	58.65374
582.9082	58.35847
583.0674	55.08454
583.2266	55.90891
583.3857	53.04181
583.5449	61.14582
583.7041	60.06515
583.8633	55.27512
584.0224	59.25202
584.1815	55.59552
584.3407	59.31437
584.4998	57.61779
584.6589	56.81282
584.818	60.07259
584.9771	61.80457
585.1362	56.55912
585.2953	57.49345
585.4544	61.3111
585.6135	58.97861
585.7725	56.16398
585.9316	56.7518
586.0906	59.57235
586.2497	58.59161
586.4087	52.54585
586.5677	58.52312
586.7267	60.03391
586.8858	53.73961
587.0448	52.74403
587.2038	51.36835
587.3628	58.44972
587.5218	55.55128
587.6807	58.00184
587.8397	57.43763
587.9987	51.15826
588.1577	56.0592
588.3166	59.92453
588.4755	54.86123
588.6345	53.75918
588.7934	52.6907
588.9523	56.07199
589.1112	48.48077
589.2701	48.65173
589.429	49.32848
589.5879	58.72409
589.7468	50.98178
589.9056	54.29593
590.0645	53.48639
590.2234	53.77631
590.3822	59.9021
590.5411	54.04319
590.6999	57.91611
590.8588	54.85965
591.0176	52.45796
591.1764	53.59256
591.3352	56.1839
591.494	58.63353
591.6528	55.40861
591.8116	55.40371
591.9703	57.55007
592.1291	59.31305
592.2878	54.46337
592.4467	54.44497
592.6053	49.86165
592.7641	52.37173
592.9229	54.77459
593.0816	49.51258
593.2403	52.95431
593.399	55.35475
593.5577	49.93995
593.7164	49.69526
593.8751	54.79549
594.0338	54.99581
594.1924	56.54101
594.3511	55.26218
594.5098	52.93755
594.6684	51.85951
594.8271	53.83846
594.9857	49.58469
595.1443	50.39296
595.303	59.14665
595.4615	52.96116
595.6202	60.23685
595.7787	54.86824
595.9374	49.39218
596.0959	48.28109
596.2545	48.03423
596.4131	52.50526
596.5717	53.43661
596.7302	52.98075
596.8887	50.29484
597.0473	54.98208
597.2058	51.04754
597.3644	54.24373
597.5229	52.85078
597.6814	49.60321
597.8399	52.53093
597.9984	51.18879
598.1569	53.92694
598.3154	56.90644
598.4738	53.68216
598.6323	49.91076
598.7908	50.34467
598.9492	50.1077
599.1076	57.31173
599.2661	54.4699
599.4245	54.11734
599.5829	58.44592
599.7413	53.26333
599.8997	50.77022
600.0581	54.61104
600.2165	52.37343
600.3749	50.88298
600.5333	50.83942
600.6917	53.01802
600.85	55.11024
601.0084	52.12056
601.1667	51.3582
601.325	50.77156
601.4833	57.8576
601.6417	52.26614
601.8	51.7186
601.9583	56.12609
602.1166	50.18143
602.2749	47.74616
602.4332	53.77036
602.5914	53.8987
602.7498	51.08759
602.908	54.23917
603.0662	54.2562
603.2245	54.46665
603.3828	54.80378
603.541	49.2063
603.6992	44.95512
603.8574	46.09015
604.0156	46.4333
604.1738	49.08023
604.332	49.41016
604.4902	50.68565
604.6484	50.45167
604.8065	52.13655
604.9647	51.13363
605.1229	48.83504
605.281	51.73135
605.4391	46.37288
605.5973	51.48307
605.7554	50.36784
605.9135	46.78997
606.0717	51.61222
606.2297	51.74389
606.3878	51.113
606.5459	49.81783
606.704	51.77999
606.8621	48.85427
607.0201	46.79171
607.1782	53.9362
607.3362	52.07661
607.4943	54.6266
607.6523	54.30132
607.8104	49.79367
607.9684	51.68334
608.1264	49.58809
608.2844	47.75298
608.4424	50.24236
608.6003	54.26094
608.7584	51.81462
608.9163	50.00306
609.0743	46.66525
609.2322	47.44008
609.3902	50.51263
609.5482	42.60139
609.7061	41.49764
609.864	41.13314
610.0219	44.08119
610.1798	49.23117
610.3377	49.59883
610.4956	44.66163
610.6535	50.70222
610.8114	48.91301
610.9693	45.48732
611.1271	41.83686
611.285	46.41474
611.4429	48.00084
611.6007	48.79333
611.7585	49.71748
611.9164	49.68077
612.0742	47.94912
612.232	47.87827
612.3898	49.03655
612.5476	48.98782
612.7054	48.27006
612.8632	48.56139
613.0209	46.34291
613.1787	44.50775
613.3365	44.67174
613.4942	45.5519
613.652	44.83046
613.8097	42.24413
613.9674	46.07943
614.1252	48.4972
614.2829	48.31681
614.4406	42.72364
614.5983	50.98721
614.756	45.83079
614.9136	47.09596
615.0714	47.82838
615.229	43.0452
615.3867	45.42007
615.5443	41.40385
615.702	48.51446
615.8596	48.5098
616.0172	47.5299
616.1748	39.30534
616.3325	44.7058
616.4901	41.44365
616.6476	39.11457
616.8052	44.24445
616.9628	39.63921
617.1204	43.20304
617.278	40.59317
617.4355	40.85826
617.5931	41.57656
617.7506	42.84534
617.9081	44.11625
618.0657	51.4173
618.2232	48.65571
618.3807	49.11688
618.5382	43.32474
618.6957	45.21366
618.8532	40.17563
619.0107	40.76257
619.1682	42.24751
619.3256	44.59713
619.4831	39.72929
619.6406	44.38694
619.798	41.26931
619.9554	41.20095
620.1129	45.15085
620.2703	37.9225
620.4277	45.60233
620.5851	44.44186
620.7425	42.99057
620.8998	43.08972
621.0573	43.19072
621.2146	44.3787
621.372	44.74877
621.5294	43.69851
621.6867	50.77136
621.8441	47.51156
622.0013	39.64243
622.1587	42.49878
622.316	42.91505
622.4733	45.4133
622.6306	47.71612
622.7879	42.30855
622.9452	43.13244
623.1025	43.99207
623.2598	43.10599
623.4171	42.673
623.5743	38.68898
623.7316	39.25603
623.8888	46.33233
624.046	44.04684
624.2032	45.51529
624.3605	43.27787
624.5176	40.50173
624.6749	46.70068
624.8321	46.39742
624.9893	43.68539
625.1464	41.18999
625.3036	36.99302
625.4608	45.0188
625.6179	43.04481
625.7751	43.00093
625.9322	45.0039
626.0894	43.33234
626.2465	41.75124
626.4036	45.08023
626.5607	42.12101
626.7178	39.41838
626.8749	42.71293
627.032	41.60263
627.189	43.7957
627.3461	39.36049
627.5032	41.64827
627.6602	42.11964
627.8173	41.80706
627.9743	40.12238
628.1313	39.53674
628.2884	43.73861
628.4454	41.8068
628.6024	38.77495
628.7594	38.14261
628.9164	44.88678
629.0734	38.98646
629.2303	42.30224
629.3873	40.30399
629.5443	39.96864
629.7012	41.23344
629.8582	35.35485
630.0151	42.2424
630.172	43.51808
630.3289	40.54787
630.4858	40.19286
630.6428	43.10921
630.7996	41.86183
630.9565	39.8383
631.1134	44.21312
631.2703	40.18362
631.4272	42.23134
631.584	42.87509
631.7408	39.21655
631.8977	31.98063
632.0546	34.82765
632.2114	37.75106
632.3682	43.06745
632.525	39.81234
632.6818	49.23822
632.8386	44.33495
632.9954	39.47614
633.1522	41.91642
633.3089	42.51234
633.4657	43.86363
633.6224	42.66242
633.7792	39.62873
633.9359	40.67933
634.0927	44.24871
634.2494	41.17385
634.4061	40.52902
634.5628	43.74018
634.7195	38.14433
634.8762	38.20726
635.0329	41.33055
635.1895	37.82375
635.3462	39.34723
635.5029	38.54869
635.6595	37.75575
635.8162	39.28179
635.9728	35.92635
636.1295	40.37991
636.2861	43.13441
636.4427	37.05738
636.5992	40.0562
636.7559	39.00005
636.9124	41.94421
637.069	38.46729
637.2256	39.03092
637.3821	37.40149
637.5387	35.96195
637.6953	36.27845
637.8518	36.93278
638.0084	37.7752
638.1649	46.94437
638.3214	43.11342
638.4779	38.8908
638.6344	43.64561
638.7909	40.17839
638.9474	35.18395
639.1038	45.27074
639.2603	44.69216
639.4167	40.48334
639.5732	40.5813
639.7297	34.70165
639.8861	38.66975
640.0425	39.74437
640.199	37.58848
640.3553	43.42637
640.5118	41.56648
640.6682	39.41987
640.8245	35.68628
640.981	37.20503
641.1373	42.50138
641.2936	41.54338
641.45	37.21033
641.6064	36.24277
641.7627	39.38175
641.9191	35.87435
642.0754	38.50235
642.2317	37.27777
642.388	37.70248
642.5443	36.93511
642.7006	34.90903
642.8569	36.26291
643.0131	34.99803
643.1694	36.63421
643.3257	40.04187
643.4819	34.56395
643.6382	36.63182
643.7944	36.59129
643.9506	37.41824
644.1069	35.3954
644.2631	42.62056
644.4193	38.44907
644.5754	33.89902
644.7316	34.84867
644.8878	35.22704
645.044	37.25182
645.2002	38.01
645.3563	37.15048
645.5125	37.20679
645.6686	40.10236
645.8248	36.73667
645.9809	39.06609
646.137	38.97618
646.2931	32.08318
646.4492	41.31541
646.6053	33.26558
646.7614	38.56052
646.9174	35.63457
647.0735	35.30595
647.2296	32.56905
647.3856	29.45799
647.5417	34.69567
647.6977	35.75906
647.8537	37.33086
648.0098	31.07751
648.1658	38.08989
648.3218	39.81088
648.4777	35.75946
648.6337	35.39898
648.7897	37.86495
648.9457	37.88586
649.1016	34.40229
649.2576	32.25843
649.4135	32.66418
649.5695	36.93591
649.7254	28.88173
649.8813	33.63878
650.0372	38.48019
650.1932	33.48125
650.3491	32.63177
650.5049	37.59377
650.6608	38.98263
650.8167	33.7296
650.9725	33.02323
651.1284	34.98009
651.2842	34.67298
651.4401	36.16654
651.5959	33.9199
651.7518	37.39343
651.9076	32.18753
652.0634	37.00783
652.2192	31.68806
652.3749	30.4307
652.5308	31.09758
652.6865	35.8573
652.8423	40.16586
652.998	38.23886
653.1538	31.19721
653.3096	31.25764
653.4653	37.67658
653.621	36.21244
653.7767	35.91013
653.9324	31.35777
654.0881	32.99788
654.2438	33.10104
654.3995	33.73569
654.5552	40.31728
654.7109	35.06178
654.8665	33.59321
655.0222	38.4673
655.1778	34.57354
655.3334	33.29721
655.4891	31.32852
655.6447	35.32213
655.8003	35.40229
655.9559	33.59133
656.1115	27.66679
656.2671	27.95423
656.4227	27.38617
656.5782	24.66738
656.7338	26.94311
656.8893	30.4535
657.0449	27.13199
657.2004	30.05385
657.356	33.43719
657.5115	35.82725
657.667	32.42683
657.8225	28.37096
657.978	30.63194
658.1335	29.63749
658.289	30.93106
658.4445	34.24788
658.5999	33.61948
658.7554	33.33817
658.9108	40.6561
659.0663	36.86251
659.2217	32.85399
659.3771	35.78558
659.5325	31.71977
659.6879	30.47271
659.8433	36.11548
659.9987	34.4818
660.1541	35.09038
660.3095	34.70165
660.4648	30.26928
660.6202	32.80389
660.7756	32.80116
660.9309	30.63445
661.0862	32.42238
661.2416	30.86129
661.3969	31.25826
661.5522	36.60842
661.7075	29.09403
661.8628	37.04852
662.0181	35.42853
662.1733	28.46178
662.3286	27.60744
662.4839	30.96321
662.6391	35.10708
662.7944	36.46398
662.9496	34.36692
663.1048	32.02911
663.26	30.98312
663.4152	28.62483
663.5704	32.53386
663.7256	31.79451
663.8808	30.48724
664.036	31.10475
664.1912	32.27549
664.3463	23.53038
664.5015	28.98481
664.6566	37.06496
664.8118	36.0904
664.9669	36.00023
665.122	31.08389
665.2771	28.83649
665.4322	31.61393
665.5873	31.52867
665.7424	32.95991
665.8975	31.8459
666.0526	33.77843
666.2076	31.68233
666.3627	31.83357
666.5177	30.28013
666.6727	28.24822
666.8278	28.9287
666.9828	28.89762
667.1378	30.86203
667.2928	29.48977
667.4478	26.56688
667.6028	26.59128
667.7578	27.18893
667.9127	34.45528
668.0677	30.10643
668.2226	33.37349
668.3776	31.43251
668.5325	30.09777
668.6874	32.93461
668.8423	31.11835
668.9973	32.31187
669.1522	30.20557
669.3071	30.90876
669.4619	34.0168
669.6168	31.59162
669.7717	31.89852
669.9265	33.93539
670.0814	31.92732
670.2362	32.45239
670.3911	29.28598
670.5459	26.01611
670.7007	31.99432
670.8555	30.31789
671.0103	31.35625
671.1651	30.05781
671.3199	24.47828
671.4747	28.81987
671.6295	34.31932
671.7842	28.46581
671.939	27.25749
672.0937	27.19471
672.2484	29.63344
672.4031	30.03082
672.5579	31.58011
672.7126	30.94143
672.8673	30.31662
673.022	29.91537
673.1767	29.73963
673.3314	24.63378
673.486	31.70155
673.6407	26.79456
673.7953	26.34584
673.95	25.68118
674.1046	28.34038
674.2592	28.8723
674.4138	26.03179
674.5684	29.76068
674.723	29.37938
674.8776	32.67722
675.0322	30.91196
675.1868	29.03829
675.3414	32.794
675.4959	30.43446
675.6505	30.0629
675.805	33.21641
675.9595	28.13688
676.1141	29.85951
676.2686	28.46157
676.4231	34.22095
676.5776	30.6216
676.7321	27.19986
676.8866	31.14406
677.041	32.13832
677.1955	28.80208
677.35	27.35653
677.5044	28.35867
677.6589	24.74046
677.8133	26.6565
677.9677	27.44141
678.1221	31.26766
678.2766	25.55612
678.4309	26.16713
678.5853	29.04107
678.7397	28.24031
678.8941	30.64676
679.0485	22.79284
679.2028	26.62756
679.3571	28.58307
679.5115	25.81221
679.6658	27.46074
679.8201	28.40729
679.9744	28.78053
680.1288	29.70781
680.2831	25.95076
680.4373	28.4398
680.5916	29.54324
680.7459	32.85531
680.9001	29.65273
681.0544	27.58666
681.2087	28.24708
681.3629	32.43455
681.5171	30.63787
681.6713	29.87569
681.8256	30.46317
681.9797	30.59385
682.134	28.0865
682.2881	26.63903
682.4423	32.40393
682.5965	27.46507
682.7507	27.69866
682.9048	29.87695
683.059	27.01648
683.2131	26.20236
683.3672	31.21551
683.5213	26.06485
683.6754	30.67457
683.8295	27.42827
683.9836	28.20712
684.1377	24.01871
684.2918	29.14834
684.4459	28.48251
684.5999	30.71347
684.754	23.43348
684.908	30.81071
685.062	29.18075
685.2161	29.73824
685.3701	27.6972
685.5241	27.29225
685.6781	33.03465
685.8321	31.42998
685.9861	25.22446
686.14	29.32377
686.294	27.08869
686.4479	27.0667
686.6019	26.35929
686.7559	24.20388
686.9098	21.72242
687.0637	25.11987
687.2176	23.50759
687.3715	27.53548
687.5254	22.01072
687.6793	28.04673
687.8332	27.87633
687.9871	27.90461
688.1409	26.79252
688.2947	27.21267
688.4486	25.60958
688.6024	29.07402
688.7563	30.10846
688.9101	33.15643
689.0639	31.32027
689.2177	27.86064
689.3715	24.74177
689.5253	24.21007
689.6791	25.67875
689.8328	24.94654
689.9866	30.68859
690.1403	26.36024
690.2941	26.62922
690.4478	26.76018
690.6015	29.73145
690.7552	31.02651
690.9089	26.66579
691.0626	29.23504
691.2164	26.5725
691.37	25.1901
691.5237	31.67834
691.6774	29.49748
691.831	22.28154
691.9847	22.34959
692.1383	26.50999
692.2919	31.59609
692.4456	30.29629
692.5992	29.57224
692.7527	32.72961
692.9064	29.00515
693.0599	23.14989
693.2136	24.88665
693.3671	28.13473
693.5207	32.56952
693.6742	31.8934
693.8278	26.38044
693.9813	26.79019
694.1348	27.09876
694.2883	28.18682
694.4418	27.98816
694.5953	26.78584
694.7488	28.4523
694.9023	27.45463
695.0558	26.27485
695.2093	30.41078
695.3627	27.75913
695.5162	32.53646
695.6696	31.29662
695.8231	28.32596
695.9764	32.99274
696.1299	34.95441
696.2833	29.62412
696.4367	33.8394
696.5901	27.32155
696.7435	29.94598
696.8968	30.49824
697.0502	33.55457
697.2036	25.98808
697.3569	32.84222
697.5102	35.64802
697.6635	29.67236
697.8168	29.7385
697.9702	28.2435
698.1235	29.36635
698.2768	29.82649
698.4301	28.40699
698.5833	33.22318
698.7366	30.38815
698.8898	26.53293
699.0431	33.00257
699.1964	31.05659
699.3495	33.8103
699.5028	33.69335
699.656	31.13001
699.8092	32.16493
699.9624	33.66853
700.1156	38.01696
700.2688	32.49775
700.4219	31.64507
700.5751	32.22184
700.7283	34.81299
700.8814	32.80144
701.0345	36.9222
701.1877	32.45884
701.3408	33.12945
701.4939	34.64046
701.647	33.30921
701.8001	38.27482
701.9532	37.14591
702.1063	32.72128
702.2593	36.3853
702.4124	35.04198
702.5654	34.13911
702.7184	26.67359
702.8715	35.01826
703.0245	42.68196
703.1776	39.74727
703.3305	42.23425
703.4835	38.21509
703.6365	36.62691
703.7895	32.12948
703.9424	36.91607
704.0954	37.67871
704.2484	33.09934
704.4013	37.73491
704.5543	35.73104
704.7072	40.37383
704.8601	40.74119
705.013	39.71361
705.1659	36.81871
705.3188	37.20199
705.4717	42.42922
705.6246	42.31469
705.7774	45.27045
705.9303	36.73445
706.0831	39.12196
706.236	37.74201
706.3888	41.43426
706.5416	45.32024
706.6944	48.22367
706.8472	43.57142
707	35.61226
707.1528	43.06068
707.3056	41.913
707.4583	43.48947
707.6111	43.68974
707.7639	44.44904
707.9166	40.95306
708.0693	42.27201
708.222	40.43088
708.3748	39.85421
708.5275	41.87428
708.6802	45.63465
708.8328	46.58734
708.9855	45.52378
709.1382	44.48428
709.2909	45.66914
709.4435	45.16359
709.5962	44.08547
709.7488	40.75016
709.9014	44.1594
710.054	41.92382
710.2067	48.48087
710.3593	47.90963
710.5118	47.5971
710.6644	52.63522
710.817	47.01791
710.9695	45.4377
711.1221	40.35412
711.2747	43.03918
711.4272	45.98147
711.5797	48.82773
711.7322	50.91474
711.8848	53.28519
712.0373	50.1887
712.1898	49.05806
712.3422	45.07068
712.4948	45.0682
712.6472	45.9862
712.7996	47.93295
712.9521	47.2136
713.1046	45.27349
713.257	47.07344
713.4094	49.65744
713.5618	46.32359
713.7142	50.35674
713.8666	54.46719
714.019	48.28468
714.1714	48.04043
714.3237	44.92787
714.4761	43.28124
714.6285	50.57356
714.7808	47.04413
714.9331	47.01655
715.0854	50.08692
715.2378	52.73436
715.3901	50.3086
715.5424	48.53452
715.6947	49.56938
715.8469	50.02633
715.9992	49.26549
716.1515	42.77655
716.3037	46.9575
716.456	44.69913
716.6082	55.45039
716.7604	50.59283
716.9127	43.53788
717.0649	44.68632
717.2171	43.36894
717.3693	45.19544
717.5214	45.093
717.6736	42.81905
717.8258	40.70512
717.978	43.64478
718.1301	44.46967
718.2822	44.99625
718.4344	45.01522
718.5865	43.75347
718.7386	41.31752
718.8907	43.34852
719.0428	46.24178
719.1949	45.32504
719.3469	44.96639
719.499	41.58367
719.6511	42.6195
719.8031	43.61073
719.9551	43.2164
720.1072	42.75105
720.2592	44.47343
720.4112	46.89693
720.5632	50.429
720.7152	45.75213
720.8672	50.25504
721.0192	57.02639
721.1711	57.11184
721.3231	57.28047
721.475	56.85974
721.627	61.7345
721.7789	54.79722
721.9308	59.19171
722.0828	56.74695
722.2347	57.58425
722.3866	53.86917
722.5385	53.78745
722.6903	60.66589
722.8422	63.2992
722.9941	59.66768
723.1459	57.44303
723.2977	54.45574
723.4496	52.4656
723.6014	48.26786
723.7532	50.91396
723.905	56.45626
724.0568	51.59226
724.2086	53.01195
724.3604	53.52343
724.5121	58.51418
724.6639	58.53194
724.8157	58.43029
724.9674	59.65449
725.1191	60.56731
725.2709	60.10168
725.4226	60.37799
725.5743	51.34065
725.726	63.4252
725.8777	65.10964
726.0294	63.28043
726.181	61.92768
726.3327	57.748
726.4844	57.7468
726.636	61.74871
726.7877	63.08587
726.9393	61.73969
727.0909	62.06558
727.2425	63.58422
727.3941	62.67132
727.5457	59.68506
727.6973	57.20988
727.8488	54.6036
728.0004	59.93745
728.1519	64.34832
728.3035	69.60941
728.455	68.27767
728.6066	63.88495
728.7581	59.30545
728.9095	66.77718
729.0611	58.67871
729.2126	56.54069
729.364	62.87975
729.5155	66.78501
729.667	71.44002
729.8184	71.43036
729.9698	72.82847
730.1213	68.49581
730.2727	69.90246
730.4241	66.32731
730.5756	69.84542
730.7269	68.25478
730.8784	74.12283
731.0297	72.68138
731.1811	67.83812
731.3325	71.91462
731.4838	73.19296
731.6351	74.40736
731.7865	76.70175
731.9378	76.53312
732.0891	76.59569
732.2404	80.42311
732.3917	81.1927
732.543	79.9215
732.6943	75.58929
732.8456	75.39034
732.9968	82.23123
733.1481	79.08585
733.2993	79.29657
733.4506	78.3208
733.6018	81.65572
733.753	84.89455
733.9042	87.33998
734.0554	88.67892
734.2066	85.23416
734.3578	79.88627
734.509	79.18958
734.6602	83.95144
734.8113	86.35646
734.9624	81.87352
735.1136	82.87134
735.2647	87.43889
735.4158	89.97548
735.5669	85.3681
735.718	93.04536
735.8691	86.89656
736.0201	84.46469
736.1713	81.95601
736.3223	89.81693
736.4733	85.99783
736.6244	90.25335
736.7755	87.16248
736.9265	85.67455
737.0775	90.78196
737.2285	90.5265
737.3795	98.06721
737.5305	98.79355
737.6815	93.8062
737.8324	93.19704
737.9834	97.36414
738.1343	92.48765
738.2853	92.96188
738.4362	90.33274
738.5871	85.31972
738.738	87.12875
738.8889	92.77434
739.0399	92.75934
739.1907	96.55632
739.3416	92.18331
739.4925	97.40961
739.6433	94.43106
739.7942	89.64136
739.945	89.00754
740.0958	95.94707
740.2467	96.63071
740.3975	94.40745
740.5483	97.43715
740.6991	97.16779
740.8499	96.70492
741.0007	94.86461
741.1514	97.70231
741.3022	98.04233
741.4529	96.6713
741.6036	97.8176
741.7544	98.55621
741.9051	96.07136
742.0558	102.0965
742.2065	98.52204
742.3572	97.12422
742.5079	101.0572
742.6586	102.3566
742.8093	102.192
742.9599	100.9217
743.1105	97.12968
743.2612	100.427
743.4118	103.8166
743.5624	103.0555
743.7131	104.7588
743.8636	109.2123
744.0142	112.2954
744.1648	102.5161
744.3154	104.2775
744.4659	100.8552
744.6165	99.78017
744.767	100.321
744.9176	105.1272
745.0681	103.6321
745.2186	105.4326
745.3691	109.4483
745.5197	102.7371
745.6702	111.1234
745.8206	106.7488
745.9711	108.3199
746.1215	106.8818
746.272	104.2979
746.4224	106.8558
746.5729	105.4105
746.7233	105.311
746.8737	105.0705
747.0241	106.3911
747.1745	105.0711
747.3249	108.2489
747.4753	104.6126
747.6257	101.9204
747.776	102.5859
747.9264	107.3637
748.0767	106.5602
748.2271	104.6131
748.3774	99.36893
748.5276	105.8785
748.678	106.0798
748.8282	104.6442
748.9786	104.8372
749.1288	107.0028
749.2791	110.3033
749.4294	105.8964
749.5796	101.4728
749.7299	103.9481
749.8801	102.5761
750.0303	105.6349
750.1805	104.6513
750.3307	97.32066
750.4809	105.2187
750.6311	105.4501
750.7813	107.0957
750.9314	103.1919
751.0816	106.4161
751.2318	105.2412
751.3818	105.4444
751.532	105.514
751.6821	104.6189
751.8322	103.7084
751.9823	104.0517
752.1324	105.4151
752.2825	107.0617
752.4326	101.0953
752.5826	104.7886
752.7327	103.9215
752.8827	105.4164
753.0327	103.8812
753.1827	96.91383
753.3328	103.3127
753.4828	102.6411
753.6328	105.4162
753.7828	106.2675
753.9327	105.6778
754.0827	102.0569
754.2327	100.544
754.3826	103.3081
754.5325	105.0992
754.6825	103.0472
754.8324	105.3431
754.9823	105.572
755.1322	101.868
755.2821	100.3635
755.432	100.4157
755.5818	104.7778
755.7318	105.4363
755.8816	101.3194
756.0314	99.68243
756.1813	94.83116
756.3311	96.34187
756.4809	100.7372
756.6307	108.4844
756.7805	105.3503
756.9303	103.7488
757.0801	101.4292
757.2299	100.5102
757.3796	100.8173
757.5294	100.6566
757.6791	97.28461
757.8289	100.849
757.9786	99.37988
758.1283	98.47282
758.278	99.48396
758.4277	99.96722
758.5773	88.19556
758.7271	95.44224
758.8767	96.86985
759.0264	95.33398
759.176	92.5414
759.3256	78.18011
759.4753	67.88861
759.6249	53.85761
759.7745	42.11724
759.9241	34.02032
760.0737	34.22795
760.2233	30.74116
760.3729	30.40334
760.5224	24.89202
760.6719	24.24714
760.8215	28.70337
760.971	28.39132
761.1205	26.94406
761.2701	34.85123
761.4196	39.70604
761.5691	51.15311
761.7186	56.23626
761.868	66.678
762.0175	63.88475
762.167	64.3839
762.3164	52.71683
762.4659	47.34141
762.6153	47.04553
762.7647	40.10723
762.9141	40.66381
763.0635	44.10403
763.2129	46.61028
763.3623	43.92507
763.5117	42.47562
763.661	44.90841
763.8104	44.79224
763.9597	45.70042
764.1091	50.83754
764.2584	46.95553
764.4077	52.30957
764.557	50.48095
764.7063	51.98898
764.8556	56.84893
765.0049	58.97685
765.1541	63.09338
765.3034	64.82777
765.4526	59.9024
765.6019	60.38919
765.7511	69.03213
765.9003	66.78263
766.0496	68.52562
766.1987	73.99746
766.348	70.61702
766.4971	74.2578
766.6463	73.90606
766.7955	72.43732
766.9446	74.31386
767.0938	76.81365
767.2429	76.56174
767.392	77.46616
767.5411	74.44676
767.6902	76.41685
767.8394	80.21521
767.9884	78.66787
768.1375	88.44537
768.2866	84.61263
768.4356	90.30223
768.5847	83.6843
768.7337	87.04562
768.8828	86.93215
769.0317	82.60971
769.1808	84.78687
769.3298	82.40553
769.4788	81.03526
769.6277	77.59151
769.7767	80.85979
769.9257	80.01157
770.0746	78.3534
770.2236	81.4373
770.3725	89.84498
770.5214	85.02786
770.6703	83.26181
770.8193	81.73907
770.9681	79.07195
771.1171	85.8978
771.2659	79.49325
771.4148	82.97793
771.5637	84.7587
771.7125	85.5315
771.8613	83.43624
772.0101	80.05867
772.159	81.22625
772.3078	81.63895
772.4566	79.307
772.6054	77.186
772.7542	81.06601
772.903	81.60846
773.0517	77.29314
773.2004	77.23121
773.3492	79.74443
773.4979	81.48814
773.6467	82.41428
773.7953	87.12319
773.944	76.09965
774.0928	77.60868
774.2415	79.25724
774.3901	80.79706
774.5388	84.1299
774.6874	80.80176
774.8361	79.74512
774.9847	71.49403
775.1334	74.90146
775.282	75.18755
775.4305	73.70186
775.5792	76.8655
775.7277	75.82352
775.8763	78.66357
776.0249	76.38272
776.1735	77.92895
776.322	78.36702
776.4705	78.63725
776.6191	78.90089
776.7676	82.36797
776.9161	82.81406
777.0646	77.80402
777.2131	75.48849
777.3616	77.76452
777.5101	76.03615
777.6585	75.3636
777.8069	75.47952
777.9554	71.34393
778.1038	69.59288
778.2523	73.46849
778.4007	75.90437
778.5491	79.38783
778.6974	81.19329
778.8459	79.57518
778.9942	75.96157
779.1426	70.27048
779.291	71.26817
779.4393	78.7261
779.5876	73.66528
779.736	72.2288
779.8843	73.7599
780.0326	73.20274
780.1809	75.71878
780.3292	69.99085
780.4775	73.50217
780.6257	75.69477
780.774	73.81298
780.9222	74.33697
781.0704	76.54787
781.2187	73.35668
781.3669	72.97984
781.5151	77.62636
781.6633	74.74384
781.8115	77.75053
781.9597	73.38493
782.1078	73.46883
782.256	73.5791
782.4042	78.69022
782.5523	76.53074
782.7004	76.77141
782.8486	70.44707
782.9967	71.2151
783.1448	67.51267
783.2929	65.0676
783.441	67.17941
783.5891	71.09276
783.7371	69.40833
783.8851	71.05443
784.0332	70.08187
784.1812	71.11969
784.3293	78.02568
784.4773	75.19674
784.6253	75.48064
784.7733	69.16647
784.9213	69.34043
785.0692	75.34805
785.2172	76.59116
785.3652	69.48627
785.5131	64.86329
785.6611	67.19545
785.809	68.05256
785.9569	65.72308
786.1048	64.30945
786.2527	68.51755
786.4006	68.72157
786.5485	69.19926
786.6964	69.45022
786.8442	64.53932
786.9921	71.0501
787.1399	73.10178
787.2877	71.2655
787.4355	69.71285
787.5833	63.4503
787.7311	65.67062
787.8789	69.64287
788.0267	66.87196
788.1745	70.11976
788.3223	69.52224
788.47	64.87621
788.6177	62.52789
788.7654	66.91984
788.9132	67.20816
789.0609	60.84786
789.2086	63.7466
789.3563	61.56769
789.504	62.76762
789.6517	64.0994
789.7993	66.06148
789.947	68.77844
790.0946	64.84016
790.2422	66.6517
790.3898	71.12045
790.5375	67.90298
790.6851	65.12109
790.8326	59.95143
790.9802	61.82121
791.1278	62.03893
791.2754	66.78117
791.423	69.64906
791.5705	66.71184
791.718	64.72019
791.8655	60.91121
792.0131	62.44201
792.1606	61.70583
792.308	59.91918
792.4556	62.79072
792.603	66.21262
792.7505	66.14021
792.8979	62.18272
793.0454	63.26784
793.1928	61.32759
793.3403	62.77648
793.4877	66.00163
793.6351	64.01813
793.7825	57.49424
793.9299	67.6367
794.0772	58.74615
794.2246	59.63525
794.3719	59.79597
794.5193	64.64205
794.6666	62.99518
794.814	62.22141
794.9613	63.58197
795.1086	62.60188
795.2559	63.26762
795.4032	64.4227
795.5505	64.96371
795.6978	58.67058
795.845	57.82389
795.9922	57.06567
796.1395	59.39582
796.2867	59.31236
796.4339	57.47193
796.5811	60.8919
796.7283	61.78505
796.8755	59.24706
797.0227	61.28295
797.1699	58.76684
797.317	62.72936
797.4642	64.03567
797.6113	61.81546
797.7584	61.62447
797.9056	58.47681
798.0527	56.82879
798.1998	60.32067
798.3469	57.62761
798.494	57.68826
798.641	62.98463
798.7881	64.02029
798.9351	55.13573
799.0822	58.77412
799.2292	56.91269
799.3762	61.6081
799.5232	56.4231
799.6702	53.34747
799.8172	55.0487
799.9642	57.74965
800.1111	53.53798
800.2581	57.26459
800.4051	58.59431
800.552	58.83509
800.6989	54.36089
800.8458	52.28894
800.9927	53.57861
801.1396	56.47668
801.2866	58.58514
801.4334	55.03327
801.5803	57.01787
801.7272	61.11478
801.874	59.03407
802.0209	53.61612
802.1677	57.93489
802.3145	54.29635
802.4613	54.92267
802.6081	51.98769
802.7549	58.28446
802.9017	55.87365
803.0485	56.93026
803.1952	56.48968
803.342	54.66733
803.4887	55.60675
803.6354	51.35778
803.7822	55.63812
803.9289	54.96235
804.0756	55.71154
804.2223	55.66169
804.369	54.59548
804.5156	57.26967
804.6623	52.53697
804.8089	52.96222
804.9556	56.48372
805.1022	51.16179
805.2488	56.01686
805.3954	57.34574
805.542	54.75564
805.6886	51.91807
805.8352	52.00047
805.9818	51.57454
806.1283	54.63877
806.2749	55.12949
806.4214	52.25899
806.5679	51.55866
806.7145	45.84242
806.861	50.8946
807.0074	49.96617
807.154	54.14067
807.3004	47.14662
807.4469	49.29865
807.5934	53.63617
807.7398	53.11786
807.8862	51.04928
808.0327	50.70182
808.1791	56.45309
808.3255	53.02347
808.4719	52.49574
808.6183	47.67185
808.7647	51.29129
808.9111	54.12184
809.0574	53.95148
809.2037	51.39262
809.3501	54.89066
809.4965	52.61911
809.6428	46.27073
809.7891	50.05378
809.9354	47.59375
810.0817	47.82539
810.2279	51.40495
810.3742	53.33143
810.5204	46.25443
810.6667	45.92663
810.8129	45.87754
810.9592	48.22524
811.1054	47.89322
811.2516	45.97032
811.3978	44.80027
811.5439	41.97611
811.6901	49.72271
811.8363	53.69842
811.9825	45.85103
812.1286	45.34691
812.2748	42.93593
812.4209	46.42227
812.567	43.90414
812.7131	43.73202
812.8592	43.519
813.0053	45.5294
813.1514	39.04313
813.2974	39.68635
813.4435	41.34062
813.5895	40.50092
813.7356	41.76334
813.8816	45.27429
814.0276	37.9742
814.1736	40.05878
814.3196	40.77345
814.4656	38.08533
814.6116	43.21241
814.7576	37.24482
814.9035	35.86107
815.0494	34.78405
815.1954	34.32796
815.3413	32.93356
815.4872	38.41357
815.6331	34.99302
815.779	37.37523
815.9249	40.91252
816.0707	38.39151
816.2166	34.36129
816.3625	32.79475
816.5083	30.86604
816.6542	31.93913
816.8	35.38316
816.9458	38.11586
817.0916	39.11634
817.2374	37.68248
817.3832	34.36473
817.5289	37.13095
817.6747	36.80765
817.8204	34.47195
817.9662	30.86408
818.1119	33.71979
818.2576	33.57965
818.4034	37.51863
818.5491	35.6864
818.6948	36.02193
818.8405	37.3168
818.9861	37.3069
819.1318	35.76979
819.2774	32.18567
819.423	31.83185
819.5687	34.94286
819.7143	38.30972
819.8599	36.28874
820.0055	34.0998
820.1511	31.65754
820.2967	33.75687
820.4422	35.38444
820.5878	37.9803
820.7333	43.665
820.8788	40.45007
821.0244	38.97001
821.1699	37.61362
821.3154	32.42756
821.4609	35.27234
821.6064	34.21049
821.7519	36.81
821.8973	35.74068
822.0428	33.48859
822.1882	32.33736
822.3337	28.97592
822.4791	26.85519
822.6245	30.85092
822.7699	28.51989
822.9153	28.77888
823.0607	28.62535
823.2061	25.78212
823.3514	28.65344
823.4968	29.26169
823.6422	36.18972
823.7875	33.98777
823.9328	36.738
824.0781	37.72543
824.2234	33.7253
824.3687	29.49513
824.514	32.58357
824.6592	37.36558
824.8045	37.39365
824.9498	37.57728
825.095	37.69704
825.2402	34.33744
825.3854	40.11235
825.5306	35.17062
825.6758	37.66069
825.821	31.31594
825.9662	32.72004
826.1114	32.80284
826.2565	32.80596
826.4017	39.0758
826.5468	41.27835
826.692	32.65289
826.837	32.15224
826.9822	34.92643
827.1273	34.88038
827.2723	36.2818
827.4174	32.055
827.5625	30.15208
827.7075	32.18182
827.8526	30.58871
827.9976	29.44853
828.1426	32.89725
828.2877	31.96323
828.4327	30.93701
828.5776	33.54082
828.7227	33.2872
828.8676	32.97135
829.0126	36.398
829.1575	35.35827
829.3024	34.14686
829.4474	32.1953
829.5923	31.20666
829.7372	33.12309
829.8821	31.93295
830.027	36.40583
830.1719	37.19752
830.3168	32.71003
830.4616	33.82935
830.6064	34.26123
830.7513	30.70585
830.8961	31.56851
831.041	35.69147
831.1857	34.8082
831.3306	34.50544
831.4753	34.84889
831.6201	31.75547
831.7649	29.54507
831.9096	29.38842
832.0544	31.25625
832.1991	29.17997
832.3438	35.45608
832.4885	35.79561
832.6332	31.56595
832.778	31.01196
832.9226	30.23484
833.0673	35.42723
833.2119	34.41587
833.3566	33.13617
833.5012	28.42726
833.6459	29.58677
833.7905	32.92247
833.9351	31.76386
834.0797	35.93746
834.2243	37.90566
834.3688	32.71954
834.5134	35.07782
834.658	34.54665
834.8026	32.65815
834.9471	32.57996
835.0916	36.90168
835.2361	33.84735
835.3806	32.91167
835.5251	32.35117
835.6696	33.88491
835.8141	29.86956
835.9586	30.60169
836.103	32.61493
836.2474	33.3203
836.3918	29.79325
836.5363	35.57862
836.6807	33.26744
836.8251	30.20866
836.9695	31.46912
837.1138	30.52812
837.2582	30.84552
837.4026	30.68263
837.5469	33.72575
837.6913	33.15187
837.8356	31.9359
837.9799	29.80407
838.1242	35.49362
838.2686	32.96492
838.4128	31.15413
838.5571	27.56938
838.7014	28.89594
838.8456	31.49703
838.9899	34.27019
839.1341	34.43063
839.2783	37.43631
839.4225	32.38042
839.5667	31.66814
839.7109	33.40356
839.8551	32.7768
839.9993	31.25134
840.1434	34.53769
840.2876	29.40164
840.4317	28.9399
840.5759	28.27485
840.72	29.33962
840.8641	30.65304
841.0082	30.95856
841.1523	33.66718
841.2963	31.6381
841.4404	33.37582
841.5845	30.75775
841.7285	32.98933
841.8726	34.15524
842.0165	31.47093
842.1606	27.51196
842.3046	27.62943
842.4485	37.66296
842.5925	34.03269
842.7365	29.54834
842.8805	28.36001
843.0244	27.52626
843.1684	32.35744
843.3123	33.37128
843.4562	29.58488
843.6002	30.62421
843.744	31.98975
843.8879	33.74951
844.0318	33.27953
844.1757	29.07346
844.3195	32.38241
844.4634	31.24962
844.6072	31.98957
844.751	31.41231
844.8948	34.24605
845.0386	28.55418
845.1824	30.95519
845.3262	28.40737
845.47	27.11488
845.6138	29.04962
845.7575	31.74221
845.9012	34.08349
846.045	36.93355
846.1887	31.1987
846.3324	29.07946
846.4761	28.19923
846.6198	28.17458
846.7635	27.778
846.9071	36.38507
847.0508	31.64001
847.1944	33.24738
847.3381	32.93891
847.4817	28.58965
847.6253	31.87365
847.7689	30.35905
847.9125	26.96992
848.0561	31.3788
848.1996	34.16988
848.3432	35.66752
848.4868	30.75682
848.6303	28.98148
848.7738	30.123
848.9174	28.45734
849.0609	25.70504
849.2043	26.56342
849.3478	24.10885
849.4913	28.44488
849.6348	26.76784
849.7782	22.41603
849.9217	24.00396
850.0651	28.08615
850.2086	33.31953
850.3519	28.88851
850.4954	22.6805
850.6387	28.51728
850.7821	33.26524
850.9255	30.67258
851.0688	32.6768
851.2122	29.45148
851.3555	23.15857
851.4988	25.85171
851.6422	29.00551
851.7855	29.15962
851.9288	25.94414
852.0721	27.68707
852.2153	24.56846
852.3586	26.0743
852.5018	29.48498
852.6451	31.29337
852.7883	26.76372
852.9315	29.63637
853.0748	29.52146
853.218	30.70389
853.3611	26.88909
853.5043	27.0651
853.6475	27.31744
853.7906	26.41679
853.9338	25.63409
854.0769	25.23699
854.22	22.16302
854.3632	21.31438
854.5063	25.11164
854.6494	26.75831
854.7924	30.44502
854.9355	29.46027
855.0786	29.89514
855.2216	29.21931
855.3647	26.04622
855.5077	27.6274
855.6507	23.14478
855.7937	31.09826
855.9367	29.54932
856.0797	29.06311
856.2227	27.29688
856.3657	25.44159
856.5086	28.80571
856.6516	30.84464
856.7945	29.01232
856.9374	24.43126
857.0803	25.0623
857.2232	32.65689
857.3661	25.17429
857.509	24.08311
857.6519	25.0988
857.7947	27.79681
857.9376	27.0561
858.0804	22.8569
858.2232	24.7569
858.366	22.44697
858.5089	26.47785
858.6516	30.77998
858.7944	25.67792
858.9372	26.5339
859.08	29.73219
859.2227	25.7721
859.3654	28.72268
859.5082	25.91322
859.6509	22.39619
859.7936	29.48127
859.9363	23.21432
860.079	25.05567
860.2217	28.2199
860.3643	25.59394
860.507	20.95087
860.6496	23.11113
860.7922	26.11922
860.9349	24.32635
861.0775	25.81008
861.2201	25.37233
861.3627	24.79986
861.5052	25.68819
861.6478	24.49878
861.7904	29.04445
861.9329	26.21799
862.0755	21.41693
862.218	23.22284
862.3605	22.3903
862.503	21.70968
862.6455	27.06025
862.788	27.05831
862.9305	23.74335
863.0729	24.56107
863.2154	23.86453
863.3578	26.08191
863.5002	26.77613
863.6426	26.64581
863.7851	24.03411
863.9275	23.16172
864.0698	24.45387
864.2122	21.22067
864.3546	23.55423
864.4969	19.17998
864.6393	20.35535
864.7816	25.49111
864.924	21.58065
865.0662	22.67987
865.2086	21.9512
865.3508	18.71985
865.4931	25.77303
865.6354	19.46402
865.7776	18.91938
865.9199	25.02872
866.0621	24.92756
866.2043	16.68951
866.3466	18.44268
866.4888	13.63828
866.6309	17.1278
866.7731	22.46444
866.9153	23.55708
867.0574	21.90524
867.1996	27.86244
867.3417	18.40179
867.4839	21.24485
867.626	20.92206
867.7681	18.94269
867.9102	24.4073
868.0522	27.15708
868.1943	22.50406
868.3364	22.2035
868.4785	22.95049
868.6205	21.09757
868.7625	25.5659
868.9045	22.76139
869.0465	25.38227
869.1885	23.73013
869.3305	27.01935
869.4725	21.74683
869.6144	21.04898
869.7564	20.18428
869.8983	19.19182
870.0403	20.91079
870.1822	21.27079
870.3241	23.22108
870.466	24.1491
870.6079	19.05367
870.7498	18.41835
870.8916	24.06558
871.0335	19.46217
871.1754	17.07169
871.3171	20.96297
871.459	20.66035
871.6008	24.61509
871.7426	25.35663
871.8844	24.9235
872.0262	24.76781
872.1679	22.94697
872.3097	20.05953
872.4514	25.6142
872.5931	20.23145
872.7349	18.91015
872.8766	18.29457
873.0183	21.46329
873.16	20.3249
873.3017	19.33319
873.4434	21.88347
873.585	23.89549
873.7266	21.18981
873.8683	15.1445
874.0099	21.12107
874.1516	26.32911
874.2932	20.13999
874.4348	16.7501
874.5763	17.12887
874.7179	18.01743
874.8594	15.88301
875.001	22.92576
875.1425	21.95165
875.2841	16.26312
875.4256	19.96806
875.5671	24.4988
875.7086	24.55069
875.85	20.50405
875.9915	22.94414
876.133	21.10167
876.2744	21.1214
876.4159	14.82184
876.5573	18.37616
876.6987	20.99146
876.8401	17.75723
876.9815	18.71864
877.1229	19.60248
877.2643	22.0022
877.4056	22.61236
877.547	17.26045
877.6884	19.74865
877.8297	24.23606
877.971	19.96906
878.1123	17.61133
878.2536	17.41525
878.3949	19.20187
878.5362	19.48386
878.6774	22.14155
878.8187	18.35896
878.9599	18.23827
879.1011	19.66173
879.2424	19.18691
879.3836	20.49548
879.5248	21.09544
879.666	19.28679
879.8071	18.52678
879.9483	12.89379
880.0895	19.48283
880.2306	19.78133
880.3718	20.35384
880.5129	20.06762
880.654	18.88365
880.7951	16.41665
880.9362	13.60569
881.0773	17.08905
881.2183	20.19831
881.3594	20.74607
881.5004	19.62086
881.6414	17.79296
881.7825	21.97424
881.9235	21.11662
882.0645	20.57203
882.2054	16.61864
882.3464	18.75506
882.4874	15.16228
882.6284	19.01345
882.7693	19.57271
882.9103	19.00776
883.0512	19.44557
883.1921	15.3773
883.333	14.33271
883.4739	16.29896
883.6147	15.1091
883.7556	20.83706
883.8965	16.93812
884.0374	16.26952
884.1782	20.13048
884.319	19.66777
884.4598	19.92854
884.6006	15.52361
884.7414	17.94578
884.8822	17.92488
885.0229	16.09918
885.1637	16.22254
885.3044	20.39949
885.4452	19.52122
885.5859	15.11284
885.7266	13.19038
885.8673	14.71928
886.008	16.58293
886.1487	13.34468
886.2894	13.74055
886.43	19.09231
886.5707	16.78819
886.7113	12.73895
886.8519	19.36018
886.9926	14.12762
887.1331	14.53261
887.2737	15.36349
887.4143	16.52376
887.5549	15.21389
887.6954	16.44641
887.836	17.34306
887.9765	10.72208
888.1171	13.89226
888.2576	19.13038
888.3981	12.73719
888.5386	15.59993
888.679	19.12562
888.8195	19.49645
888.96	15.81983
889.1004	16.63045
889.2408	16.93601
889.3813	19.49494
889.5217	21.402
889.6621	19.79171
889.8025	19.4486
889.9429	23.16303
890.0833	17.95925
890.2236	21.87046
890.364	15.44673
890.5043	13.68896
890.6446	16.07091
890.7849	20.3165
890.9252	18.9066
891.0655	18.56717
891.2058	17.43533
891.3461	16.12994
891.4863	17.85138
891.6266	18.55783
891.7668	15.98121
891.907	16.01882
892.0472	15.18252
892.1874	12.87654
892.3276	12.12142
892.4678	16.54543
892.608	16.89127
892.7481	14.57393
892.8883	13.08872
893.0284	15.63766
893.1685	15.76536
893.3087	16.79988
893.4487	15.33837
893.5889	18.71028
893.7289	17.54284
893.869	12.9013
894.009	15.5302
894.1491	15.17159
894.2891	11.33744
894.4291	16.40389
894.5692	13.87611
894.7092	11.61543
894.8491	14.34042
894.9891	19.46193
895.1291	13.11281
895.269	10.10241
895.409	13.83622
895.549	14.94292
895.6888	12.95205
895.8288	18.16119
895.9687	14.48388
896.1086	12.86137
896.2484	17.80621
896.3883	15.20341
896.5281	10.99855
896.668	13.28601
896.8079	17.02576
896.9476	14.12955
897.0875	11.95534
897.2272	13.53802
897.3671	12.41928
897.5068	13.10683
897.6466	12.75726
897.7864	16.48973
897.9261	12.38381
898.0658	13.85579
898.2056	11.50333
898.3453	11.70467
898.4849	11.79006
898.6246	4.277713
898.7643	9.563966
898.904	7.940255
899.0436	3.66354
899.1833	10.5523
899.3229	11.18397
899.4625	12.78263
899.6021	14.98352
899.7417	13.08603
899.8813	11.69363
900.0209	12.68752
900.1605	10.75988
900.3	9.341114
900.4395	9.033694
900.579	13.39083
900.7186	12.07472
900.8581	9.566514
900.9976	4.8942
901.1371	11.3115
901.2766	11.45946
901.416	15.69958
901.5555	14.9535
901.6949	11.05996
901.8344	13.00649
901.9738	12.42476
902.1132	16.89409
902.2526	13.80353
902.3919	14.16498
902.5313	10.17406
902.6707	9.742602
