SPECTRUM DATA FILE
SpectrumCount:	1
PixelCount:	3648
UserName:	ToughBook User
SampleName:	
LightSource:	
Comments:	
DeviceName:	Qwave
DeviceManufacturer:	Broadcom
DeviceSerialNo:	11311

Name:	last spectrum
Date:	2024-05-02T15:05:42.0478777+02:00
ExposureTime:	0.02
TemporalAvg:	1
IntensityUnit:	normalizedCounts
CCDLoadLevel:	0.5065121
Temperature:	28.49026
DiagramColor:	200
ProcessingSteps:	335

Wavelength [nm]	Intensity1
334.421	112.4425
334.5891	113.7345
334.7573	113.5292
334.9254	115.6233
335.0935	113.3564
335.2616	120.6504
335.4297	123.0433
335.5978	121.2069
335.7659	107.6514
335.934	95.63797
336.1021	93.29967
336.2701	101.8695
336.4382	104.297
336.6063	103.8123
336.7744	97.83259
336.9424	93.01163
337.1105	89.71776
337.2785	94.20323
337.4466	103.5435
337.6146	102.6728
337.7827	107.8329
337.9507	109.7961
338.1187	104.1831
338.2867	109.4283
338.4548	117.1997
338.6228	120.1086
338.7908	117.0639
338.9588	118.5976
339.1268	115.3082
339.2948	115.6167
339.4628	112.7187
339.6308	123.5809
339.7988	136.4623
339.9667	137.3122
340.1347	134.6354
340.3027	131.9034
340.4707	125.0224
340.6386	122.8369
340.8066	123.2238
340.9745	127.037
341.1425	128.9941
341.3104	127.0543
341.4784	118.2605
341.6463	129.3851
341.8142	133.319
341.9821	139.5992
342.1501	139.3423
342.318	139.3442
342.4859	138.4733
342.6538	138.4444
342.8217	144.6195
342.9896	144.5832
343.1575	147.2809
343.3254	146.7699
343.4933	139.5071
343.6612	139.7416
343.829	127.91
343.9969	111.5627
344.1648	102.0168
344.3326	102.7932
344.5005	106.9789
344.6683	118.5104
344.8362	134.0806
345.004	140.4239
345.1719	142.7239
345.3397	146.629
345.5075	148.5484
345.6754	144.3014
345.8432	130.5342
346.011	131.6326
346.1788	129.4246
346.3466	132.3992
346.5144	143.9576
346.6822	149.4651
346.85	150.4306
347.0178	145.6458
347.1856	144.2428
347.3534	135.4341
347.5211	127.126
347.6889	134.8856
347.8567	142.0958
348.0244	146.0905
348.1922	143.973
348.3599	150.0146
348.5277	145.7029
348.6954	141.9516
348.8632	144.7146
349.0309	139.2027
349.1986	136.3709
349.3663	141.1821
349.5341	141.612
349.7018	151.5396
349.8695	154.5503
350.0372	172.108
350.2049	182.1746
350.3726	186.4135
350.5403	184.0229
350.7079	181.561
350.8756	174.9357
351.0433	174.5086
351.211	168.8065
351.3786	165.7803
351.5463	164.5003
351.714	174.0648
351.8816	180.5807
352.0493	183.1369
352.2169	162.9572
352.3846	146.5689
352.5522	142.7667
352.7198	155.5206
352.8875	166.4708
353.0551	184.0565
353.2227	190.913
353.3903	198.4696
353.5579	198.7253
353.7255	194.1825
353.8931	203.5999
354.0607	206.9628
354.2283	206.3338
354.3958	209.4848
354.5634	210.4213
354.731	222.3834
354.8986	219.4399
355.0661	212.1927
355.2337	192.3495
355.4012	194.1681
355.5688	196.8806
355.7363	192.8798
355.9039	192.4042
356.0714	193.5292
356.239	194.3501
356.4065	186.7062
356.574	164.7482
356.7415	155.3194
356.909	151.7628
357.0765	149.1962
357.244	157.2004
357.4115	166.8473
357.579	172.467
357.7465	167.4055
357.914	154.5015
358.0815	140.4054
358.249	128.3337
358.4164	128.5682
358.5839	131.5516
358.7513	146.5404
358.9188	160.9302
359.0862	182.3522
359.2537	199.3028
359.4211	222.7876
359.5886	227.9068
359.756	236.5215
359.9234	242.3752
360.0909	243.169
360.2583	230.1112
360.4257	212.1068
360.5931	196.8589
360.7605	193.665
360.9279	186.7465
361.0953	187.2141
361.2627	195.1017
361.4301	202.8357
361.5974	204.6019
361.7648	195.1573
361.9322	184.7614
362.0995	198.9517
362.2669	210.6285
362.4343	239.2722
362.6016	255.3381
362.769	261.3911
362.9363	255.9973
363.1036	225.5114
363.271	205.2287
363.4383	205.8891
363.6056	222.3772
363.7729	232.9588
363.9402	255.3384
364.1075	267.758
364.2748	251.3647
364.4421	242.4177
364.6094	234.5978
364.7767	217.8852
364.944	223.4471
365.1113	250.7084
365.2786	261.4251
365.4458	275.7847
365.6131	296.0089
365.7803	297.0984
365.9476	302.9551
366.1148	300.5977
366.2821	300.2918
366.4493	299.9517
366.6166	288.9411
366.7838	290.1328
366.951	287.268
367.1182	290.4153
367.2855	299.2283
367.4527	304.9595
367.6199	291.5209
367.7871	285.4975
367.9543	270.0418
368.1215	263.9062
368.2886	278.699
368.4558	281.7046
368.623	267.5842
368.7902	273.7529
368.9573	286.4342
369.1245	311.4254
369.2917	324.2908
369.4588	328.7194
369.6259	324.7422
369.7931	332.7788
369.9602	351.0865
370.1274	345.4037
370.2945	320.9973
370.4616	291.4641
370.6287	266.6596
370.7958	260.7963
370.963	280.959
371.1301	324.9989
371.2971	360.4284
371.4643	380.6298
371.6313	374.1744
371.7984	336.5494
371.9655	286.9561
372.1326	256.0724
372.2997	266.3162
372.4667	303.4839
372.6338	326.6639
372.8008	328.1982
372.9679	322.8236
373.1349	306.1083
373.3019	274.9666
373.469	237.1522
373.636	214.8495
373.803	242.0525
373.9701	285.5439
374.1371	314.9287
374.3041	318.4117
374.4711	282.4993
374.6381	245.5343
374.8051	225.5294
374.9721	235.6908
375.1391	272.3618
375.3061	321.9849
375.473	370.2253
375.64	374.8066
375.8069	343.8893
375.9739	324.9673
376.1409	319.1587
376.3078	329.1908
376.4748	324.8312
376.6417	322.9889
376.8087	334.7811
376.9756	339.2873
377.1425	358.2523
377.3094	384.1519
377.4763	411.3622
377.6432	407.2404
377.8102	425.323
377.9771	444.1299
378.144	452.2497
378.3109	458.9259
378.4777	450.7497
378.6446	409.7353
378.8115	384.4311
378.9784	365.1174
379.1452	369.2272
379.3121	360.8052
379.4789	344.6589
379.6458	329.3181
379.8127	327.1079
379.9795	339.9239
380.1463	369.8769
380.3131	414.6866
380.48	441.5335
380.6468	433.0016
380.8136	434.6556
380.9804	440.4628
381.1472	446.9396
381.314	417.1613
381.4808	376.6215
381.6476	350.9929
381.8144	344.902
381.9812	333.223
382.148	320.6853
382.3147	309.5884
382.4815	294.0389
382.6483	264.769
382.815	252.5742
382.9818	263.4334
383.1485	261.8943
383.3153	259.3537
383.482	251.1723
383.6487	254.1339
383.8155	260.4618
383.9822	259.7419
384.1489	288.4373
384.3156	346.6027
384.4823	395.1011
384.649	415.5078
384.8157	426.0841
384.9824	412.2348
385.1491	415.6172
385.3158	408.2719
385.4825	401.1999
385.6491	368.0947
385.8158	343.2061
385.9825	328.3905
386.1491	351.7578
386.3157	395.702
386.4824	430.1368
386.649	434.6212
386.8157	416.6462
386.9823	392.5895
387.1489	364.3753
387.3156	365.3994
387.4821	404.2279
387.6488	426.8674
387.8154	409.9363
387.982	389.4153
388.1486	379.2046
388.3152	386.7813
388.4818	394.8135
388.6483	388.1804
388.8149	372.9198
388.9815	380.9726
389.148	430.1173
389.3146	467.7003
389.4811	494.9916
389.6477	497.059
389.8142	498.9761
389.9808	511.2692
390.1473	507.189
390.3138	484.8452
390.4804	470.6678
390.6469	468.1266
390.8134	498.253
390.9799	535.8082
391.1464	576.0309
391.3129	588.194
391.4794	572.7583
391.6459	566.089
391.8124	551.1313
391.9789	514.4807
392.1453	492.9674
392.3118	474.2195
392.4782	467.5719
392.6447	436.6492
392.8112	381.1819
392.9776	309.0076
393.144	239.2558
393.3105	192.5075
393.4769	185.1671
393.6433	209.3351
393.8098	275.0195
393.9762	347.8608
394.1426	413.9339
394.309	432.2503
394.4754	460.0313
394.6418	503.298
394.8082	555.8226
394.9746	585.9289
395.141	604.46
395.3073	615.5869
395.4737	617.4902
395.64	603.2037
395.8064	607.3432
395.9728	588.0854
396.1391	530.7847
396.3055	443.075
396.4718	373.5523
396.6381	306.8803
396.8045	242.6404
396.9708	225.2128
397.1371	269.8316
397.3034	350.6732
397.4697	442.9377
397.636	516.6949
397.8023	600.727
397.9686	674.5747
398.1349	713.5821
398.3012	716.5649
398.4675	717.9882
398.6337	719.8225
398.8	749.5168
398.9662	781.8586
399.1325	796.3854
399.2988	802.9428
399.465	800.0328
399.6313	796.2731
399.7975	782.6563
399.9637	802.6955
400.1299	832.779
400.2961	841.4695
400.4624	806.6843
400.6286	770.0162
400.7948	785.1208
400.961	818.2994
401.1272	856.3261
401.2934	865.5938
401.4595	885.4473
401.6257	876.5766
401.7919	875.0078
401.9581	885.0373
402.1242	897.0685
402.2904	904.8309
402.4565	897.2762
402.6227	911.5843
402.7888	910.5558
402.955	890.9748
403.1211	838.2423
403.2872	795.4739
403.4533	793.7026
403.6194	851.9075
403.7856	932.9595
403.9517	958.0832
404.1177	948.136
404.2838	907.0614
404.4499	842.8648
404.616	786.9525
404.7821	796.1397
404.9482	867.1812
405.1142	945.8539
405.2803	958.7126
405.4464	930.4576
405.6124	891.7104
405.7784	885.1283
405.9445	871.9223
406.1105	884.0753
406.2766	866.6985
406.4426	835.165
406.6086	845.3386
406.7746	896.873
406.9406	939.454
407.1066	937.5982
407.2726	940.8201
407.4386	945.6858
407.6046	908.6405
407.7706	890.4188
407.9366	907.4568
408.1025	964.6113
408.2685	1007.159
408.4344	1013.59
408.6004	1008.474
408.7664	1040.326
408.9323	1086.14
409.0983	1108.392
409.2642	1077.671
409.4301	1045.7
409.596	1006.498
409.762	965.7545
409.9279	919.1772
410.0938	851.7862
410.2597	792.8832
410.4256	830.4016
410.5915	923.8402
410.7574	1000.979
410.9232	1034.852
411.0891	1040.913
411.255	1050.73
411.4209	1087.257
411.5867	1116.789
411.7526	1127.414
411.9184	1104.589
412.0843	1083.078
412.2501	1086.527
412.4159	1081.472
412.5818	1089.042
412.7476	1080.239
412.9134	1069.128
413.0792	1044.454
413.245	1003.307
413.4108	1003.332
413.5766	1040.387
413.7424	1117.964
413.9082	1164.983
414.074	1144.292
414.2397	1099.7
414.4055	1035.012
414.5713	1039.137
414.737	1081.042
414.9028	1114.939
415.0685	1118.16
415.2343	1101.432
415.4	1075.371
415.5658	1065.042
415.7315	1056.284
415.8972	1073.65
416.0629	1136.697
416.2286	1184.692
416.3943	1205.156
416.56	1193.729
416.7257	1160.996
416.8914	1152.046
417.0571	1115.754
417.2228	1076.235
417.3884	1058.603
417.5541	1061.953
417.7198	1084.93
417.8854	1107.367
418.0511	1125.391
418.2167	1128.482
418.3824	1130.188
418.548	1138.717
418.7136	1121.787
418.8792	1110.745
419.0449	1142.344
419.2105	1209.628
419.3761	1246.766
419.5417	1221.02
419.7073	1155.274
419.8729	1090.346
420.0385	1085.822
420.204	1097.593
420.3696	1139.79
420.5352	1195.692
420.7007	1265.479
420.8663	1285.239
421.0319	1300.364
421.1974	1315.514
421.3629	1319.256
421.5285	1277.146
421.694	1232.744
421.8595	1250.488
422.0251	1286.341
422.1906	1317.422
422.3561	1285.302
422.5216	1146.431
422.6871	1014.687
422.8526	1034.521
423.0181	1159.61
423.1835	1282.163
423.349	1294.926
423.5145	1245.366
423.68	1198.483
423.8454	1189.984
424.0109	1218.342
424.1763	1272.87
424.3418	1296.874
424.5072	1327.484
424.6726	1305.848
424.838	1245.031
425.0035	1177.477
425.1689	1196.767
425.3343	1231.147
425.4997	1240.462
425.6651	1255.189
425.8305	1245.572
425.9959	1198.165
426.1613	1164.281
426.3267	1227.651
426.492	1325.457
426.6574	1359.552
426.8228	1299.293
426.9881	1220.882
427.1534	1126.837
427.3188	1066.351
427.4841	1095.463
427.6495	1189.366
427.8148	1257.424
427.9801	1289.102
428.1454	1265.878
428.3107	1255.758
428.476	1237.853
428.6414	1218.64
428.8066	1184.601
428.9719	1135.046
429.1372	1132.198
429.3025	1160.667
429.4678	1198.484
429.633	1176.562
429.7983	1071.571
429.9636	971.8633
430.1288	887.6559
430.294	879.2214
430.4593	899.6793
430.6245	900.6953
430.7897	887.0265
430.955	859.7962
431.1202	874.9321
431.2854	978.5623
431.4506	1143.034
431.6158	1338.251
431.781	1486.782
431.9462	1544.404
432.1114	1505.614
432.2766	1409.285
432.4417	1237.9
432.6069	1126.995
432.772	1186.291
432.9372	1359.751
433.1024	1485.145
433.2675	1519.751
433.4326	1511.458
433.5977	1484.609
433.7629	1358.713
433.928	1193.224
434.0931	1069.204
434.2582	1122.618
434.4233	1243.517
434.5884	1390.487
434.7535	1462.395
434.9186	1509.537
435.0837	1465.622
435.2488	1407.961
435.4138	1387.428
435.5789	1426.167
435.744	1513.524
435.909	1514.488
436.0741	1550.865
436.2391	1591.593
436.4042	1634.433
436.5692	1648.712
436.7342	1615.809
436.8992	1586.895
437.0643	1554.533
437.2293	1545.421
437.3943	1492.064
437.5593	1436.138
437.7243	1466.068
437.8893	1523.762
438.0542	1545.554
438.2192	1443.552
438.3842	1281.421
438.5491	1217.706
438.7141	1298.189
438.8791	1417.113
439.044	1468.076
439.209	1485.621
439.3739	1503.051
439.5388	1536.938
439.7037	1577.324
439.8687	1596.879
440.0336	1596.463
440.1985	1545.269
440.3634	1482.597
440.5283	1437.514
440.6932	1447.899
440.8581	1501.33
441.0229	1601.419
441.1878	1662.554
441.3527	1684.083
441.5175	1620.161
441.6824	1595.925
441.8472	1637.466
442.0121	1727.119
442.1769	1746.606
442.3418	1700.333
442.5066	1661.359
442.6714	1683.36
442.8362	1721.427
443.001	1719.021
443.1659	1721.079
443.3307	1684.695
443.4955	1645.412
443.6602	1634.624
443.825	1693.82
443.9898	1762.892
444.1546	1742.034
444.3193	1686.57
444.4841	1701.208
444.6488	1757.831
444.8136	1788.901
444.9783	1784.916
445.1431	1791.373
445.3078	1757.268
445.4725	1661.28
445.6372	1594.172
445.802	1570.018
445.9667	1592.674
446.1314	1598.611
446.2961	1640.243
446.4608	1715.864
446.6255	1763.146
446.7901	1771.004
446.9548	1757.373
447.1195	1760.55
447.2841	1812.527
447.4488	1885.552
447.6134	1923.433
447.7781	1928.847
447.9427	1880.151
448.1074	1815.431
448.272	1775.251
448.4366	1817.004
448.6012	1906.677
448.7658	1940.291
448.9305	1887.606
449.095	1849.32
449.2596	1855.633
449.4242	1884.248
449.5888	1882.931
449.7534	1894.846
449.9179	1925.731
450.0825	1969.818
450.2471	1995.916
450.4116	2042.119
450.5762	2093.456
450.7407	2110.369
450.9052	2095.753
451.0698	2096.797
451.2343	2069.11
451.3988	2036.736
451.5633	2012.131
451.7278	1987.079
451.8923	1989.877
452.0568	2023.753
452.2213	2034.648
452.3858	2008.332
452.5503	1927.553
452.7148	1853.735
452.8792	1792.875
453.0437	1792.635
453.2081	1813.177
453.3726	1830.948
453.537	1850.396
453.7015	1891.277
453.8659	1968.641
454.0303	2033.988
454.1947	2036.571
454.3592	2023.004
454.5236	1990.968
454.688	1964.575
454.8524	1924.97
455.0168	1902.49
455.1811	1912.334
455.3455	1907.718
455.5099	1924.558
455.6743	1950.479
455.8386	1997.523
456.003	2051.619
456.1673	2098.971
456.3317	2058.874
456.496	2010.086
456.6603	1980.958
456.8246	2016.832
456.989	2058.359
457.1533	2029.892
457.3176	2034.249
457.4819	2058.301
457.6462	2093.552
457.8105	2090.859
457.9748	2037.559
458.1391	1952.866
458.3033	1911.917
458.4676	1893.409
458.6319	1916.446
458.7961	1978.378
458.9604	2017.959
459.1246	2010.425
459.2888	1976.957
459.4531	1988.687
459.6173	1967.968
459.7815	1966.191
459.9457	1973.241
460.11	1967.591
460.2741	1991.037
460.4384	1993.193
460.6025	2002.618
460.7667	2056.477
460.9309	2098.421
461.0951	2093.569
461.2592	2080.433
461.4234	2054.599
461.5876	2067.702
461.7517	2067.589
461.9159	2060.779
462.08	2081.587
462.2441	2097.735
462.4082	2115.784
462.5724	2106.102
462.7365	2103.827
462.9006	2107.026
463.0647	2123.934
463.2288	2115.115
463.3929	2106.635
463.557	2097.848
463.721	2060.513
463.8851	2042.378
464.0492	2052.012
464.2132	2071.978
464.3773	2093.074
464.5414	2046.766
464.7054	1989.342
464.8694	1982.038
465.0334	2012.846
465.1975	2074.744
465.3615	2108.216
465.5255	2081.153
465.6895	2070.911
465.8535	2114.665
466.0175	2172.659
466.1815	2190.567
466.3455	2146.492
466.5095	2094.823
466.6734	1998.457
466.8374	1941.496
467.0014	1957.463
467.1653	2041.405
467.3293	2118.517
467.4932	2163.579
467.6571	2171.044
467.8211	2154.203
467.985	2131.273
468.1489	2090.147
468.3128	2098.979
468.4767	2145.177
468.6406	2182.971
468.8045	2198.982
468.9684	2178.225
469.1323	2161.14
469.2962	2146.911
469.46	2164.127
469.6239	2219.663
469.7878	2195.125
469.9516	2127.666
470.1154	2063.034
470.2793	2037.51
470.4431	2034.109
470.607	2050.092
470.7708	2085.765
470.9346	2070.84
471.0984	2096.221
471.2622	2133.202
471.426	2158.97
471.5898	2159.98
471.7536	2187.658
471.9174	2249.782
472.0811	2279.885
472.2449	2277.733
472.4087	2280.872
472.5724	2260.947
472.7362	2203.577
472.8999	2136.595
473.0637	2092.582
473.2274	2103.54
473.3911	2150.4
473.5548	2151.501
473.7185	2138.609
473.8822	2148.991
474.0459	2167.053
474.2096	2213.102
474.3733	2229.787
474.537	2229.532
474.7007	2245.458
474.8643	2240.109
475.028	2238.25
475.1917	2219.736
475.3553	2176.084
475.519	2129.593
475.6826	2130.22
475.8463	2143.117
476.0099	2174.016
476.1735	2176.79
476.3371	2129.677
476.5007	2075.551
476.6643	2047.456
476.8279	2091.336
476.9915	2147.31
477.1551	2175.683
477.3187	2188.245
477.4823	2228.64
477.6458	2254.709
477.8094	2252.767
477.9729	2270.422
478.1365	2263.155
478.3	2216.691
478.4636	2180.295
478.6271	2160.618
478.7906	2134.308
478.9541	2135.461
479.1176	2166.758
479.2812	2209.941
479.4447	2254.028
479.6082	2274.752
479.7716	2246.629
479.9351	2222.669
480.0986	2191.534
480.2621	2185.01
480.4255	2190.609
480.589	2209.236
480.7524	2188.413
480.9159	2175.901
481.0793	2196.766
481.2428	2189.93
481.4062	2212.641
481.5696	2247.997
481.733	2261.424
481.8964	2290.439
482.0598	2279.521
482.2232	2240.688
482.3866	2199.645
482.55	2194.374
482.7134	2205.862
482.8768	2241.923
483.0401	2216.91
483.2035	2202.614
483.3668	2210.722
483.5302	2215.966
483.6935	2226.602
483.8568	2194.009
484.0202	2160.395
484.1835	2144.88
484.3468	2151.391
484.5101	2179.942
484.6734	2209.104
484.8367	2196.422
485	2189.162
485.1633	2192.746
485.3266	2156.412
485.4899	2085.114
485.6531	2016.717
485.8164	1939.36
485.9796	1792.732
486.1429	1612.788
486.3061	1563.325
486.4694	1685.103
486.6326	1874.012
486.7958	2014.058
486.959	2029.087
487.1223	2005.978
487.2855	1962.991
487.4486	1985.14
487.6118	2077.767
487.775	2131.604
487.9382	2152.669
488.1014	2187.104
488.2646	2192.771
488.4277	2170.075
488.5909	2138.409
488.754	2084.308
488.9171	2022.411
489.0803	1995.468
489.2434	1994.093
489.4066	2088.744
489.5697	2210.678
489.7328	2289.348
489.8959	2301.113
490.059	2268.277
490.2221	2224.964
490.3852	2199.081
490.5482	2196.776
490.7113	2229.299
490.8744	2207.33
491.0374	2125.573
491.2005	2084.213
491.3636	2124.479
491.5266	2183.027
491.6896	2170.357
491.8527	2066.448
492.0157	1951.803
492.1787	1901.744
492.3417	1957.413
492.5047	2049.627
492.6677	2144.819
492.8307	2190.676
492.9937	2218.778
493.1567	2222.273
493.3196	2185.492
493.4826	2138.25
493.6456	2102.086
493.8085	2066.977
493.9715	2065.909
494.1344	2103
494.2974	2183.675
494.4603	2233.816
494.6232	2234.839
494.7861	2253.77
494.949	2248.719
495.1119	2261.493
495.2748	2258.907
495.4377	2217.711
495.6006	2159.292
495.7635	2064.96
495.9264	2055.678
496.0892	2144.627
496.2521	2245.531
496.4149	2272.408
496.5778	2238.247
496.7407	2199.849
496.9035	2170.137
497.0663	2168.466
497.2291	2205.833
497.3919	2239.868
497.5547	2274.738
497.7176	2257.504
497.8804	2206.729
498.0432	2164.61
498.2059	2077.688
498.3687	2000.577
498.5315	1981.51
498.6942	2060.065
498.857	2174.393
499.0198	2216.426
499.1825	2219.723
499.3452	2191.587
499.508	2192.376
499.6707	2214.538
499.8334	2214.431
499.9962	2171.84
500.1589	2128.753
500.3216	2105.862
500.4843	2082.458
500.6469	2042.745
500.8096	2065.977
500.9723	2114.909
501.135	2158.765
501.2976	2118.184
501.4603	2056.481
501.623	2032.089
501.7856	2040.358
501.9482	2066.453
502.1109	2100.957
502.2735	2125.787
502.4361	2150.107
502.5987	2159.172
502.7614	2169.374
502.924	2166.081
503.0865	2209.849
503.2491	2261.046
503.4117	2279.538
503.5743	2240.668
503.7368	2175.581
503.8994	2113.575
504.062	2037.886
504.2245	2005.532
504.3871	2093.34
504.5496	2208.958
504.7121	2279.807
504.8746	2252.375
505.0372	2181.698
505.1997	2159.013
505.3622	2186.536
505.5247	2230.292
505.6872	2277.066
505.8497	2298.361
506.0121	2326.414
506.1746	2349.394
506.3371	2319.072
506.4995	2277.353
506.662	2214.703
506.8244	2200.163
506.9869	2208.331
507.1493	2228.231
507.3117	2221.488
507.4742	2210.316
507.6366	2210.383
507.799	2167.774
507.9614	2124.645
508.1238	2081.27
508.2862	2069.191
508.4485	2110.621
508.6109	2201.862
508.7733	2221.564
508.9357	2218.339
509.098	2229.369
509.2604	2260.048
509.4227	2262.246
509.5851	2246.767
509.7474	2177.092
509.9097	2103.073
510.072	2095.893
510.2343	2141.485
510.3966	2192.459
510.5589	2194.251
510.7212	2140.921
510.8835	2117.43
511.0458	2104.384
511.2081	2147.448
511.3703	2192.42
511.5326	2199.445
511.6949	2225.389
511.8571	2248.087
512.0193	2231.656
512.1816	2189.487
512.3438	2129.031
512.506	2062.274
512.6682	2041.333
512.8304	2055.003
512.9926	2081.595
513.1548	2084.318
513.317	2087.057
513.4792	2090.079
513.6414	2080.004
513.8035	2043.662
513.9657	1996.407
514.1279	1967.803
514.29	1977.43
514.4521	2004.696
514.6143	2013.918
514.7764	2010.148
514.9385	2011.096
515.1006	2045.261
515.2628	2055.232
515.4249	2032.31
515.587	2040.16
515.7491	2063.437
515.9111	2092.313
516.0732	2095.298
516.2353	2058.999
516.3973	1997.532
516.5594	1865.957
516.7214	1719.919
516.8835	1641.809
517.0455	1636.226
517.2076	1628.973
517.3696	1624.751
517.5316	1735.549
517.6937	1910.759
517.8557	2033.298
518.0176	2036.646
518.1796	1922.824
518.3416	1721.005
518.5036	1609.224
518.6656	1698.425
518.8275	1884.969
518.9895	1979.285
519.1514	1977.951
519.3134	1942.807
519.4753	1927.173
519.6373	1955.367
519.7992	1979.18
519.9611	2030.855
520.123	2073.865
520.2849	2082.652
520.4468	2036.652
520.6087	1976.863
520.7706	1932.615
520.9325	1929.513
521.0944	2003.754
521.2562	2074.652
521.4181	2097.19
521.58	2078.479
521.7418	2041.067
521.9036	2043.826
522.0655	2109.286
522.2273	2145.305
522.3891	2105.171
522.551	2033.164
522.7128	1931.803
522.8746	1912.426
523.0363	1966.286
523.1981	2026.395
523.3599	2025.345
523.5217	2017.407
523.6835	2050.054
523.8452	2130.26
524.007	2164.244
524.1687	2185.163
524.3304	2156.866
524.4922	2161.366
524.6539	2162.118
524.8157	2141.598
524.9774	2116.104
525.1391	2102.339
525.3008	2103.176
525.4625	2119.978
525.6241	2135.48
525.7858	2170.926
525.9475	2192.295
526.1092	2158.099
526.2709	2055.806
526.4325	1947.035
526.5942	1858.212
526.7558	1815.041
526.9174	1807.207
527.079	1831.712
527.2407	1868.133
527.4023	1939.331
527.5639	1998.469
527.7255	2041.89
527.8871	2100.258
528.0487	2124.328
528.2103	2097.432
528.3718	2062.431
528.5334	2067.449
528.695	2146.157
528.8565	2197.506
529.0181	2235.707
529.1796	2241.561
529.3412	2234.5
529.5027	2196.525
529.6642	2134.433
529.8257	2044.615
529.9872	2030.683
530.1487	2053.82
530.3102	2090.27
530.4717	2122.653
530.6332	2160.02
530.7947	2166.719
530.9562	2188.665
531.1176	2187.224
531.2791	2176.056
531.4405	2175.479
531.6019	2148.334
531.7634	2111.908
531.9248	2113.63
532.0862	2111.087
532.2477	2097.938
532.4091	2047.849
532.5704	1981.589
532.7319	1900.043
532.8932	1859.267
533.0546	1886.109
533.216	1958.523
533.3774	2030.166
533.5388	2064.491
533.7001	2081.434
533.8615	2052.697
534.0228	1989.434
534.1841	1972.522
534.3455	1987.189
534.5068	2004.607
534.6681	2013.706
534.8293	2012.184
534.9907	2000.631
535.152	2017.189
535.3132	2054.807
535.4745	2080.286
535.6358	2101.412
535.7971	2096.254
535.9583	2086.517
536.1196	2079.432
536.2808	2050.619
536.4421	2003.786
536.6033	1956.366
536.7645	1924.406
536.9258	1899.089
537.087	1860.286
537.2482	1837.958
537.4094	1892.121
537.5706	1984.224
537.7318	2014.534
537.8929	2009.36
538.0541	1987.15
538.2153	1978.115
538.3764	1964.392
538.5376	1947.028
538.6987	1973.431
538.8599	1997.646
539.021	1971.776
539.1821	1919.181
539.3432	1889.172
539.5043	1875.047
539.6655	1857.699
539.8265	1845.987
539.9876	1853.602
540.1487	1853.067
540.3098	1855.931
540.4708	1835.595
540.6319	1785.349
540.793	1779.094
540.954	1808.545
541.1151	1841.918
541.2761	1848.858
541.4371	1877.684
541.5981	1895.163
541.7592	1901.474
541.9202	1922.323
542.0812	1928.972
542.2422	1894
542.4031	1865.532
542.5641	1875.489
542.7251	1896.605
542.886	1877.758
543.0471	1857.962
543.208	1839.033
543.369	1836.402
543.5298	1830.334
543.6908	1845.258
543.8517	1894.242
544.0126	1931.546
544.1736	1955.443
544.3345	1951.554
544.4954	1923.955
544.6563	1854.878
544.8171	1823.848
544.978	1864.042
545.1389	1925.611
545.2997	1931.869
545.4606	1894.101
545.6215	1855.469
545.7823	1863.603
545.9432	1899.865
546.104	1932.006
546.2648	1913.113
546.4256	1858.111
546.5864	1846.826
546.7473	1879.896
546.908	1915.755
547.0688	1929.986
547.2296	1910.423
547.3904	1894.532
547.5511	1855.469
547.7119	1812.755
547.8727	1800.894
548.0334	1827.734
548.1942	1837.918
548.3549	1853.887
548.5156	1893.643
548.6763	1917.901
548.837	1898.98
548.9977	1892.555
549.1584	1891.998
549.3192	1902.43
549.4798	1900.498
549.6405	1885.636
549.8011	1892.536
549.9619	1901.165
550.1225	1876.71
550.2831	1864.743
550.4438	1848.619
550.6044	1856.465
550.765	1861.037
550.9257	1859.969
551.0863	1874.896
551.2469	1856.964
551.4075	1827.597
551.5681	1846.808
551.7287	1886.377
551.8893	1902.007
552.0498	1903.189
552.2104	1897.597
552.371	1902.892
552.5315	1887.777
552.6921	1841.022
552.8526	1793.025
553.0131	1788.902
553.1736	1816.928
553.3342	1842.833
553.4947	1841.369
553.6552	1817.818
553.8157	1830.628
553.9762	1847.412
554.1367	1850.294
554.2971	1844.42
554.4576	1822.151
554.618	1827.918
554.7785	1843.985
554.939	1844.696
555.0994	1852.9
555.2598	1842.874
555.4203	1809.893
555.5807	1789.342
555.7411	1776.823
555.9015	1799.235
556.0619	1794.724
556.2223	1789.688
556.3827	1752.312
556.5431	1748.053
556.7034	1749.07
556.8638	1742.945
557.0242	1730.659
557.1845	1707.909
557.3448	1708.711
557.5052	1706.781
557.6655	1710.115
557.8259	1739.594
557.9861	1745.057
558.1465	1745.994
558.3068	1742.763
558.467	1703.691
558.6274	1671.196
558.7877	1625.628
558.9479	1602.753
559.1082	1608.222
559.2684	1634.395
559.4287	1631.685
559.5889	1640.134
559.7491	1663.129
559.9094	1658.339
560.0696	1630.503
560.2299	1608.468
560.3901	1622.642
560.5502	1657.368
560.7104	1708.349
560.8707	1727.875
561.0308	1728.841
561.191	1720.997
561.3511	1698.801
561.5114	1642.604
561.6714	1589.898
561.8316	1602.968
561.9918	1626.87
562.1519	1664.804
562.312	1668.714
562.4722	1645.572
562.6323	1622.948
562.7924	1638.866
562.9525	1664.272
563.1125	1691.91
563.2726	1699.382
563.4327	1670.298
563.5928	1634.556
563.7528	1637.011
563.9129	1632.193
564.0729	1625.445
564.233	1630.738
564.393	1635.633
564.553	1624.605
564.7131	1642.458
564.873	1646.852
565.0331	1643.695
565.1931	1620.457
565.353	1619.58
565.5131	1616.681
565.673	1593.535
565.833	1548.536
565.9929	1542.689
566.1529	1561.628
566.3129	1571.847
566.4728	1572.93
566.6328	1591.534
566.7927	1602.142
566.9526	1611.251
567.1125	1617.984
567.2724	1633.53
567.4323	1646.755
567.5922	1638.448
567.7521	1618.114
567.9119	1612.923
568.0718	1614.34
568.2317	1585.865
568.3915	1561.117
568.5514	1551.987
568.7112	1544.869
568.871	1544.256
569.0309	1545.615
569.1907	1564.483
569.3505	1576.938
569.5103	1569.984
569.6701	1569.975
569.8299	1570.934
569.9897	1566.533
570.1495	1543.901
570.3092	1543.046
570.469	1545.319
570.6287	1536.233
570.7885	1513.808
570.9482	1473.592
571.108	1453.13
571.2677	1461.392
571.4274	1501.874
571.5871	1526.31
571.7468	1544.251
571.9066	1543.001
572.0662	1561.346
572.2259	1581.095
572.3856	1586.224
572.5452	1585.542
572.7049	1571.957
572.8646	1571.623
573.0242	1561.764
573.1838	1543.944
573.3435	1552.973
573.5031	1556.576
573.6627	1567.549
573.8223	1579.494
573.9819	1566.132
574.1415	1556.708
574.3011	1552.176
574.4607	1561.583
574.6203	1557.992
574.7798	1535.278
574.9394	1516.638
575.099	1495
575.2585	1469.533
575.418	1464.979
575.5776	1469.267
575.7371	1473.222
575.8966	1498.089
576.0562	1505.116
576.2156	1484.223
576.3751	1481.463
576.5346	1504.246
576.6941	1517.805
576.8536	1529.711
577.0131	1525.573
577.1725	1520.895
577.332	1509.773
577.4914	1506.314
577.6508	1515.263
577.8103	1490.672
577.9697	1471.028
578.1291	1450.174
578.2885	1451.049
578.4479	1424.292
578.6073	1429.631
578.7667	1442.412
578.9261	1459.144
579.0854	1447.915
579.2448	1444.214
579.4042	1444.599
579.5635	1448.226
579.7229	1447.146
579.8822	1460.332
580.0416	1444.11
580.2009	1457.492
580.3602	1454.647
580.5195	1439.474
580.6788	1440.08
580.8381	1436.099
580.9974	1444.36
581.1566	1437.006
581.3159	1436.255
581.4752	1426.982
581.6345	1426.316
581.7937	1424.35
581.9529	1431.209
582.1122	1443.311
582.2714	1428.984
582.4306	1423.239
582.5898	1412.482
582.749	1416.969
582.9082	1426.084
583.0674	1417.951
583.2266	1416.235
583.3857	1397.156
583.5449	1403.804
583.7041	1413.444
583.8633	1409.071
584.0224	1404.248
584.1815	1399.767
584.3407	1394.163
584.4998	1390.397
584.6589	1391.329
584.818	1391.109
584.9771	1382.726
585.1362	1378.371
585.2953	1364.673
585.4544	1348.223
585.6135	1329.785
585.7725	1317.253
585.9316	1320.056
586.0906	1327.682
586.2497	1326.013
586.4087	1339.728
586.5677	1337.785
586.7267	1316.226
586.8858	1326.942
587.0448	1335.62
587.2038	1340.657
587.3628	1335.118
587.5218	1335.467
587.6807	1321.546
587.8397	1316.622
587.9987	1307.044
588.1577	1304.884
588.3166	1290.954
588.4755	1282.831
588.6345	1249.327
588.7934	1217.864
588.9523	1167.463
589.1112	1130.156
589.2701	1120.472
589.429	1124.697
589.5879	1130.568
589.7468	1149.279
589.9056	1161.207
590.0645	1187.19
590.2234	1198.939
590.3822	1215.494
590.5411	1236.545
590.6999	1246.23
590.8588	1247.492
591.0176	1239.048
591.1764	1226.831
591.3352	1239.602
591.494	1215.672
591.6528	1216.206
591.8116	1220.026
591.9703	1204.68
592.1291	1198.45
592.2878	1217.969
592.4467	1225.399
592.6053	1209.856
592.7641	1220.428
592.9229	1224.705
593.0816	1226.805
593.2403	1211.185
593.399	1214.519
593.5577	1219.29
593.7164	1227.387
593.8751	1227.325
594.0338	1228.961
594.1924	1217.67
594.3511	1194.88
594.5098	1192.309
594.6684	1192.544
594.8271	1194.65
594.9857	1179.063
595.1443	1185.018
595.303	1197.508
595.4615	1204.466
595.6202	1209.814
595.7787	1197.836
595.9374	1198.182
596.0959	1208.901
596.2545	1222.808
596.4131	1220.92
596.5717	1215.532
596.7302	1214.722
596.8887	1204.687
597.0473	1204.677
597.2058	1228.022
597.3644	1214.653
597.5229	1205.035
597.6814	1196.757
597.8399	1181.307
597.9984	1194.316
598.1569	1184.816
598.3154	1182.65
598.4738	1195.371
598.6323	1182.155
598.7908	1189.447
598.9492	1187.972
599.1076	1201.895
599.2661	1209.881
599.4245	1207.998
599.5829	1209.298
599.7413	1203.025
599.8997	1202.749
600.0581	1183.747
600.2165	1190.347
600.3749	1193.344
600.5333	1185.156
600.6917	1189.345
600.85	1189.085
601.0084	1173.277
601.1667	1166.977
601.325	1164.205
601.4833	1168.468
601.6417	1170.632
601.8	1158.798
601.9583	1148.37
602.1166	1151.956
602.2749	1148.527
602.4332	1143.439
602.5914	1163.477
602.7498	1172.177
602.908	1183.908
603.0662	1193.787
603.2245	1186.258
603.3828	1188.694
603.541	1187.906
603.6992	1197.093
603.8574	1193.335
604.0156	1181.863
604.1738	1175.682
604.332	1168.998
604.4902	1177.115
604.6484	1186.003
604.8065	1190.928
604.9647	1187.957
605.1229	1182.646
605.281	1177.522
605.4391	1161.717
605.5973	1167.987
605.7554	1166.399
605.9135	1171.136
606.0717	1180.979
606.2297	1177.636
606.3878	1180.775
606.5459	1171.332
606.704	1159.628
606.8621	1172.366
607.0201	1189.603
607.1782	1184.309
607.3362	1192.356
607.4943	1192.2
607.6523	1188.363
607.8104	1166.975
607.9684	1143.758
608.1264	1129.004
608.2844	1123.438
608.4424	1138.583
608.6003	1131.341
608.7584	1120.025
608.9163	1113
609.0743	1129.245
609.2322	1131.927
609.3902	1124.238
609.5482	1108.227
609.7061	1111.385
609.864	1110.307
610.0219	1107.177
610.1798	1102.793
610.3377	1084.019
610.4956	1077.773
610.6535	1100.875
610.8114	1100.019
610.9693	1113.394
611.1271	1111.74
611.285	1114.516
611.4429	1105.767
611.6007	1099.182
611.7585	1096.709
611.9164	1091.75
612.0742	1074.557
612.232	1069.923
612.3898	1067.105
612.5476	1067.322
612.7054	1069.448
612.8632	1076.224
613.0209	1087.712
613.1787	1085.17
613.3365	1086.239
613.4942	1070.004
613.652	1046.086
613.8097	1018.937
613.9674	1011.01
614.1252	1039.945
614.2829	1049.702
614.4406	1060.596
614.5983	1062.1
614.756	1057.511
614.9136	1056.837
615.0714	1051.744
615.229	1055.34
615.3867	1048.977
615.5443	1037.227
615.702	1043.991
615.8596	1024.778
616.0172	1006.265
616.1748	984.8609
616.3325	974.0781
616.4901	964.9887
616.6476	982.1588
616.8052	995.2003
616.9628	994.6578
617.1204	987.9255
617.278	990.8425
617.4355	1009.525
617.5931	1017.477
617.7506	1013.528
617.9081	1009.043
618.0657	1018.694
618.2232	1014.151
618.3807	1028.07
618.5382	1026.402
618.6957	1017.043
618.8532	1014.92
619.0107	1003.794
619.1682	984.0038
619.3256	991.0436
619.4831	1002.973
619.6406	1005.98
619.798	1019.559
619.9554	1016.759
620.1129	1013.904
620.2703	1007.563
620.4277	1003.74
620.5851	1008.268
620.7425	1006.188
620.8998	1011.534
621.0573	1008.368
621.2146	1001.18
621.372	999.8651
621.5294	984.0447
621.6867	983.4379
621.8441	965.401
622.0013	971.3318
622.1587	972.7366
622.316	968.4816
622.4733	970.5135
622.6306	968.7545
622.7879	963.165
622.9452	960.4477
623.1025	959.3843
623.2598	952.9595
623.4171	952.1993
623.5743	957.2832
623.7316	970.9668
623.8888	965.0632
624.046	963.7265
624.2032	951.3896
624.3605	948.2618
624.5176	934.3093
624.6749	923.3865
624.8321	928.1868
624.9893	950.4142
625.1464	949.6431
625.3036	944.8146
625.4608	928.1891
625.6179	913.66
625.7751	918.9636
625.9322	922.8711
626.0894	934.7979
626.2465	945.9628
626.4036	944.2792
626.5607	945.285
626.7178	950.7515
626.8749	941.4954
627.032	942.5756
627.189	950.5916
627.3461	941.9579
627.5032	939.1561
627.6602	924.9825
627.8173	887.3936
627.9743	872.447
628.1313	868.8619
628.2884	879.4475
628.4454	899.6699
628.6024	923.898
628.7594	934.3677
628.9164	931.1187
629.0734	933.7985
629.2303	918.1848
629.3873	908.7502
629.5443	903.6364
629.7012	887.7021
629.8582	894.5873
630.0151	885.8368
630.172	889.8833
630.3289	887.8515
630.4858	882.7369
630.6428	898.2422
630.7996	916.4112
630.9565	915.54
631.1134	907.5256
631.2703	902.9697
631.4272	896.715
631.584	884.4838
631.7408	870.5897
631.8977	861.1342
632.0546	871.7923
632.2114	880.337
632.3682	896.6378
632.525	896.8173
632.6818	902.0403
632.8386	915.1257
632.9954	907.0668
633.1522	911.4268
633.3089	906.4966
633.4657	886.7419
633.6224	881.5499
633.7792	883.8498
633.9359	885.4263
634.0927	883.9518
634.2494	878.1973
634.4061	880.6985
634.5628	887.4438
634.7195	891.823
634.8762	890.812
635.0329	888.0988
635.1895	892.1987
635.3462	902.429
635.5029	895.8889
635.6595	886.534
635.8162	877.6682
635.9728	875.8774
636.1295	867.7393
636.2861	865.9988
636.4427	856.8955
636.5992	869.4513
636.7559	872.895
636.9124	881.0143
637.069	867.9145
637.2256	877.696
637.3821	886.6741
637.5387	880.7452
637.6953	875.8309
637.8518	884.983
638.0084	888.3723
638.1649	881.5546
638.3214	885.0005
638.4779	874.9518
638.6344	875.7936
638.7909	868.7482
638.9474	860.1602
639.1038	866.6772
639.2603	870.0466
639.4167	855.1152
639.5732	859.1444
639.7297	843.7156
639.8861	832.1581
640.0425	827.1931
640.199	823.5162
640.3553	831.1668
640.5118	840.0616
640.6682	842.2191
640.8245	834.1323
640.981	823.736
641.1373	808.5594
641.2936	823.5417
641.45	825.8398
641.6064	827.15
641.7627	825.0493
641.9191	821.1165
642.0754	800.6899
642.2317	812.7854
642.388	816.1124
642.5443	816.6633
642.7006	817.9285
642.8569	827.5328
643.0131	820.7296
643.1694	817.545
643.3257	802.1121
643.4819	802.3054
643.6382	808.0985
643.7944	807.9034
643.9506	785.1239
644.1069	786.5087
644.2631	795.3877
644.4193	799.7743
644.5754	815.1221
644.7316	810.1718
644.8878	801.0566
645.044	779.6965
645.2002	778.7296
645.3563	787.3599
645.5125	782.2439
645.6686	778.4955
645.8248	766.709
645.9809	772.0347
646.137	756.6703
646.2931	753.4466
646.4492	742.5602
646.6053	748.2109
646.7614	766.4054
646.9174	762.041
647.0735	747.5291
647.2296	749.8035
647.3856	754.5071
647.5417	752.3529
647.6977	751.2934
647.8537	744.3314
648.0098	742.2054
648.1658	739.9814
648.3218	734.3019
648.4777	728.0213
648.6337	725.7295
648.7897	734.3144
648.9457	738.074
649.1016	739.9311
649.2576	725.39
649.4135	715.3439
649.5695	678.6605
649.7254	671.8148
649.8813	697.4334
650.0372	700.3306
650.1932	718.4042
650.3491	751.1174
650.5049	748.639
650.6608	744.1514
650.8167	745.2432
650.9725	752.1733
651.1284	740.5204
651.2842	734.0013
651.4401	732.1087
651.5959	721.5774
651.7518	701.2617
651.9076	697.486
652.0634	694.3888
652.2192	701.5457
652.3749	719.5683
652.5308	731.311
652.6865	719.8843
652.8423	722.0399
652.998	727.0416
653.1538	716.6943
653.3096	718.6741
653.4653	717.6857
653.621	716.1979
653.7767	727.8458
653.9324	723.7572
654.0881	729.7547
654.2438	705.1617
654.3995	698.8767
654.5552	702.519
654.7109	693.2809
654.8665	697.7328
655.0222	700.8357
655.1778	697.6802
655.3334	686.189
655.4891	677.2286
655.6447	669.5063
655.8003	656.3616
655.9559	632.8402
656.1115	589.0327
656.2671	536.1248
656.4227	513.2177
656.5782	529.9655
656.7338	577.798
656.8893	629.1151
657.0449	651.5114
657.2004	659.917
657.356	669.9534
657.5115	668.0736
657.667	670.7735
657.8225	680.0656
657.978	689.5765
658.1335	692.1525
658.289	698.4365
658.4445	689.2087
658.5999	693.352
658.7554	686.5078
658.9108	703.3777
659.0663	707.6467
659.2217	698.217
659.3771	688.6314
659.5325	690.7388
659.6879	695.6296
659.8433	692.6741
659.9987	699.5173
660.1541	698.0243
660.3095	705.5657
660.4648	708.8826
660.6202	706.6625
660.7756	699.165
660.9309	698.2721
661.0862	695.4966
661.2416	698.6231
661.3969	700.9608
661.5522	696.868
661.7075	709.0813
661.8628	700.6465
662.0181	704.0726
662.1733	704.284
662.3286	706.1678
662.4839	718.1342
662.6391	706.7729
662.7944	703.2626
662.9496	705.7053
663.1048	694.1591
663.26	692.2987
663.4152	695.0212
663.5704	694.5427
663.7256	697.8456
663.8808	697.0087
664.036	699.1547
664.1912	695.5595
664.3463	692.0454
664.5015	699.4122
664.6566	694.7388
664.8118	697.1359
664.9669	702.538
665.122	706.3047
665.2771	705.0594
665.4322	700.089
665.5873	704.24
665.7424	696.8705
665.8975	701.4778
666.0526	697.4525
666.2076	680.5081
666.3627	679.2002
666.5177	681.5341
666.6727	692.6638
666.8278	701.6195
666.9828	702.2929
667.1378	694.6494
667.2928	689.3451
667.4478	691.9832
667.6028	689.3854
667.7578	686.6378
667.9127	683.6943
668.0677	675.4421
668.2226	678.2834
668.3776	679.4933
668.5325	682.4861
668.6874	695.1906
668.8423	685.0556
668.9973	676.8885
669.1522	684.3128
669.3071	686.4478
669.4619	674.0781
669.6168	666.3522
669.7717	672.9973
669.9265	671.0209
670.0814	666.426
670.2362	669.9044
670.3911	662.5515
670.5459	662.4841
670.7007	661.7401
670.8555	660.5741
671.0103	662.8974
671.1651	659.4812
671.3199	658.6863
671.4747	653.2933
671.6295	646.9553
671.7842	647.738
671.939	646.7394
672.0937	650.6218
672.2484	652.4158
672.4031	658.7852
672.5579	660.3287
672.7126	661.7754
672.8673	652.4913
673.022	655.3975
673.1767	659.3541
673.3314	652.5313
673.486	649.9611
673.6407	644.0739
673.7953	646.4068
673.95	648.4254
674.1046	633.4012
674.2592	635.0153
674.4138	633.8404
674.5684	644.7401
674.723	640.333
674.8776	635.5744
675.0322	625.903
675.1868	624.0081
675.3414	621.4092
675.4959	625.1861
675.6505	636.9913
675.805	627.4092
675.9595	621.1286
676.1141	625.084
676.2686	629.189
676.4231	623.9863
676.5776	613.3858
676.7321	612.8774
676.8866	597.3309
677.041	602.7426
677.1955	606.0625
677.35	605.4749
677.5044	600.8113
677.6589	605.6833
677.8133	612.1536
677.9677	609.6046
678.1221	601.002
678.2766	602.2849
678.4309	606.1363
678.5853	586.5592
678.7397	586.0122
678.8941	586.9803
679.0485	586.1184
679.2028	593.8911
679.3571	592.9464
679.5115	588.9509
679.6658	588.1169
679.8201	584.5543
679.9744	579.8601
680.1288	584.7885
680.2831	591.7763
680.4373	586.8669
680.5916	584.4835
680.7459	577.4365
680.9001	571.4163
681.0544	569.681
681.2087	575.5909
681.3629	574.4487
681.5171	563.9622
681.6713	563.9785
681.8256	549.2719
681.9797	561.8115
682.134	561.9136
682.2881	556.6985
682.4423	558.4254
682.5965	557.2557
682.7507	551.6584
682.9048	556.6125
683.059	554.7064
683.2131	554.5402
683.3672	549.1251
683.5213	544.3138
683.6754	539.3395
683.8295	539.0643
683.9836	531.9227
684.1377	521.1899
684.2918	529.2681
684.4459	532.5605
684.5999	531.6937
684.754	528.6674
684.908	529.858
685.062	539.874
685.2161	536.1609
685.3701	528.585
685.5241	520.2004
685.6781	508.6834
685.8321	503.9819
685.9861	517.2802
686.14	513.481
686.294	508.8463
686.4479	508.3729
686.6019	489.6381
686.7559	444.6101
686.9098	388.7723
687.0637	354.8405
687.2176	347.0919
687.3715	348.9343
687.5254	362.1539
687.6793	376.4075
687.8332	393.4377
687.9871	418.7985
688.1409	442.9035
688.2947	453.9431
688.4486	454.1784
688.6024	437.0462
688.7563	425.5659
688.9101	425.5023
689.0639	422.2572
689.2177	415.852
689.3715	422.4799
689.5253	418.476
689.6791	418.2143
689.8328	424.2295
689.9866	417.9012
690.1403	426.2382
690.2941	429.8604
690.4478	422.8166
690.6015	433.3115
690.7552	437.5647
690.9089	447.8436
691.0626	446.208
691.2164	448.0058
691.37	444.2569
691.5237	445.6815
691.6774	440.2672
691.831	442.5938
691.9847	450.574
692.1383	451.1989
692.2919	442.627
692.4456	439.9356
692.5992	448.6915
692.7527	450.4485
692.9064	442.9128
693.0599	435.2315
693.2136	438.6812
693.3671	442.0255
693.5207	432.9987
693.6742	438.8848
693.8278	440.7637
693.9813	426.4783
694.1348	423.1641
694.2883	424.7453
694.4418	423.393
694.5953	432.6192
694.7488	438.841
694.9023	430.1246
695.0558	434.0016
695.2093	431.0913
695.3627	430.587
695.5162	422.3521
695.6696	422.1812
695.8231	433.9222
695.9764	434.3708
696.1299	441.3906
696.2833	444.8666
696.4367	441.3148
696.5901	444.4725
696.7435	449.6694
696.8968	450.186
697.0502	452.3142
697.2036	452.8618
697.3569	448.6539
697.5102	446.4979
697.6635	439.8741
697.8168	432.9853
697.9702	426.3744
698.1235	427.7327
698.2768	431.0172
698.4301	445.462
698.5833	445.7649
698.7366	438.4205
698.8898	432.7514
699.0431	427.606
699.1964	420.5525
699.3495	426.643
699.5028	423.1625
699.656	431.0769
699.8092	434.3217
699.9624	425.1342
700.1156	427.1115
700.2688	425.7462
700.4219	414.1689
700.5751	412.0772
700.7283	414.4973
700.8814	418.7794
701.0345	428.7892
701.1877	426.0095
701.3408	437.9929
701.4939	423.9399
701.647	416.8491
701.8001	408.1134
701.9532	414.9434
702.1063	430.9553
702.2593	426.4303
702.4124	423.7549
702.5654	417.3373
702.7184	405.8767
702.8715	405.0903
703.0245	421.6778
703.1776	429.0235
703.3305	427.5571
703.4835	435.7996
703.6365	430.9277
703.7895	426.9915
703.9424	423.1295
704.0954	417.8693
704.2484	422.6735
704.4013	431.4922
704.5543	431.4254
704.7072	438.4765
704.8601	435.946
705.013	436.4749
705.1659	418.4392
705.3188	415.5452
705.4717	428.358
705.6246	427.5324
705.7774	432.7106
705.9303	431.3807
706.0831	425.3064
706.236	428.2371
706.3888	428.844
706.5416	426.3685
706.6944	422.764
706.8472	422.6882
707	426.8155
707.1528	430.7258
707.3056	431.9052
707.4583	435.7046
707.6111	429.974
707.7639	425.1457
707.9166	418.7932
708.0693	423.4673
708.222	425.1069
708.3748	425.2745
708.5275	424.6456
708.6802	416.1202
708.8328	410.1092
708.9855	412.4565
709.1382	424.5398
709.2909	416.1971
709.4435	412.5735
709.5962	417.5993
709.7488	412.6944
709.9014	420.2076
710.054	417.7312
710.2067	418.8999
710.3593	423.5604
710.5118	423.3994
710.6644	417.3535
710.817	416.6789
710.9695	411.9971
711.1221	407.081
711.2747	406.7989
711.4272	410.6305
711.5797	408.0298
711.7322	412.3244
711.8848	407.8097
712.0373	405.8766
712.1898	415.4348
712.3422	412.0492
712.4948	414.8099
712.6472	414.6178
712.7996	407.1892
712.9521	404.124
713.1046	397.6403
713.257	390.1026
713.4094	394.9892
713.5618	396.821
713.7142	399.8311
713.8666	397.712
714.019	398.6631
714.1714	396.3869
714.3237	400.3849
714.4761	399.4177
714.6285	398.9565
714.7808	385.1895
714.9331	378.2176
715.0854	387.5667
715.2378	387.4128
715.3901	400.0763
715.5424	400.9737
715.6947	391.9545
715.8469	388.1144
715.9992	385.5104
716.1515	391.038
716.3037	386.2134
716.456	369.8894
716.6082	348.4651
716.7604	340.9501
716.9127	328.8794
717.0649	324.9474
717.2171	323.6674
717.3693	324.2869
717.5214	307.0232
717.6736	304.9125
717.8258	305.5674
717.978	312.9908
718.1301	311.2197
718.2822	311.2408
718.4344	299.3858
718.5865	284.7916
718.7386	279.6074
718.8907	287.7837
719.0428	297.123
719.1949	302.0631
719.3469	286.8896
719.499	285.3627
719.6511	292.0184
719.8031	290.8613
719.9551	289.534
720.1072	274.9436
720.2592	279.8317
720.4112	291.7005
720.5632	287.562
720.7152	292.5503
720.8672	309.3364
721.0192	322.9025
721.1711	334.2009
721.3231	342.9389
721.475	354.5596
721.627	344.3233
721.7789	347.6081
721.9308	354.6171
722.0828	356.0702
722.2347	363.2299
722.3866	348.4564
722.5385	338.2234
722.6903	340.5389
722.8422	340.4545
722.9941	342.1411
723.1459	330.4371
723.2977	316.4007
723.4496	296.5166
723.6014	287.0553
723.7532	297.0181
723.905	302.2136
724.0568	301.5595
724.2086	301.2914
724.3604	294.739
724.5121	293.6613
724.6639	310.5012
724.8157	318.5209
724.9674	315.3605
725.1191	315.4253
725.2709	295.6597
725.4226	286.2889
725.5743	297.4784
725.726	310.5756
725.8777	313.7112
726.0294	314.7547
726.181	312.063
726.3327	306.9625
726.4844	299.214
726.636	294.9817
726.7877	316.5927
726.9393	333.8001
727.0909	321.459
727.2425	312.6246
727.3941	304.4213
727.5457	297.7604
727.6973	291.0492
727.8488	275.149
728.0004	280.7354
728.1519	304.3658
728.3035	326.6261
728.455	331.9032
728.6066	333.0245
728.7581	317.1873
728.9095	301.1778
729.0611	286.4836
729.2126	275.6886
729.364	280.8005
729.5155	291.5037
729.667	316.1921
729.8184	320.4309
729.9698	326.8142
730.1213	312.8447
730.2727	297.9915
730.4241	295.9239
730.5756	299.1005
730.7269	313.4579
730.8784	316.93
731.0297	307.7788
731.1811	306.8701
731.3325	312.2768
731.4838	316.3796
731.6351	318.5144
731.7865	307.545
731.9378	304.7747
732.0891	316.6419
732.2404	333.5219
732.3917	333.7841
732.543	330.0459
732.6943	331.57
732.8456	331.7494
732.9968	331.4112
733.1481	346.5204
733.2993	338.7582
733.4506	325.226
733.6018	335.7384
733.753	334.0671
733.9042	347.1947
734.0554	343.6645
734.2066	352.2275
734.3578	349.8037
734.509	344.0926
734.6602	337.7207
734.8113	334.0189
734.9624	334.9915
735.1136	338.0596
735.2647	337.4021
735.4158	334.4824
735.5669	338.1981
735.718	338.0038
735.8691	332.8557
736.0201	331.8524
736.1713	332.9109
736.3223	325.4588
736.4733	326.5193
736.6244	337.8484
736.7755	337.5122
736.9265	334.7051
737.0775	328.4307
737.2285	332.4604
737.3795	338.2682
737.5305	336.0916
737.6815	331.2167
737.8324	341.3661
737.9834	343.4609
738.1343	335.9787
738.2853	334.552
738.4362	336.8742
738.5871	330.6285
738.738	326.0865
738.8889	322.6302
739.0399	322.6038
739.1907	326.8257
739.3416	332.5353
739.4925	322.0797
739.6433	322.2508
739.7942	332.0857
739.945	332.093
740.0958	332.2694
740.2467	343.0731
740.3975	332.5225
740.5483	325.8174
740.6991	334.3686
740.8499	331.8922
741.0007	325.1459
741.1514	324.0124
741.3022	324.4611
741.4529	323.3759
741.6036	320.4991
741.7544	325.4344
741.9051	321.5396
742.0558	325.7509
742.2065	322.044
742.3572	315.6101
742.5079	319.0732
742.6586	322.9673
742.8093	323.0684
742.9599	324.7056
743.1105	331.4814
743.2612	331.2578
743.4118	328.1301
743.5624	326.5135
743.7131	327.2039
743.8636	327.6761
744.0142	322.0564
744.1648	319.5676
744.3154	319.9337
744.4659	315.1858
744.6165	315.8819
744.767	316.1074
744.9176	320.7567
745.0681	326.8629
745.2186	325.1857
745.3691	323.2918
745.5197	324.8373
745.6702	313.9297
745.8206	321.4201
745.9711	328.7192
746.1215	321.2054
746.272	314.5232
746.4224	308.8648
746.5729	316.6865
746.7233	322.7127
746.8737	319.386
747.0241	317.9187
747.1745	314.5447
747.3249	310.0662
747.4753	319.4556
747.6257	314.2333
747.776	309.2207
747.9264	306.1368
748.0767	307.1238
748.2271	312.1007
748.3774	304.8002
748.5276	301.716
748.678	307.0791
748.8282	309.3246
748.9786	313.6845
749.1288	303.8589
749.2791	301.6984
749.4294	296.7772
749.5796	296.3162
749.7299	300.2978
749.8801	303.6931
750.0303	310.8293
750.1805	309.4184
750.3307	302.1432
750.4809	304.2758
750.6311	301.4336
750.7813	287.4663
750.9314	291.3905
751.0816	299.9617
751.2318	291.4324
751.3818	292.2781
751.532	295.3134
751.6821	296.1464
751.8322	294.1863
751.9823	285.9413
752.1324	287.4586
752.2825	293.4009
752.4326	286.1891
752.5826	284.2003
752.7327	286.9658
752.8827	284.163
753.0327	289.5428
753.1827	286.8351
753.3328	286.536
753.4828	288.6009
753.6328	282.4315
753.7828	286.9687
753.9327	287.7773
754.0827	282.498
754.2327	288.1988
754.3826	283.2151
754.5325	277.8039
754.6825	277.2371
754.8324	268.9787
754.9823	276.643
755.1322	282.3583
755.2821	272.8593
755.432	270.9612
755.5818	266.013
755.7318	271.6748
755.8816	272.3578
756.0314	268.0569
756.1813	271.3519
756.3311	273.0103
756.4809	274.1137
756.6307	273.2862
756.7805	261.5926
756.9303	254.7939
757.0801	263.0096
757.2299	266.6921
757.3796	264.707
757.5294	256.9499
757.6791	267.8209
757.8289	265.1368
757.9786	264.9232
758.1283	266.6017
758.278	260.4115
758.4277	250.1102
758.5773	255.8328
758.7271	252.448
758.8767	247.1389
759.0264	249.9191
759.176	244.1173
759.3256	227.727
759.4753	190.0526
759.6249	145.5423
759.7745	108.4666
759.9241	87.38477
760.0737	71.90929
760.2233	59.69117
760.3729	55.38709
760.5224	48.08592
760.6719	45.61802
760.8215	45.67102
760.971	51.19772
761.1205	55.63588
761.2701	68.80343
761.4196	83.44352
761.5691	102.9594
761.7186	134.9811
761.868	152.4572
762.0175	167.6152
762.167	160.9525
762.3164	141.5461
762.4659	128.4858
762.6153	106.0921
762.7647	105.8975
762.9141	110.5995
763.0635	106.8883
763.2129	105.85
763.3623	105.2826
763.5117	102.9045
763.661	110.0369
763.8104	114.6096
763.9597	118.3477
764.1091	117.7496
764.2584	121.9876
764.4077	125.7911
764.557	134.5593
764.7063	141.3815
764.8556	148.8465
765.0049	150.9896
765.1541	150.912
765.3034	153.5737
765.4526	156.6029
765.6019	164.0423
765.7511	165.3294
765.9003	167.1071
766.0496	163.4205
766.1987	169.9972
766.348	175.4322
766.4971	175.0447
766.6463	178.2356
766.7955	195.1403
766.9446	198.3008
767.0938	188.8571
767.2429	194.3135
767.392	199.3553
767.5411	204.7975
767.6902	209.1968
767.8394	202.8466
767.9884	205.2489
768.1375	207.6594
768.2866	206.813
768.4356	210.6915
768.5847	212.2142
768.7337	215.9972
768.8828	205.9562
769.0317	208.2908
769.1808	205.7682
769.3298	208.23
769.4788	204.492
769.6277	204.3727
769.7767	215.1668
769.9257	207.0972
770.0746	199.6673
770.2236	206.5907
770.3725	207.821
770.5214	209.918
770.6703	212.6988
770.8193	215.638
770.9681	213.7279
771.1171	205.5964
771.2659	209.7304
771.4148	207.9115
771.5637	202.0444
771.7125	206.8989
771.8613	208.3792
772.0101	201.1294
772.159	202.3133
772.3078	200.7875
772.4566	201.3079
772.6054	206.5229
772.7542	201.4085
772.903	201.6205
773.0517	206.3464
773.2004	207.9874
773.3492	203.2093
773.4979	200.5257
773.6467	197.0504
773.7953	202.976
773.944	205.2609
774.0928	196.7352
774.2415	203.0592
774.3901	201.473
774.5388	195.6808
774.6874	194.6683
774.8361	193.9742
774.9847	194.0534
775.1334	193.8085
775.282	199.092
775.4305	194.313
775.5792	202.0597
775.7277	195.3827
775.8763	194.7747
776.0249	198.674
776.1735	194.3393
776.322	190.8526
776.4705	193.6411
776.6191	196.4416
776.7676	199.5844
776.9161	190.66
777.0646	191.0198
777.2131	190.9105
777.3616	184.5567
777.5101	189.5177
777.6585	182.7545
777.8069	187.5716
777.9554	193.4964
778.1038	191.3186
778.2523	184.9287
778.4007	184.9538
778.5491	197.2732
778.6974	198.8629
778.8459	188.5914
778.9942	184.2299
779.1426	184.9547
779.291	193.1019
779.4393	195.2717
779.5876	191.2504
779.736	189.3551
779.8843	189.2343
780.0326	187.2457
780.1809	181.5217
780.3292	184.2681
780.4775	184.816
780.6257	186.2509
780.774	181.3583
780.9222	181.1885
781.0704	179.913
781.2187	186.5758
781.3669	185.1645
781.5151	185.2957
781.6633	182.2621
781.8115	185.0861
781.9597	183.9268
782.1078	183.208
782.256	178.222
782.4042	178.7519
782.5523	179.1454
782.7004	183.2955
782.8486	178.8995
782.9967	189.2124
783.1448	176.5634
783.2929	182.965
783.441	175.0193
783.5891	174.4337
783.7371	178.244
783.8851	181.4353
784.0332	181.4769
784.1812	178.1123
784.3293	168.6422
784.4773	176.8065
784.6253	173.5227
784.7733	174.267
784.9213	171.4882
785.0692	170.5913
785.2172	169.9419
785.3652	171.0034
785.5131	175.2723
785.6611	169.7157
785.809	169.7512
785.9569	166.9691
786.1048	171.3489
786.2527	173.1601
786.4006	170.7255
786.5485	174.3655
786.6964	174.8718
786.8442	168.89
786.9921	174.9739
787.1399	173.0554
787.2877	173.3923
787.4355	168.7992
787.5833	167.9551
787.7311	163.2842
787.8789	162.705
788.0267	170.0434
788.1745	170.9438
788.3223	167.3127
788.47	162.0607
788.6177	165.8495
788.7654	159.4418
788.9132	164.3438
789.0609	166.0724
789.2086	162.33
789.3563	160.9585
789.504	157.2544
789.6517	157.1333
789.7993	154.0605
789.947	155.9028
790.0946	164.9547
790.2422	159.4592
790.3898	157.549
790.5375	159.1658
790.6851	159.9529
790.8326	163.1213
790.9802	156.0988
791.1278	155.3494
791.2754	159.5745
791.423	160.8752
791.5705	159.5047
791.718	154.2007
791.8655	153.7105
792.0131	158.9114
792.1606	154.9192
792.308	153.0046
792.4556	156.4478
792.603	155.6575
792.7505	157.3811
792.8979	150.927
793.0454	147.4129
793.1928	148.639
793.3403	152.6079
793.4877	150.1273
793.6351	151.6374
793.7825	156.5352
793.9299	157.4866
794.0772	153.9738
794.2246	159.0141
794.3719	154.3738
794.5193	147.194
794.6666	144.888
794.814	148.4213
794.9613	151.6164
795.1086	153.2274
795.2559	160.7825
795.4032	153.3777
795.5505	145.6556
795.6978	145.8956
795.845	152.8438
795.9922	154.3121
796.1395	144.418
796.2867	147.0405
796.4339	146.0823
796.5811	149.3922
796.7283	151.8739
796.8755	144.9239
797.0227	150.6548
797.1699	144.5653
797.317	151.1998
797.4642	156.6557
797.6113	148.0124
797.7584	151.8366
797.9056	149.95
798.0527	147.8381
798.1998	146.6396
798.3469	149.72
798.494	145.9194
798.641	148.6568
798.7881	143.3963
798.9351	142.0391
799.0822	143.4863
799.2292	143.6161
799.3762	143.1815
799.5232	139.6084
799.6702	144.1382
799.8172	139.0896
799.9642	131.9002
800.1111	134.0721
800.2581	136.5417
800.4051	135.9443
800.552	137.9026
800.6989	137.9456
800.8458	141.4074
800.9927	139.633
801.1396	139.7554
801.2866	136.5349
801.4334	141.4861
801.5803	138.86
801.7272	135.1375
801.874	143.4973
802.0209	148.5298
802.1677	146.2814
802.3145	137.9642
802.4613	137.2044
802.6081	132.2049
802.7549	127.0684
802.9017	124.205
803.0485	133.0961
803.1952	130.377
803.342	128.8094
803.4887	130.5256
803.6354	135.5494
803.7822	136.4767
803.9289	132.2687
804.0756	141.6077
804.2223	134.368
804.369	126.7952
804.5156	124.2631
804.6623	122.4161
804.8089	126.8326
804.9556	124.599
805.1022	133.9651
805.2488	132.2528
805.3954	131.3446
805.542	128.5011
805.6886	132.798
805.8352	129.9374
805.9818	126.5628
806.1283	125.954
806.2749	128.968
806.4214	127.5976
806.5679	126.6547
806.7145	127.9172
806.861	125.4723
807.0074	125.9773
807.154	129.8318
807.3004	123.4598
807.4469	119.9441
807.5934	128.9542
807.7398	125.6275
807.8862	121.8432
808.0327	124.1785
808.1791	124.3031
808.3255	124.3292
808.4719	122.3469
808.6183	121.7769
808.7647	120.6367
808.9111	120.3857
809.0574	119.9424
809.2037	117.5863
809.3501	116.0486
809.4965	121.7289
809.6428	117.0497
809.7891	116.665
809.9354	115.7312
810.0817	116.3715
810.2279	114.3992
810.3742	117.0376
810.5204	119.489
810.6667	117.02
810.8129	114.9687
810.9592	113.8503
811.1054	115.6377
811.2516	115.7763
811.3978	112.9552
811.5439	110.2955
811.6901	110.629
811.8363	118.4037
811.9825	113.0957
812.1286	110.1977
812.2748	107.3291
812.4209	105.5651
812.567	108.108
812.7131	105.5619
812.8592	105.9008
813.0053	103.7547
813.1514	105.0955
813.2974	101.2312
813.4435	96.54066
813.5895	93.43508
813.7356	94.81676
813.8816	99.33746
814.0276	101.9151
814.1736	101.8171
814.3196	93.46296
814.4656	95.49493
814.6116	95.69517
814.7576	94.77885
814.9035	89.70557
815.0494	86.43377
815.1954	78.34116
815.3413	82.30305
815.4872	87.48723
815.6331	90.09559
815.779	91.20763
815.9249	92.11574
816.0707	84.4893
816.2166	82.59477
816.3625	83.58052
816.5083	78.31002
816.6542	85.05418
816.8	82.95667
816.9458	76.81482
817.0916	82.55009
817.2374	92.48661
817.3832	90.47609
817.5289	90.14043
817.6747	98.01369
817.8204	79.78371
817.9662	75.15088
818.1119	80.90654
818.2576	79.33711
818.4034	76.51477
818.5491	79.45801
818.6948	84.02515
818.8405	81.02543
818.9861	81.66403
819.1318	80.92669
819.2774	81.1815
819.423	84.01076
819.5687	80.64907
819.7143	76.12003
819.8599	80.53934
820.0055	77.85982
820.1511	77.3954
820.2967	88.02872
820.4422	99.65043
820.5878	98.28595
820.7333	92.73344
820.8788	93.25578
821.0244	93.19524
821.1699	89.02218
821.3154	91.83543
821.4609	91.14256
821.6064	86.43654
821.7519	86.16119
821.8973	90.85173
822.0428	86.45456
822.1882	83.61915
822.3337	86.18102
822.4791	81.24567
822.6245	73.79582
822.7699	65.11575
822.9153	54.75276
823.0607	57.23635
823.2061	59.05214
823.3514	66.56013
823.4968	71.3747
823.6422	80.63754
823.7875	78.08369
823.9328	81.87289
824.0781	84.43946
824.2234	83.9864
824.3687	81.52213
824.514	80.63213
824.6592	80.02757
824.8045	82.63654
824.9498	89.32265
825.095	91.21896
825.2402	91.29193
825.3854	89.23943
825.5306	81.14426
825.6758	83.58893
825.821	79.23759
825.9662	80.42326
826.1114	78.04289
826.2565	88.25304
826.4017	86.62045
826.5468	82.38636
826.692	85.68421
826.837	96.24877
826.9822	94.76346
827.1273	84.95779
827.2723	77.70879
827.4174	76.83864
827.5625	72.88095
827.7075	71.41534
827.8526	73.2822
827.9976	74.54446
828.1426	75.78292
828.2877	73.02534
828.4327	83.04411
828.5776	82.32254
828.7227	80.16495
828.8676	73.13831
829.0126	73.74934
829.1575	80.06386
829.3024	79.56287
829.4474	70.01733
829.5923	72.592
829.7372	77.47342
829.8821	79.25417
830.027	79.0236
830.1719	77.31326
830.3168	76.96437
830.4616	75.64628
830.6064	66.81768
830.7513	70.77543
830.8961	73.4042
831.041	79.26799
831.1857	78.70987
831.3306	76.52238
831.4753	74.62556
831.6201	76.05015
831.7649	71.64582
831.9096	71.24583
832.0544	71.90553
832.1991	72.93332
832.3438	74.25336
832.4885	78.10045
832.6332	79.54475
832.778	72.66611
832.9226	70.94576
833.0673	74.20962
833.2119	71.4537
833.3566	71.24728
833.5012	69.37128
833.6459	71.51394
833.7905	78.28609
833.9351	73.82676
834.0797	75.94604
834.2243	78.03598
834.3688	79.21988
834.5134	81.69537
834.658	80.37482
834.8026	76.06912
834.9471	76.65643
835.0916	76.10366
835.2361	81.73272
835.3806	79.46544
835.5251	83.19248
835.6696	80.03819
835.8141	78.81123
835.9586	75.87613
836.103	78.19558
836.2474	81.75116
836.3918	78.18617
836.5363	81.81039
836.6807	75.50752
836.8251	75.27103
836.9695	72.42358
837.1138	71.27007
837.2582	75.3774
837.4026	79.6664
837.5469	79.62094
837.6913	77.69205
837.8356	72.37437
837.9799	73.06081
838.1242	77.52482
838.2686	77.85989
838.4128	79.36575
838.5571	72.01173
838.7014	75.5816
838.8456	69.54528
838.9899	74.97907
839.1341	77.55448
839.2783	80.82972
839.4225	77.71802
839.5667	78.66317
839.7109	78.62521
839.8551	74.66383
839.9993	77.22995
840.1434	73.19794
840.2876	73.59801
840.4317	75.81158
840.5759	78.95777
840.72	72.80252
840.8641	74.03573
841.0082	74.26038
841.1523	78.21476
841.2963	77.10344
841.4404	77.96187
841.5845	75.43929
841.7285	77.38519
841.8726	75.35721
842.0165	76.79389
842.1606	76.57742
842.3046	73.81826
842.4485	77.74189
842.5925	77.00303
842.7365	76.10117
842.8805	76.19664
843.0244	74.07048
843.1684	75.4808
843.3123	75.36897
843.4562	73.98152
843.6002	70.79743
843.744	73.58072
843.8879	74.24632
844.0318	74.45959
844.1757	75.5098
844.3195	75.61785
844.4634	75.1702
844.6072	74.33485
844.751	69.46117
844.8948	73.0602
845.0386	73.7777
845.1824	77.63525
845.3262	73.71373
845.47	72.96702
845.6138	75.97922
845.7575	75.11792
845.9012	75.68085
846.045	76.62493
846.1887	74.13705
846.3324	71.43496
846.4761	72.80293
846.6198	74.20366
846.7635	71.62215
846.9071	69.78903
847.0508	71.27807
847.1944	65.9239
847.3381	69.45082
847.4817	71.85511
847.6253	69.5304
847.7689	76.85632
847.9125	72.68418
848.0561	70.543
848.1996	71.47485
848.3432	71.02782
848.4868	70.175
848.6303	69.35093
848.7738	69.55912
848.9174	65.10517
849.0609	72.61355
849.2043	71.70009
849.3478	68.52278
849.4913	72.02362
849.6348	60.92582
849.7782	60.07748
849.9217	60.83677
850.0651	61.28323
850.2086	61.86409
850.3519	65.04738
850.4954	64.95173
850.6387	66.19833
850.7821	71.02145
850.9255	68.18221
851.0688	68.47119
851.2122	67.83679
851.3555	68.37291
851.4988	62.24845
851.6422	65.10688
851.7855	66.16786
851.9288	63.76755
852.0721	69.48107
852.2153	60.80236
852.3586	68.62991
852.5018	68.00982
852.6451	63.84472
852.7883	67.88084
852.9315	67.46484
853.0748	66.66145
853.218	68.70727
853.3611	65.67258
853.5043	57.89069
853.6475	63.92399
853.7906	57.10126
853.9338	52.06578
854.0769	49.61481
854.22	45.96751
854.3632	47.32342
854.5063	48.38322
854.6494	47.19186
854.7924	57.22283
854.9355	64.40144
855.0786	61.25375
855.2216	61.00721
855.3647	63.07043
855.5077	65.4823
855.6507	65.52189
855.7937	59.48314
855.9367	65.00088
856.0797	66.65423
856.2227	62.09346
856.3657	65.19451
856.5086	63.69906
856.6516	64.09125
856.7945	62.27574
856.9374	64.83154
857.0803	66.38381
857.2232	65.56667
857.3661	65.24832
857.509	65.20636
857.6519	61.60009
857.7947	64.37103
857.9376	64.96758
858.0804	61.28572
858.2232	61.34102
858.366	61.1133
858.5089	63.2681
858.6516	61.19788
858.7944	56.77624
858.9372	64.7229
859.08	60.84463
859.2227	60.76424
859.3654	59.11122
859.5082	66.49625
859.6509	63.60957
859.7936	64.35122
859.9363	62.17306
860.079	63.17215
860.2217	60.47882
860.3643	60.72066
860.507	60.17457
860.6496	58.95609
860.7922	63.37312
860.9349	65.76495
861.0775	62.18069
861.2201	58.40794
861.3627	56.60515
861.5052	59.16642
861.6478	60.91151
861.7904	55.78793
861.9329	57.94313
862.0755	56.39669
862.218	55.53924
862.3605	60.10507
862.503	60.47481
862.6455	61.55434
862.788	61.17476
862.9305	59.11602
863.0729	62.3714
863.2154	62.86175
863.3578	61.79072
863.5002	55.70671
863.6426	58.00643
863.7851	54.21819
863.9275	51.31473
864.0698	53.78541
864.2122	59.40919
864.3546	61.31457
864.4969	62.08493
864.6393	54.54522
864.7816	52.67295
864.924	54.77153
865.0662	51.0276
865.2086	55.25806
865.3508	55.3969
865.4931	55.64907
865.6354	52.2349
865.7776	48.68535
865.9199	46.50923
866.0621	47.18823
866.2043	44.20436
866.3466	40.61934
866.4888	45.92071
866.6309	48.71716
866.7731	43.87539
866.9153	51.75875
867.0574	48.54754
867.1996	52.69016
867.3417	53.93787
867.4839	53.75616
867.626	53.61842
867.7681	50.61377
867.9102	52.54951
868.0522	51.11794
868.1943	51.15477
868.3364	53.61412
868.4785	52.67186
868.6205	51.50882
868.7625	47.42923
868.9045	49.50582
869.0465	54.71108
869.1885	52.38476
869.3305	53.06363
869.4725	49.03445
869.6144	43.90833
869.7564	48.00563
869.8983	52.42871
870.0403	50.0692
870.1822	54.25576
870.3241	54.30629
870.466	54.77235
870.6079	53.28264
870.7498	51.88261
870.8916	48.75156
871.0335	50.32448
871.1754	46.74189
871.3171	45.78424
871.459	52.32341
871.6008	52.29639
871.7426	50.74695
871.8844	51.00494
872.0262	52.89999
872.1679	56.06373
872.3097	51.48498
872.4514	49.88956
872.5931	52.26571
872.7349	45.20548
872.8766	45.54709
873.0183	48.19209
873.16	48.36794
873.3017	42.76958
873.4434	45.74107
873.585	52.33211
873.7266	49.7976
873.8683	48.00306
874.0099	50.0794
874.1516	49.84587
874.2932	46.52238
874.4348	47.77765
874.5763	50.3646
874.7179	47.29144
874.8594	44.50861
875.001	46.36874
875.1425	42.97359
875.2841	39.03975
875.4256	42.22941
875.5671	43.69365
875.7086	46.56483
875.85	44.27325
875.9915	45.24451
876.133	45.94072
876.2744	48.3528
876.4159	44.76999
876.5573	43.25284
876.6987	43.99722
876.8401	47.54918
876.9815	48.16822
877.1229	48.07318
877.2643	48.20631
877.4056	41.04406
877.547	42.14993
877.6884	45.10605
877.8297	41.53605
877.971	46.22656
878.1123	48.14438
878.2536	45.68447
878.3949	43.54865
878.5362	43.18199
878.6774	40.19739
878.8187	39.80583
878.9599	40.93651
879.1011	46.27604
879.2424	43.24754
879.3836	42.83943
879.5248	37.41883
879.666	44.98867
879.8071	46.74807
879.9483	46.19919
880.0895	42.83942
880.2306	41.03919
880.3718	41.58761
880.5129	37.73082
880.654	41.23116
880.7951	43.80382
880.9362	43.43448
881.0773	42.21168
881.2183	43.08324
881.3594	42.99976
881.5004	44.35081
881.6414	41.59091
881.7825	40.66033
881.9235	44.57816
882.0645	43.04031
882.2054	42.93495
882.3464	44.63762
882.4874	45.52019
882.6284	43.22086
882.7693	44.33047
882.9103	45.03696
883.0512	43.48956
883.1921	43.78485
883.333	44.79892
883.4739	45.06498
883.6147	40.77738
883.7556	43.53983
883.8965	39.22568
884.0374	39.74987
884.1782	43.07357
884.319	42.116
884.4598	49.67695
884.6006	43.21842
884.7414	39.68837
884.8822	38.92498
885.0229	39.39728
885.1637	44.43098
885.3044	43.00772
885.4452	42.93066
885.5859	42.00222
885.7266	41.78821
885.8673	47.52923
886.008	38.46514
886.1487	38.18447
886.2894	39.69641
886.43	34.82348
886.5707	38.77113
886.7113	40.81888
886.8519	38.04892
886.9926	38.29292
887.1331	42.19181
887.2737	42.01761
887.4143	41.13523
887.5549	37.01266
887.6954	37.15157
887.836	33.71683
887.9765	41.19909
888.1171	46.30656
888.2576	41.46795
888.3981	37.90685
888.5386	41.6574
888.679	37.81199
888.8195	35.76221
888.96	35.93947
889.1004	41.43845
889.2408	37.01621
889.3813	38.49726
889.5217	36.26374
889.6621	34.21016
889.8025	41.69871
889.9429	41.02859
890.0833	34.561
890.2236	35.35199
890.364	36.01512
890.5043	40.91523
890.6446	38.7184
890.7849	39.79606
890.9252	40.39843
891.0655	37.27868
891.2058	38.61184
891.3461	35.13459
891.4863	34.88868
891.6266	35.93742
891.7668	35.77913
891.907	39.34259
892.0472	45.32378
892.1874	38.47703
892.3276	34.90424
892.4678	36.49539
892.608	36.59578
892.7481	37.64482
892.8883	36.20108
893.0284	33.06445
893.1685	33.02848
893.3087	29.63517
893.4487	33.22961
893.5889	38.89682
893.7289	37.75113
893.869	38.86579
894.009	33.89848
894.1491	36.44671
894.2891	37.46752
894.4291	30.91595
894.5692	35.09427
894.7092	37.16497
894.8491	32.81233
894.9891	31.81426
895.1291	32.60424
895.269	29.31457
895.409	32.26036
895.549	31.08523
895.6888	26.18844
895.8288	28.59571
895.9687	36.91215
896.1086	29.79644
896.2484	28.93838
896.3883	30.39809
896.5281	27.21538
896.668	24.90017
896.8079	28.90565
896.9476	26.96439
897.0875	27.07565
897.2272	22.78738
897.3671	18.67004
897.5068	20.27081
897.6466	24.94136
897.7864	27.64418
897.9261	25.09732
898.0658	29.65004
898.2056	30.79728
898.3453	28.54467
898.4849	24.30416
898.6246	22.92
898.7643	20.51901
898.904	20.89373
899.0436	24.71981
899.1833	21.14623
899.3229	18.01737
899.4625	25.94875
899.6021	28.57256
899.7417	30.70179
899.8813	26.94585
900.0209	28.04364
900.1605	23.77439
900.3	24.79739
900.4395	22.38421
900.579	22.42977
900.7186	23.09764
900.8581	23.15456
900.9976	22.97903
901.1371	27.11156
901.2766	27.3023
901.416	25.08477
901.5555	26.11619
901.6949	24.06494
901.8344	20.56316
901.9738	25.70389
902.1132	29.0225
902.2526	27.34976
902.3919	28.79028
902.5313	25.65257
902.6707	25.03071
