SPECTRUM DATA FILE
SpectrumCount:	1
PixelCount:	3648
UserName:	ToughBook User
SampleName:	
LightSource:	
Comments:	
DeviceName:	Qwave
DeviceManufacturer:	Broadcom
DeviceSerialNo:	11311

Name:	last spectrum
Date:	2024-05-02T15:06:16.3070243+02:00
ExposureTime:	0.02
TemporalAvg:	1
IntensityUnit:	normalizedCounts
CCDLoadLevel:	0.02452125
Temperature:	28.38461
DiagramColor:	200
ProcessingSteps:	335

Wavelength [nm]	Intensity1
334.421	2.858995
334.5891	6.488364
334.7573	8.975525
334.9254	4.016824
335.0935	6.269135
335.2616	4.83702
335.4297	4.810023
335.5978	4.382642
335.7659	7.210845
335.934	2.997325
336.1021	6.505873
336.2701	6.674998
336.4382	1.410424
336.6063	6.463236
336.7744	10.06345
336.9424	11.88776
337.1105	5.779823
337.2785	6.097375
337.4466	9.085872
337.6146	2.599609
337.7827	1.596565
337.9507	3.390416
338.1187	4.862721
338.2867	3.855139
338.4548	7.026208
338.6228	4.683798
338.7908	3.793969
338.9588	3.781103
339.1268	0.0665088
339.2948	4.360418
339.4628	4.206423
339.6308	9.129592
339.7988	7.225959
339.9667	6.586541
340.1347	4.670316
340.3027	5.280135
340.4707	8.752725
340.6386	5.811033
340.8066	2.556607
340.9745	1.310996
341.1425	2.733989
341.3104	5.658642
341.4784	5.322065
341.6463	4.040893
341.8142	6.682917
341.9821	3.69998
342.1501	6.2288
342.318	6.307948
342.4859	0.1372987
342.6538	4.148305
342.8217	4.654441
342.9896	3.113496
343.1575	6.322416
343.3254	8.059312
343.4933	2.304163
343.6612	2.910098
343.829	6.176129
343.9969	7.332019
344.1648	1.235016
344.3326	4.912554
344.5005	6.001133
344.6683	8.940979
344.8362	8.402129
345.004	6.066729
345.1719	6.016208
345.3397	9.232558
345.5075	4.502705
345.6754	3.561902
345.8432	-1.36273
346.011	2.170372
346.1788	4.340709
346.3466	3.609262
346.5144	5.658966
346.6822	2.780256
346.85	3.846394
347.0178	-0.3186302
347.1856	1.880813
347.3534	0.4949155
347.5211	5.18831
347.6889	4.137691
347.8567	1.387019
348.0244	1.258677
348.1922	7.633641
348.3599	4.669201
348.5277	3.574482
348.6954	2.133038
348.8632	1.794861
349.0309	5.520168
349.1986	3.1473
349.3663	3.169904
349.5341	4.049013
349.7018	3.804471
349.8695	5.585769
350.0372	2.432212
350.2049	2.079707
350.3726	5.630893
350.5403	3.304197
350.7079	4.954768
350.8756	1.838108
351.0433	3.340901
351.211	3.719751
351.3786	6.698278
351.5463	6.804821
351.714	1.339252
351.8816	5.656423
352.0493	2.0775
352.2169	6.800131
352.3846	4.601762
352.5522	4.514484
352.7198	6.538927
352.8875	3.513274
353.0551	4.873744
353.2227	3.698635
353.3903	2.392137
353.5579	4.351367
353.7255	2.87364
353.8931	4.596678
354.0607	3.419762
354.2283	6.524749
354.3958	5.782497
354.5634	5.985917
354.731	9.428149
354.8986	10.6576
355.0661	3.998578
355.2337	4.07196
355.4012	7.170606
355.5688	5.383546
355.7363	7.801404
355.9039	7.097202
356.0714	7.383611
356.239	4.130258
356.4065	5.846518
356.574	7.329074
356.7415	2.09049
356.909	2.963364
357.0765	3.36509
357.244	8.391151
357.4115	5.433448
357.579	7.910607
357.7465	4.383498
357.914	6.383791
358.0815	2.509997
358.249	2.046194
358.4164	4.443892
358.5839	4.332901
358.7513	2.368483
358.9188	3.037313
359.0862	5.068205
359.2537	-0.232181
359.4211	6.706456
359.5886	5.032492
359.756	3.241276
359.9234	6.206978
360.0909	6.180838
360.2583	6.01316
360.4257	6.197537
360.5931	6.073427
360.7605	4.640193
360.9279	6.200395
361.0953	5.928338
361.2627	8.170412
361.4301	5.426129
361.5974	8.188943
361.7648	8.659454
361.9322	2.852805
362.0995	3.190115
362.2669	1.580088
362.4343	4.629165
362.6016	10.44682
362.769	6.733994
362.9363	9.612096
363.1036	5.707203
363.271	1.391306
363.4383	3.410925
363.6056	3.90764
363.7729	4.078599
363.9402	7.217202
364.1075	11.93783
364.2748	5.381937
364.4421	5.59041
364.6094	8.695327
364.7767	9.276958
364.944	5.463994
365.1113	11.33199
365.2786	6.884908
365.4458	8.034598
365.6131	9.504749
365.7803	9.520039
365.9476	10.26151
366.1148	10.42913
366.2821	13.07869
366.4493	6.583796
366.6166	7.989794
366.7838	8.748834
366.951	8.655091
367.1182	8.695758
367.2855	8.103091
367.4527	3.557471
367.6199	6.558
367.7871	10.20861
367.9543	5.754229
368.1215	3.74104
368.2886	8.236987
368.4558	6.468369
368.623	4.751632
368.7902	7.15769
368.9573	3.099613
369.1245	10.18437
369.2917	10.40544
369.4588	11.67698
369.6259	9.938655
369.7931	7.809216
369.9602	9.193159
370.1274	4.372012
370.2945	5.777203
370.4616	5.803985
370.6287	8.823651
370.7958	4.796777
370.963	4.130917
371.1301	7.799387
371.2971	7.667927
371.4643	7.000075
371.6313	7.078605
371.7984	3.094745
371.9655	5.901818
372.1326	7.181535
372.2997	5.03908
372.4667	8.948813
372.6338	10.26149
372.8008	12.04152
372.9679	6.717342
373.1349	6.69597
373.3019	7.728534
373.469	8.917287
373.636	3.962059
373.803	4.775859
373.9701	5.18337
374.1371	6.753012
374.3041	7.018391
374.4711	4.972127
374.6381	6.550725
374.8051	6.168897
374.9721	11.64342
375.1391	9.649772
375.3061	8.963392
375.473	9.47052
375.64	5.34509
375.8069	8.846236
375.9739	7.688293
376.1409	5.738238
376.3078	6.328612
376.4748	7.937734
376.6417	10.01857
376.8087	7.535417
376.9756	8.135005
377.1425	9.219799
377.3094	7.914882
377.4763	9.307335
377.6432	8.852085
377.8102	7.828387
377.9771	8.195526
378.144	5.081635
378.3109	11.78576
378.4777	10.72273
378.6446	8.986168
378.8115	6.86186
378.9784	9.830438
379.1452	7.711085
379.3121	8.419315
379.4789	8.953408
379.6458	7.659855
379.8127	7.399557
379.9795	6.297842
380.1463	9.320444
380.3131	8.095595
380.48	9.135588
380.6468	8.9419
380.8136	9.486577
380.9804	8.500084
381.1472	9.223269
381.314	7.956826
381.4808	7.616828
381.6476	8.346472
381.8144	3.827497
381.9812	10.2951
382.148	7.079644
382.3147	10.13323
382.4815	7.575531
382.6483	9.01186
382.815	5.488746
382.9818	11.07684
383.1485	7.406574
383.3153	1.127719
383.482	6.78803
383.6487	6.622772
383.8155	8.001672
383.9822	6.544402
384.1489	10.96685
384.3156	7.552552
384.4823	12.68726
384.649	12.01403
384.8157	5.731966
384.9824	3.077894
385.1491	7.875199
385.3158	8.547823
385.4825	9.864141
385.6491	8.520542
385.8158	8.1609
385.9825	10.38156
386.1491	10.46063
386.3157	6.491491
386.4824	10.51906
386.649	11.21534
386.8157	7.12389
386.9823	3.418305
387.1489	13.18961
387.3156	4.891826
387.4821	5.442482
387.6488	7.895512
387.8154	4.661191
387.982	8.000337
388.1486	8.650778
388.3152	9.673082
388.4818	6.812201
388.6483	11.09719
388.8149	8.261768
388.9815	6.164543
389.148	7.695329
389.3146	10.85369
389.4811	12.16525
389.6477	9.795413
389.8142	13.03014
389.9808	8.125982
390.1473	7.943069
390.3138	6.708912
390.4804	8.575027
390.6469	11.68625
390.8134	8.480607
390.9799	8.623005
391.1464	7.256369
391.3129	11.42904
391.4794	11.33888
391.6459	13.45444
391.8124	9.364527
391.9789	13.49095
392.1453	12.15566
392.3118	8.157972
392.4782	11.1455
392.6447	7.825294
392.8112	6.346007
392.9776	10.30128
393.144	12.48276
393.3105	9.905711
393.4769	11.01943
393.6433	12.11537
393.8098	10.35793
393.9762	10.46319
394.1426	10.06947
394.309	10.09113
394.4754	7.488737
394.6418	11.09752
394.8082	7.607898
394.9746	5.043415
395.141	7.590767
395.3073	10.24718
395.4737	6.082585
395.64	7.563643
395.8064	10.16625
395.9728	7.12488
396.1391	11.97373
396.3055	10.72871
396.4718	12.87037
396.6381	8.790013
396.8045	9.840058
396.9708	8.429911
397.1371	7.431523
397.3034	11.62152
397.4697	13.00505
397.636	11.15192
397.8023	7.907191
397.9686	6.654397
398.1349	11.03634
398.3012	8.888601
398.4675	11.80054
398.6337	11.58689
398.8	13.13997
398.9662	14.59082
399.1325	14.53127
399.2988	13.72471
399.465	9.074355
399.6313	10.24613
399.7975	12.68274
399.9637	14.09371
400.1299	13.28809
400.2961	12.12766
400.4624	16.31206
400.6286	14.47197
400.7948	10.17032
400.961	11.84356
401.1272	15.49475
401.2934	14.30667
401.4595	17.00516
401.6257	14.68275
401.7919	11.92768
401.9581	11.35506
402.1242	13.18428
402.2904	10.98198
402.4565	10.98588
402.6227	11.88965
402.7888	10.45694
402.955	13.74884
403.1211	16.49794
403.2872	17.05206
403.4533	11.71854
403.6194	16.87567
403.7856	16.74813
403.9517	16.6977
404.1177	10.65708
404.2838	10.61478
404.4499	12.24913
404.616	7.083113
404.7821	11.77691
404.9482	16.9645
405.1142	16.28308
405.2803	10.76316
405.4464	12.3779
405.6124	9.658734
405.7784	9.459953
405.9445	13.02241
406.1105	11.81284
406.2766	13.31357
406.4426	9.220866
406.6086	10.63291
406.7746	16.55827
406.9406	9.898977
407.1066	10.01245
407.2726	10.24957
407.4386	10.45048
407.6046	15.11061
407.7706	16.44466
407.9366	12.53367
408.1025	12.49489
408.2685	15.59645
408.4344	16.09588
408.6004	13.72111
408.7664	13.23619
408.9323	14.77853
409.0983	15.66652
409.2642	16.95408
409.4301	18.04253
409.596	12.95126
409.762	15.46826
409.9279	16.96487
410.0938	14.74546
410.2597	16.58437
410.4256	14.83459
410.5915	13.71661
410.7574	17.95998
410.9232	16.30741
411.0891	18.32365
411.255	12.62855
411.4209	17.1354
411.5867	14.37587
411.7526	14.25824
411.9184	13.60851
412.0843	13.59626
412.2501	13.03183
412.4159	20.85665
412.5818	18.60802
412.7476	14.98812
412.9134	19.91782
413.0792	14.0301
413.245	16.25524
413.4108	16.89582
413.5766	18.19949
413.7424	17.18548
413.9082	16.7841
414.074	19.70154
414.2397	17.26151
414.4055	16.45411
414.5713	17.79473
414.737	18.41586
414.9028	18.42572
415.0685	18.54794
415.2343	20.65718
415.4	18.0385
415.5658	14.47339
415.7315	11.78839
415.8972	17.94597
416.0629	17.19642
416.2286	17.52088
416.3943	18.8796
416.56	21.03428
416.7257	18.29908
416.8914	15.33285
417.0571	15.08251
417.2228	18.92692
417.3884	13.31557
417.5541	18.54376
417.7198	18.1478
417.8854	20.76452
418.0511	22.46341
418.2167	13.45713
418.3824	14.38894
418.548	17.19645
418.7136	17.4104
418.8792	18.99753
419.0449	16.65552
419.2105	17.51088
419.3761	17.01878
419.5417	20.39314
419.7073	16.48236
419.8729	10.14975
420.0385	12.6052
420.204	17.2426
420.3696	18.92974
420.5352	17.80317
420.7007	19.38774
420.8663	21.70009
421.0319	17.59702
421.1974	18.4924
421.3629	17.04456
421.5285	17.22503
421.694	19.80338
421.8595	19.38187
422.0251	20.30965
422.1906	21.12894
422.3561	16.86332
422.5216	20.20491
422.6871	13.80709
422.8526	18.03045
423.0181	19.62602
423.1835	19.39725
423.349	18.95236
423.5145	19.3916
423.68	22.62197
423.8454	17.91556
424.0109	22.55544
424.1763	24.11063
424.3418	24.3835
424.5072	26.40805
424.6726	23.79957
424.838	23.11844
425.0035	19.70535
425.1689	22.03867
425.3343	24.85324
425.4997	22.4996
425.6651	24.69661
425.8305	23.79527
425.9959	18.4352
426.1613	19.32487
426.3267	23.99113
426.492	23.75748
426.6574	24.07098
426.8228	23.1922
426.9881	20.65219
427.1534	20.51723
427.3188	16.85081
427.4841	25.28724
427.6495	19.88165
427.8148	27.04765
427.9801	27.3248
428.1454	18.42443
428.3107	21.46008
428.476	20.7821
428.6414	21.6873
428.8066	24.03282
428.9719	21.68752
429.1372	20.63487
429.3025	25.10799
429.4678	25.53578
429.633	24.06437
429.7983	23.4682
429.9636	22.92008
430.1288	21.47318
430.294	15.71201
430.4593	16.81058
430.6245	20.3335
430.7897	20.18073
430.955	23.2588
431.1202	18.74323
431.2854	20.25948
431.4506	23.71963
431.6158	24.4778
431.781	28.33128
431.9462	25.88742
432.1114	22.87
432.2766	24.78421
432.4417	25.24768
432.6069	23.68026
432.772	21.8116
432.9372	27.88868
433.1024	24.32956
433.2675	22.29995
433.4326	25.59834
433.5977	26.09148
433.7629	26.65249
433.928	22.92928
434.0931	19.73819
434.2582	21.37652
434.4233	23.41171
434.5884	21.95163
434.7535	24.9367
434.9186	25.43427
435.0837	25.20477
435.2488	22.38554
435.4138	26.12527
435.5789	25.42038
435.744	23.01927
435.909	24.96247
436.0741	27.82236
436.2391	26.83551
436.4042	28.94457
436.5692	26.3997
436.7342	29.75455
436.8992	28.57333
437.0643	26.44628
437.2293	25.956
437.3943	30.23306
437.5593	26.11538
437.7243	26.70797
437.8893	26.4109
438.0542	28.46129
438.2192	28.95155
438.3842	27.95613
438.5491	21.6657
438.7141	26.70768
438.8791	24.81092
439.044	31.73576
439.209	30.39612
439.3739	28.61907
439.5388	28.54066
439.7037	30.72905
439.8687	28.71548
440.0336	31.30423
440.1985	30.50714
440.3634	24.60901
440.5283	25.5881
440.6932	26.99145
440.8581	29.04144
441.0229	33.91844
441.1878	32.77159
441.3527	32.24223
441.5175	33.07793
441.6824	28.38583
441.8472	27.08169
442.0121	33.73638
442.1769	29.48987
442.3418	29.42154
442.5066	29.03606
442.6714	29.3594
442.8362	31.57368
443.001	32.8689
443.1659	29.9274
443.3307	25.96754
443.4955	25.36484
443.6602	30.39375
443.825	24.5062
443.9898	27.79123
444.1546	34.39276
444.3193	33.85127
444.4841	32.24469
444.6488	31.15799
444.8136	31.76395
444.9783	29.70174
445.1431	32.24942
445.3078	27.95955
445.4725	32.49005
445.6372	32.23852
445.802	27.30211
445.9667	25.86738
446.1314	31.31222
446.2961	32.38945
446.4608	34.87387
446.6255	32.36155
446.7901	34.47153
446.9548	33.36821
447.1195	31.77445
447.2841	32.8118
447.4488	32.42824
447.6134	30.94357
447.7781	30.79883
447.9427	33.36335
448.1074	30.2357
448.272	33.99111
448.4366	29.06976
448.6012	30.72616
448.7658	31.60506
448.9305	30.27001
449.095	33.42833
449.2596	34.2864
449.4242	39.43083
449.5888	35.89547
449.7534	37.00313
449.9179	36.11203
450.0825	33.64611
450.2471	34.36425
450.4116	31.93408
450.5762	31.83768
450.7407	37.34818
450.9052	33.36905
451.0698	35.20683
451.2343	32.97161
451.3988	36.1692
451.5633	34.58241
451.7278	31.29355
451.8923	35.55911
452.0568	40.70517
452.2213	34.72924
452.3858	33.75965
452.5503	35.75262
452.7148	30.16306
452.8792	31.00691
453.0437	32.56636
453.2081	31.81363
453.3726	33.1184
453.537	36.62146
453.7015	35.12194
453.8659	33.20464
454.0303	38.14516
454.1947	34.85816
454.3592	36.55848
454.5236	32.619
454.688	34.22958
454.8524	39.72757
455.0168	36.23925
455.1811	36.0156
455.3455	37.71587
455.5099	33.93084
455.6743	35.26225
455.8386	37.1141
456.003	39.20712
456.1673	39.11969
456.3317	37.64154
456.496	37.23392
456.6603	36.13263
456.8246	34.51535
456.989	38.896
457.1533	36.80289
457.3176	37.4463
457.4819	36.53402
457.6462	32.08343
457.8105	36.08005
457.9748	41.56455
458.1391	38.81619
458.3033	35.58503
458.4676	35.7225
458.6319	36.30066
458.7961	36.52897
458.9604	36.73724
459.1246	35.42501
459.2888	41.70306
459.4531	36.80337
459.6173	40.83799
459.7815	36.37145
459.9457	35.67212
460.11	40.13402
460.2741	39.48321
460.4384	38.41075
460.6025	39.05606
460.7667	40.81065
460.9309	38.57648
461.0951	41.80076
461.2592	44.53369
461.4234	46.58916
461.5876	41.37452
461.7517	37.04914
461.9159	37.74492
462.08	39.51865
462.2441	38.71346
462.4082	39.35633
462.5724	40.12893
462.7365	42.12102
462.9006	40.70013
463.0647	41.37053
463.2288	39.56761
463.3929	37.80101
463.557	39.2137
463.721	37.05481
463.8851	38.85447
464.0492	39.94969
464.2132	35.44365
464.3773	37.86295
464.5414	33.28201
464.7054	36.13979
464.8694	37.2064
465.0334	37.50766
465.1975	36.66908
465.3615	38.23542
465.5255	41.53173
465.6895	36.62135
465.8535	39.78234
466.0175	33.90549
466.1815	39.46815
466.3455	38.13821
466.5095	37.44579
466.6734	40.93361
466.8374	36.50336
467.0014	37.82832
467.1653	35.17552
467.3293	35.40421
467.4932	37.16423
467.6571	38.85098
467.8211	38.90223
467.985	36.00543
468.1489	35.67381
468.3128	38.33006
468.4767	39.72197
468.6406	43.45109
468.8045	39.82043
468.9684	41.78831
469.1323	38.32804
469.2962	42.29949
469.46	38.32148
469.6239	39.34941
469.7878	39.8318
469.9516	36.30636
470.1154	36.74239
470.2793	38.46867
470.4431	42.88966
470.607	41.09362
470.7708	39.0874
470.9346	40.53529
471.0984	41.39296
471.2622	41.22691
471.426	41.52367
471.5898	43.38353
471.7536	48.85146
471.9174	45.31116
472.0811	42.74722
472.2449	42.45072
472.4087	43.31562
472.5724	44.73967
472.7362	43.99924
472.8999	43.01152
473.0637	44.30957
473.2274	39.60965
473.3911	41.55967
473.5548	43.59788
473.7185	42.44393
473.8822	41.32182
474.0459	38.44099
474.2096	43.21941
474.3733	43.49868
474.537	41.91387
474.7007	42.13548
474.8643	41.89049
475.028	46.52601
475.1917	39.47132
475.3553	38.90808
475.519	38.55098
475.6826	35.67108
475.8463	38.2069
476.0099	45.77032
476.1735	40.95701
476.3371	40.80477
476.5007	40.1109
476.6643	40.47052
476.8279	35.68157
476.9915	39.11781
477.1551	49.01705
477.3187	50.09321
477.4823	43.30706
477.6458	41.25016
477.8094	46.94627
477.9729	41.07297
478.1365	42.82085
478.3	39.44747
478.4636	40.54035
478.6271	38.14297
478.7906	40.52538
478.9541	43.357
479.1176	44.13165
479.2812	42.5969
479.4447	43.92222
479.6082	41.3087
479.7716	40.58827
479.9351	38.13237
480.0986	41.79175
480.2621	40.62629
480.4255	41.46673
480.589	40.7916
480.7524	39.60837
480.9159	38.77444
481.0793	39.08848
481.2428	43.64384
481.4062	41.29368
481.5696	43.00388
481.733	44.12882
481.8964	35.85124
482.0598	41.55312
482.2232	44.2059
482.3866	44.83525
482.55	43.01886
482.7134	39.53692
482.8768	42.27691
483.0401	42.52272
483.2035	38.64979
483.3668	38.36978
483.5302	41.24793
483.6935	38.31475
483.8568	37.97173
484.0202	43.34296
484.1835	44.00062
484.3468	37.78419
484.5101	37.03132
484.6734	39.87535
484.8367	44.13136
485	42.5678
485.1633	42.41275
485.3266	40.62248
485.4899	41.50085
485.6531	41.17142
485.8164	38.84136
485.9796	30.75051
486.1429	35.3046
486.3061	35.94819
486.4694	36.70057
486.6326	38.78905
486.7958	37.81306
486.959	36.10564
487.1223	39.79036
487.2855	37.22243
487.4486	34.5671
487.6118	35.27316
487.775	39.52314
487.9382	42.12484
488.1014	45.90532
488.2646	43.41453
488.4277	41.3476
488.5909	40.27449
488.754	38.41381
488.9171	36.3645
489.0803	41.01821
489.2434	41.16198
489.4066	44.90689
489.5697	38.28679
489.7328	44.87377
489.8959	52.40149
490.059	52.51056
490.2221	42.46618
490.3852	43.79236
490.5482	43.9927
490.7113	39.37439
490.8744	39.96688
491.0374	37.91933
491.2005	39.39031
491.3636	43.82299
491.5266	48.27976
491.6896	44.44651
491.8527	42.67865
492.0157	37.22299
492.1787	43.32098
492.3417	43.21599
492.5047	42.03777
492.6677	44.17649
492.8307	40.53727
492.9937	47.82031
493.1567	44.37474
493.3196	41.53112
493.4826	43.84048
493.6456	37.54028
493.8085	42.02026
493.9715	40.88933
494.1344	41.36827
494.2974	47.47552
494.4603	49.07067
494.6232	46.60474
494.7861	44.40637
494.949	43.60078
495.1119	45.50023
495.2748	45.31278
495.4377	41.32743
495.6006	43.55982
495.7635	42.48451
495.9264	46.06298
496.0892	46.38181
496.2521	53.37999
496.4149	49.67782
496.5778	46.33919
496.7407	45.88873
496.9035	44.50532
497.0663	46.00862
497.2291	43.49998
497.3919	46.55008
497.5547	51.84352
497.7176	50.71039
497.8804	52.74569
498.0432	50.80083
498.2059	42.9602
498.3687	39.11939
498.5315	45.39615
498.6942	43.73078
498.857	48.18198
499.0198	48.00185
499.1825	42.16233
499.3452	39.64882
499.508	47.4819
499.6707	49.23204
499.8334	47.43353
499.9962	43.05886
500.1589	43.99212
500.3216	45.91173
500.4843	47.12156
500.6469	44.74653
500.8096	51.50066
500.9723	44.21795
501.135	39.7027
501.2976	39.27834
501.4603	36.81543
501.623	43.99128
501.7856	47.40855
501.9482	46.17744
502.1109	45.7645
502.2735	43.86058
502.4361	44.5396
502.5987	45.49179
502.7614	41.52626
502.924	45.33556
503.0865	46.57359
503.2491	52.2494
503.4117	48.73679
503.5743	48.56906
503.7368	41.85079
503.8994	46.42255
504.062	45.77141
504.2245	48.47636
504.3871	45.91926
504.5496	45.47503
504.7121	48.75279
504.8746	53.40628
505.0372	46.06122
505.1997	42.99677
505.3622	50.91493
505.5247	48.59499
505.6872	51.35167
505.8497	49.88237
506.0121	51.31364
506.1746	52.33444
506.3371	48.78366
506.4995	52.74292
506.662	54.95671
506.8244	49.61426
506.9869	51.71356
507.1493	47.90828
507.3117	49.21928
507.4742	48.50093
507.6366	50.62257
507.799	51.60215
507.9614	51.53666
508.1238	49.29767
508.2862	50.42878
508.4485	48.78152
508.6109	53.58182
508.7733	49.48563
508.9357	51.74451
509.098	49.00067
509.2604	52.88948
509.4227	54.24717
509.5851	52.57003
509.7474	50.92219
509.9097	54.24178
510.072	54.67693
510.2343	51.21106
510.3966	49.12384
510.5589	53.17769
510.7212	48.10473
510.8835	50.36376
511.0458	56.42767
511.2081	50.00437
511.3703	54.24237
511.5326	58.06946
511.6949	54.31302
511.8571	57.2434
512.0193	57.59689
512.1816	56.16706
512.3438	52.58032
512.506	57.86757
512.6682	53.24802
512.8304	57.53143
512.9926	59.53651
513.1548	53.49779
513.317	49.91261
513.4792	57.13478
513.6414	57.69989
513.8035	59.18268
513.9657	55.35373
514.1279	54.64194
514.29	53.3766
514.4521	54.40348
514.6143	59.79637
514.7764	57.54571
514.9385	54.10418
515.1006	56.5977
515.2628	55.19732
515.4249	57.91606
515.587	55.72388
515.7491	54.66695
515.9111	60.80618
516.0732	59.33288
516.2353	55.91756
516.3973	56.57149
516.5594	56.9415
516.7214	53.30274
516.8835	51.17577
517.0455	50.79007
517.2076	45.88711
517.3696	50.65006
517.5316	52.37849
517.6937	52.89442
517.8557	62.33836
518.0176	63.78335
518.1796	61.37354
518.3416	62.21097
518.5036	54.90885
518.6656	54.74374
518.8275	64.08856
518.9895	62.00749
519.1514	64.1787
519.3134	63.76282
519.4753	64.21478
519.6373	64.31965
519.7992	64.3167
519.9611	68.32679
520.123	65.24401
520.2849	62.97133
520.4468	63.93709
520.6087	58.97054
520.7706	62.67053
520.9325	63.28983
521.0944	66.78674
521.2562	66.10424
521.4181	63.34291
521.58	65.79166
521.7418	64.91771
521.9036	69.2381
522.0655	69.38201
522.2273	72.19405
522.3891	75.0154
522.551	69.67754
522.7128	63.12331
522.8746	64.03231
523.0363	67.27161
523.1981	66.56743
523.3599	69.77037
523.5217	72.97761
523.6835	71.90075
523.8452	73.62919
524.007	72.389
524.1687	78.70903
524.3304	75.53277
524.4922	75.43661
524.6539	78.31735
524.8157	74.90591
524.9774	75.88567
525.1391	78.77539
525.3008	75.52954
525.4625	78.59804
525.6241	75.65707
525.7858	76.2894
525.9475	75.21089
526.1092	79.0138
526.2709	69.44587
526.4325	74.30848
526.5942	68.97665
526.7558	67.99541
526.9174	72.61011
527.079	71.57313
527.2407	73.75765
527.4023	73.05319
527.5639	78.71513
527.7255	78.47489
527.8871	79.01076
528.0487	77.11771
528.2103	84.16575
528.3718	83.67905
528.5334	83.56054
528.695	81.86345
528.8565	88.95142
529.0181	87.64403
529.1796	84.23843
529.3412	82.96416
529.5027	89.7401
529.6642	88.80256
529.8257	85.62563
529.9872	85.60374
530.1487	82.6537
530.3102	83.09214
530.4717	86.74031
530.6332	87.48122
530.7947	87.12865
530.9562	90.31404
531.1176	90.93166
531.2791	90.78031
531.4405	92.33917
531.6019	92.68685
531.7634	88.48177
531.9248	90.70452
532.0862	89.24778
532.2477	89.2961
532.4091	86.90765
532.5704	88.96758
532.7319	83.60691
532.8932	80.62913
533.0546	85.18974
533.216	87.96693
533.3774	86.73249
533.5388	87.74715
533.7001	88.54831
533.8615	87.68129
534.0228	85.08644
534.1841	83.16096
534.3455	85.52004
534.5068	87.94771
534.6681	88.09949
534.8293	84.94804
534.9907	89.2784
535.152	96.36724
535.3132	89.9612
535.4745	87.75587
535.6358	91.96783
535.7971	91.82806
535.9583	94.98939
536.1196	91.00652
536.2808	98.30138
536.4421	94.17649
536.6033	87.89614
536.7645	90.61094
536.9258	83.643
537.087	87.14973
537.2482	80.83118
537.4094	84.00789
537.5706	85.36531
537.7318	90.98828
537.8929	90.79598
538.0541	87.07339
538.2153	83.01152
538.3764	89.4333
538.5376	90.1628
538.6987	94.15738
538.8599	95.5292
539.021	93.55465
539.1821	87.95729
539.3432	85.88998
539.5043	89.68981
539.6655	91.16898
539.8265	87.13378
539.9876	88.33491
540.1487	87.64074
540.3098	88.53901
540.4708	85.08504
540.6319	86.37169
540.793	86.70339
540.954	86.08896
541.1151	83.78816
541.2761	85.9646
541.4371	89.4204
541.5981	91.4629
541.7592	87.92782
541.9202	93.41812
542.0812	91.97268
542.2422	92.26485
542.4031	90.95094
542.5641	92.08189
542.7251	84.22257
542.886	85.01456
543.0471	82.01221
543.208	89.30058
543.369	87.79095
543.5298	88.38339
543.6908	93.95935
543.8517	92.13893
544.0126	95.95782
544.1736	93.66534
544.3345	92.95088
544.4954	93.45829
544.6563	87.08463
544.8171	90.38758
544.978	89.91991
545.1389	95.55112
545.2997	91.82674
545.4606	91.22944
545.6215	87.74448
545.7823	91.39655
545.9432	93.87337
546.104	94.83563
546.2648	89.74334
546.4256	91.85713
546.5864	88.70103
546.7473	92.27279
546.908	92.15936
547.0688	95.33961
547.2296	96.10976
547.3904	91.64572
547.5511	93.46949
547.7119	91.49873
547.8727	87.96362
548.0334	87.95441
548.1942	94.5548
548.3549	98.41733
548.5156	94.13102
548.6763	90.13146
548.837	92.08812
548.9977	90.89419
549.1584	92.78878
549.3192	98.87357
549.4798	96.36526
549.6405	92.70905
549.8011	91.36224
549.9619	90.98978
550.1225	93.04469
550.2831	89.61238
550.4438	91.33492
550.6044	87.78008
550.765	85.10523
550.9257	86.91802
551.0863	91.34024
551.2469	94.10226
551.4075	97.24689
551.5681	93.503
551.7287	91.76017
551.8893	93.94912
552.0498	95.06664
552.2104	99.5174
552.371	92.76843
552.5315	91.13544
552.6921	89.6936
552.8526	88.40186
553.0131	92.8448
553.1736	89.94975
553.3342	85.42143
553.4947	86.25636
553.6552	89.40505
553.8157	91.13324
553.9762	93.82308
554.1367	87.43048
554.2971	89.8499
554.4576	92.65031
554.618	97.65185
554.7785	90.60447
554.939	95.17846
555.0994	88.92243
555.2598	87.91101
555.4203	92.25149
555.5807	88.7444
555.7411	88.93511
555.9015	95.11087
556.0619	95.4677
556.2223	91.68239
556.3827	88.35248
556.5431	88.76337
556.7034	89.91599
556.8638	90.8385
557.0242	82.20315
557.1845	88.56268
557.3448	87.73902
557.5052	86.19139
557.6655	94.07634
557.8259	93.36532
557.9861	88.06905
558.1465	88.0174
558.3068	88.387
558.467	83.12946
558.6274	86.22414
558.7877	81.88401
558.9479	80.66335
559.1082	84.17585
559.2684	78.7682
559.4287	80.9435
559.5889	84.86971
559.7491	88.07571
559.9094	82.86004
560.0696	82.35151
560.2299	86.6086
560.3901	83.29426
560.5502	83.75732
560.7104	84.20153
560.8707	89.25706
561.0308	89.6464
561.191	90.19446
561.3511	88.6643
561.5114	81.5771
561.6714	78.12973
561.8316	78.36777
561.9918	83.34091
562.1519	82.38704
562.312	84.48489
562.4722	80.8588
562.6323	80.7515
562.7924	89.48502
562.9525	88.57543
563.1125	85.72031
563.2726	85.5182
563.4327	87.40958
563.5928	88.93419
563.7528	83.62315
563.9129	77.04488
564.0729	84.22254
564.233	78.80531
564.393	74.9497
564.553	77.39384
564.7131	76.5983
564.873	80.16143
565.0331	77.64912
565.1931	81.97144
565.353	82.25967
565.5131	77.63425
565.673	74.96519
565.833	73.82023
565.9929	74.36401
566.1529	76.35695
566.3129	74.65562
566.4728	77.55256
566.6328	81.60328
566.7927	79.47445
566.9526	81.78988
567.1125	78.64478
567.2724	76.45574
567.4323	78.46002
567.5922	81.37949
567.7521	79.66329
567.9119	76.3758
568.0718	74.03102
568.2317	74.47996
568.3915	72.81388
568.5514	75.0887
568.7112	73.54688
568.871	74.84244
569.0309	75.65029
569.1907	75.62647
569.3505	75.70492
569.5103	75.82369
569.6701	77.897
569.8299	79.09032
569.9897	75.78374
570.1495	72.72384
570.3092	73.34315
570.469	72.37015
570.6287	67.67793
570.7885	68.44021
570.9482	70.66541
571.108	67.93634
571.2677	68.22646
571.4274	73.80862
571.5871	74.96724
571.7468	70.74402
571.9066	68.4522
572.0662	65.50595
572.2259	67.65392
572.3856	67.7584
572.5452	64.33002
572.7049	69.41082
572.8646	74.20088
573.0242	73.48286
573.1838	72.48109
573.3435	67.93996
573.5031	70.86626
573.6627	74.64774
573.8223	69.05328
573.9819	72.30883
574.1415	74.2774
574.3011	71.06599
574.4607	66.70236
574.6203	72.13942
574.7798	75.06667
574.9394	71.13231
575.099	71.69673
575.2585	70.74362
575.418	66.27858
575.5776	66.72332
575.7371	65.27938
575.8966	69.74999
576.0562	69.55743
576.2156	63.40402
576.3751	65.5835
576.5346	65.75803
576.6941	71.75029
576.8536	68.37035
577.0131	60.43413
577.1725	69.02753
577.332	63.47033
577.4914	64.25615
577.6508	68.84042
577.8103	68.72225
577.9697	59.98471
578.1291	60.01043
578.2885	64.03037
578.4479	64.61889
578.6073	62.26213
578.7667	65.56457
578.9261	61.35623
579.0854	64.61411
579.2448	63.96992
579.4042	60.51542
579.5635	63.25566
579.7229	62.2216
579.8822	59.981
580.0416	66.55658
580.2009	64.1318
580.3602	63.89678
580.5195	69.13773
580.6788	66.46443
580.8381	64.21175
580.9974	66.04548
581.1566	62.13102
581.3159	64.87199
581.4752	62.09719
581.6345	63.07819
581.7937	64.70316
581.9529	64.50999
582.1122	62.71418
582.2714	61.02168
582.4306	63.02217
582.5898	65.06369
582.749	63.99376
582.9082	60.3288
583.0674	61.71608
583.2266	64.716
583.3857	64.22243
583.5449	64.89962
583.7041	63.12481
583.8633	58.33471
584.0224	63.7977
584.1815	64.89924
584.3407	61.68074
584.4998	58.5969
584.6589	58.18814
584.818	57.76984
584.9771	63.28168
585.1362	66.40831
585.2953	63.74515
585.4544	61.59614
585.6135	60.35891
585.7725	61.92817
585.9316	63.11656
586.0906	57.66201
586.2497	58.37418
586.4087	60.71512
586.5677	57.20699
586.7267	58.62056
586.8858	60.09829
587.0448	59.39867
587.2038	64.88632
587.3628	58.03637
587.5218	59.9101
587.6807	59.57886
587.8397	56.14133
587.9987	60.40722
588.1577	51.25785
588.3166	54.43193
588.4755	58.0324
588.6345	60.81934
588.7934	56.5612
588.9523	55.55799
589.1112	50.35397
589.2701	54.58614
589.429	56.37251
589.5879	55.31904
589.7468	55.64416
589.9056	54.97363
590.0645	56.16003
590.2234	49.76892
590.3822	59.08801
590.5411	52.32952
590.6999	55.11146
590.8588	52.55471
591.0176	54.62389
591.1764	52.86386
591.3352	52.39337
591.494	51.86965
591.6528	57.17711
591.8116	59.34937
591.9703	56.74277
592.1291	60.56893
592.2878	62.84178
592.4467	55.50026
592.6053	57.45976
592.7641	56.11208
592.9229	55.15318
593.0816	54.93435
593.2403	55.90675
593.399	56.82157
593.5577	54.37217
593.7164	53.23352
593.8751	56.45813
594.0338	55.47136
594.1924	54.94625
594.3511	53.96293
594.5098	54.99166
594.6684	54.99873
594.8271	51.15591
594.9857	53.40881
595.1443	55.00551
595.303	56.27301
595.4615	55.1076
595.6202	54.81009
595.7787	57.40573
595.9374	54.58171
596.0959	56.71186
596.2545	53.41518
596.4131	58.2823
596.5717	61.07601
596.7302	55.31625
596.8887	56.6598
597.0473	58.20736
597.2058	58.09997
597.3644	55.30629
597.5229	56.07307
597.6814	61.46407
597.8399	52.80867
597.9984	50.87402
598.1569	53.21978
598.3154	57.77574
598.4738	56.93037
598.6323	49.10667
598.7908	51.01711
598.9492	57.86873
599.1076	56.90276
599.2661	58.48101
599.4245	53.41395
599.5829	53.61864
599.7413	53.02978
599.8997	53.87811
600.0581	51.6487
600.2165	52.35428
600.3749	50.57117
600.5333	52.98542
600.6917	56.64112
600.85	54.01059
601.0084	53.96914
601.1667	50.65138
601.325	53.70335
601.4833	50.06031
601.6417	52.44633
601.8	54.06208
601.9583	50.50263
602.1166	55.27941
602.2749	54.01921
602.4332	55.8152
602.5914	52.01904
602.7498	56.36361
602.908	56.27956
603.0662	56.48955
603.2245	56.11047
603.3828	55.74626
603.541	55.13359
603.6992	51.94989
603.8574	50.64231
604.0156	49.71278
604.1738	50.0308
604.332	55.08898
604.4902	53.7488
604.6484	53.4099
604.8065	52.98191
604.9647	54.94409
605.1229	53.66561
605.281	53.23721
605.4391	53.28397
605.5973	56.60014
605.7554	54.98697
605.9135	53.56156
606.0717	55.07399
606.2297	55.75296
606.3878	49.79276
606.5459	52.31611
606.704	50.08849
606.8621	53.30803
607.0201	52.10146
607.1782	51.19508
607.3362	47.52667
607.4943	50.52408
607.6523	51.98393
607.8104	52.48539
607.9684	53.11229
608.1264	50.84155
608.2844	47.3564
608.4424	44.11076
608.6003	48.59802
608.7584	51.59895
608.9163	54.06012
609.0743	49.53215
609.2322	45.82722
609.3902	47.21341
609.5482	46.94341
609.7061	52.58389
609.864	51.61658
610.0219	48.61422
610.1798	50.29959
610.3377	52.64831
610.4956	53.07157
610.6535	50.28833
610.8114	49.28881
610.9693	45.76144
611.1271	48.34312
611.285	51.05048
611.4429	49.56898
611.6007	47.78115
611.7585	53.26709
611.9164	52.92867
612.0742	50.22271
612.232	53.1142
612.3898	49.80932
612.5476	44.80028
612.7054	41.70314
612.8632	46.25711
613.0209	47.61339
613.1787	44.48773
613.3365	43.45984
613.4942	48.90749
613.652	45.22315
613.8097	44.50912
613.9674	50.12981
614.1252	49.27063
614.2829	47.00532
614.4406	46.47414
614.5983	50.76937
614.756	48.57638
614.9136	46.2965
615.0714	48.70216
615.229	46.49776
615.3867	47.38751
615.5443	49.62273
615.702	48.29408
615.8596	46.50845
616.0172	45.03227
616.1748	44.1353
616.3325	44.78368
616.4901	47.35966
616.6476	49.68314
616.8052	47.09695
616.9628	45.45848
617.1204	51.00038
617.278	48.88736
617.4355	46.00224
617.5931	48.09503
617.7506	47.37813
617.9081	45.77783
618.0657	42.6961
618.2232	41.91769
618.3807	40.20772
618.5382	45.18005
618.6957	48.15646
618.8532	44.9084
619.0107	48.15113
619.1682	43.11483
619.3256	47.53953
619.4831	43.36545
619.6406	45.55318
619.798	44.8889
619.9554	43.94384
620.1129	48.98415
620.2703	44.80783
620.4277	44.99214
620.5851	47.3726
620.7425	44.16486
620.8998	44.24968
621.0573	50.65486
621.2146	45.04682
621.372	42.85665
621.5294	47.21817
621.6867	45.83452
621.8441	38.04755
622.0013	43.94425
622.1587	40.60937
622.316	40.13743
622.4733	40.77253
622.6306	43.27065
622.7879	41.4004
622.9452	45.26111
623.1025	49.49079
623.2598	46.93072
623.4171	40.08536
623.5743	45.57264
623.7316	48.40862
623.8888	42.76166
624.046	45.60046
624.2032	43.62028
624.3605	40.79531
624.5176	49.14037
624.6749	49.23894
624.8321	40.26102
624.9893	39.53337
625.1464	45.30119
625.3036	44.9383
625.4608	43.91668
625.6179	45.48199
625.7751	50.05971
625.9322	45.96646
626.0894	43.31272
626.2465	45.06453
626.4036	45.33895
626.5607	44.84937
626.7178	43.12764
626.8749	45.43459
627.032	44.912
627.189	42.00845
627.3461	41.89062
627.5032	51.24388
627.6602	42.48973
627.8173	42.17876
627.9743	39.02518
628.1313	37.65763
628.2884	41.66345
628.4454	44.13109
628.6024	44.22206
628.7594	40.07256
628.9164	43.10735
629.0734	42.28442
629.2303	43.15938
629.3873	46.7026
629.5443	47.23905
629.7012	44.12803
629.8582	47.9875
630.0151	43.87685
630.172	38.92871
630.3289	40.52711
630.4858	39.95922
630.6428	42.60231
630.7996	44.66642
630.9565	39.81632
631.1134	39.99842
631.2703	43.2839
631.4272	43.18877
631.584	45.88347
631.7408	37.14334
631.8977	38.78479
632.0546	41.43704
632.2114	38.80207
632.3682	40.31931
632.525	45.04105
632.6818	47.9576
632.8386	42.85888
632.9954	41.10411
633.1522	40.72796
633.3089	38.79635
633.4657	41.41476
633.6224	40.78337
633.7792	43.68464
633.9359	44.54256
634.0927	39.95315
634.2494	41.83327
634.4061	41.86564
634.5628	36.33374
634.7195	40.05952
634.8762	45.84541
635.0329	41.79467
635.1895	41.10272
635.3462	41.38005
635.5029	45.42432
635.6595	41.13207
635.8162	39.64672
635.9728	39.11061
636.1295	41.52654
636.2861	41.96199
636.4427	39.66252
636.5992	40.32751
636.7559	41.22079
636.9124	35.87397
637.069	32.6806
637.2256	37.34778
637.3821	44.01875
637.5387	36.42627
637.6953	40.12753
637.8518	45.56751
638.0084	42.63562
638.1649	43.89288
638.3214	44.26921
638.4779	42.98611
638.6344	46.76402
638.7909	43.20023
638.9474	38.00823
639.1038	40.34947
639.2603	41.72997
639.4167	39.77579
639.5732	39.77333
639.7297	36.63913
639.8861	37.85915
640.0425	36.08962
640.199	43.05648
640.3553	40.76679
640.5118	43.61364
640.6682	35.8492
640.8245	36.43428
640.981	40.03825
641.1373	41.10313
641.2936	42.21336
641.45	41.23591
641.6064	37.7997
641.7627	38.07615
641.9191	41.9663
642.0754	42.23118
642.2317	40.61088
642.388	39.55238
642.5443	35.13395
642.7006	39.33865
642.8569	40.50737
643.0131	34.9752
643.1694	39.58582
643.3257	34.85295
643.4819	38.01463
643.6382	38.77411
643.7944	36.4655
643.9506	33.53942
644.1069	40.72146
644.2631	37.34356
644.4193	37.3357
644.5754	41.31768
644.7316	38.79772
644.8878	41.36048
645.044	41.89381
645.2002	39.77482
645.3563	41.60868
645.5125	36.68338
645.6686	37.88869
645.8248	37.80559
645.9809	39.43967
646.137	34.68226
646.2931	36.52844
646.4492	38.62464
646.6053	34.23392
646.7614	35.36004
646.9174	36.10684
647.0735	34.08799
647.2296	40.68157
647.3856	35.37902
647.5417	33.78077
647.6977	30.68252
647.8537	35.62405
648.0098	37.68674
648.1658	39.3392
648.3218	33.33315
648.4777	31.97084
648.6337	32.70033
648.7897	36.55221
648.9457	32.01004
649.1016	34.87096
649.2576	36.71048
649.4135	32.14361
649.5695	28.89012
649.7254	35.69876
649.8813	38.8777
650.0372	37.86264
650.1932	40.62289
650.3491	33.10229
650.5049	36.46284
650.6608	33.68927
650.8167	37.56477
650.9725	38.35111
651.1284	38.42682
651.2842	34.84661
651.4401	34.45408
651.5959	33.30066
651.7518	35.78519
651.9076	33.05397
652.0634	37.08317
652.2192	38.301
652.3749	37.4409
652.5308	32.35972
652.6865	36.92035
652.8423	32.71947
652.998	33.95257
653.1538	32.05999
653.3096	35.39297
653.4653	33.49044
653.621	38.37074
653.7767	35.88774
653.9324	31.92505
654.0881	32.27928
654.2438	37.44039
654.3995	34.60151
654.5552	33.06867
654.7109	36.02856
654.8665	35.15379
655.0222	32.42823
655.1778	35.74931
655.3334	33.46988
655.4891	35.84513
655.6447	33.02864
655.8003	35.18328
655.9559	30.80188
656.1115	32.08018
656.2671	36.70474
656.4227	31.30343
656.5782	27.39922
656.7338	33.31712
656.8893	36.82668
657.0449	37.93016
657.2004	33.35384
657.356	28.39383
657.5115	38.36227
657.667	37.1211
657.8225	36.01936
657.978	33.75139
658.1335	34.03822
658.289	32.08784
658.4445	34.02534
658.5999	34.77514
658.7554	31.05008
658.9108	34.53234
659.0663	36.24855
659.2217	33.89734
659.3771	30.2453
659.5325	28.74126
659.6879	30.82318
659.8433	33.61695
659.9987	35.34227
660.1541	29.96431
660.3095	32.71867
660.4648	34.17136
660.6202	34.54749
660.7756	32.08755
660.9309	30.41156
661.0862	31.31557
661.2416	37.80384
661.3969	32.50756
661.5522	30.89159
661.7075	30.93049
661.8628	30.85789
662.0181	29.24115
662.1733	32.43864
662.3286	27.77484
662.4839	28.88119
662.6391	34.88494
662.7944	33.9991
662.9496	26.1564
663.1048	34.73307
663.26	30.17699
663.4152	36.29502
663.5704	31.92494
663.7256	31.28143
663.8808	32.22078
664.036	29.5178
664.1912	25.7071
664.3463	31.98946
664.5015	30.90037
664.6566	29.82212
664.8118	32.17082
664.9669	29.45432
665.122	27.06759
665.2771	31.92756
665.4322	29.83684
665.5873	29.84765
665.7424	30.98675
665.8975	36.09412
666.0526	33.36755
666.2076	29.7172
666.3627	36.5591
666.5177	32.77739
666.6727	29.29034
666.8278	30.8458
666.9828	29.64758
667.1378	31.69643
667.2928	33.54499
667.4478	31.77576
667.6028	27.24144
667.7578	29.68434
667.9127	29.00076
668.0677	29.78801
668.2226	25.66704
668.3776	30.52754
668.5325	30.46126
668.6874	24.5773
668.8423	35.14595
668.9973	31.80387
669.1522	33.56419
669.3071	29.0432
669.4619	27.13387
669.6168	30.79571
669.7717	27.81525
669.9265	29.85591
670.0814	34.21899
670.2362	26.35167
670.3911	21.73371
670.5459	28.21273
670.7007	32.25803
670.8555	30.00261
671.0103	32.10107
671.1651	30.80344
671.3199	26.07752
671.4747	24.91803
671.6295	29.44283
671.7842	29.01977
671.939	31.20715
672.0937	28.0366
672.2484	25.73948
672.4031	30.21259
672.5579	29.71594
672.7126	33.04676
672.8673	27.65549
673.022	28.23936
673.1767	24.96432
673.3314	26.1584
673.486	31.28735
673.6407	27.05697
673.7953	26.80364
673.95	31.2682
674.1046	31.60059
674.2592	32.04445
674.4138	29.97654
674.5684	31.57636
674.723	33.32858
674.8776	28.87279
675.0322	24.67087
675.1868	27.92716
675.3414	28.68776
675.4959	29.63134
675.6505	32.95591
675.805	36.98315
675.9595	31.41368
676.1141	30.12662
676.2686	22.11652
676.4231	25.55346
676.5776	26.99712
676.7321	29.12185
676.8866	31.998
677.041	30.93928
677.1955	32.28784
677.35	28.30396
677.5044	28.81958
677.6589	30.78183
677.8133	32.98298
677.9677	33.76022
678.1221	31.33839
678.2766	32.68774
678.4309	32.32347
678.5853	33.13939
678.7397	26.83923
678.8941	27.9774
679.0485	27.56312
679.2028	30.62469
679.3571	25.80621
679.5115	31.48062
679.6658	30.37983
679.8201	26.90634
679.9744	31.41585
680.1288	30.96215
680.2831	30.76188
680.4373	28.50824
680.5916	29.61295
680.7459	23.92824
680.9001	25.76903
681.0544	26.25586
681.2087	27.1127
681.3629	30.61012
681.5171	30.61087
681.6713	28.86122
681.8256	25.6918
681.9797	29.97699
682.134	24.48863
682.2881	28.29401
682.4423	33.46598
682.5965	30.01229
682.7507	28.66142
682.9048	31.7362
683.059	26.69123
683.2131	32.63634
683.3672	32.37957
683.5213	28.51204
683.6754	30.05438
683.8295	26.70809
683.9836	28.8588
684.1377	31.72453
684.2918	32.58057
684.4459	28.55167
684.5999	29.49569
684.754	30.64652
684.908	29.59106
685.062	27.66302
685.2161	32.99355
685.3701	25.18418
685.5241	28.36082
685.6781	28.02116
685.8321	23.4208
685.9861	27.3908
686.14	29.29682
686.294	28.06082
686.4479	28.93822
686.6019	26.43291
686.7559	20.57212
686.9098	30.70798
687.0637	29.59975
687.2176	25.48173
687.3715	26.707
687.5254	26.40051
687.6793	25.71705
687.8332	31.25632
687.9871	28.87784
688.1409	22.46031
688.2947	25.98236
688.4486	24.07953
688.6024	26.54091
688.7563	31.18605
688.9101	27.4148
689.0639	29.38895
689.2177	23.23111
689.3715	22.81149
689.5253	24.98501
689.6791	27.45052
689.8328	30.71768
689.9866	33.36039
690.1403	31.73709
690.2941	26.50397
690.4478	27.63144
690.6015	23.00509
690.7552	28.5046
690.9089	29.93109
691.0626	31.70404
691.2164	28.06045
691.37	28.55949
691.5237	30.75144
691.6774	30.37098
691.831	31.94482
691.9847	29.09793
692.1383	25.98479
692.2919	31.76914
692.4456	30.66526
692.5992	29.04494
692.7527	32.80403
692.9064	27.88493
693.0599	26.60378
693.2136	31.82745
693.3671	31.19235
693.5207	32.6407
693.6742	28.19538
693.8278	30.52738
693.9813	26.16673
694.1348	30.34073
694.2883	28.94829
694.4418	27.86255
694.5953	31.50363
694.7488	33.66466
694.9023	32.4789
695.0558	27.73035
695.2093	31.66886
695.3627	33.74303
695.5162	36.05846
695.6696	33.73986
695.8231	31.94984
695.9764	34.72779
696.1299	36.90054
696.2833	35.80936
696.4367	31.84282
696.5901	31.73019
696.7435	36.12946
696.8968	33.72492
697.0502	30.58652
697.2036	34.04145
697.3569	36.35916
697.5102	34.83353
697.6635	32.20226
697.8168	35.81875
697.9702	35.38668
698.1235	35.32537
698.2768	33.5284
698.4301	35.62745
698.5833	35.93547
698.7366	36.41958
698.8898	32.75554
699.0431	34.73585
699.1964	33.66886
699.3495	33.68664
699.5028	32.68705
699.656	34.91537
699.8092	33.50979
699.9624	32.36889
700.1156	34.76563
700.2688	34.32885
700.4219	37.59113
700.5751	30.53706
700.7283	34.00769
700.8814	35.99606
701.0345	35.04205
701.1877	35.66027
701.3408	36.72279
701.4939	33.81813
701.647	34.45753
701.8001	33.85263
701.9532	38.39415
702.1063	37.85202
702.2593	36.45775
702.4124	38.61864
702.5654	34.60409
702.7184	35.2187
702.8715	38.98385
703.0245	40.42259
703.1776	37.68287
703.3305	38.81
703.4835	36.92772
703.6365	38.94291
703.7895	38.05134
703.9424	41.28539
704.0954	40.19521
704.2484	41.96499
704.4013	37.71507
704.5543	36.97708
704.7072	40.65988
704.8601	40.81787
705.013	47.87965
705.1659	39.52443
705.3188	42.14859
705.4717	42.89616
705.6246	39.46732
705.7774	40.86723
705.9303	39.63544
706.0831	43.87666
706.236	38.77561
706.3888	42.19131
706.5416	42.38389
706.6944	44.81721
706.8472	42.77178
707	44.92871
707.1528	45.5813
707.3056	41.50368
707.4583	45.99505
707.6111	51.54386
707.7639	45.40234
707.9166	41.90474
708.0693	46.73085
708.222	44.20823
708.3748	42.65912
708.5275	41.38182
708.6802	46.02007
708.8328	50.16487
708.9855	43.85606
709.1382	45.63292
709.2909	45.94332
709.4435	45.53305
709.5962	44.1624
709.7488	51.08664
709.9014	47.63815
710.054	49.32046
710.2067	49.63359
710.3593	46.52679
710.5118	48.35704
710.6644	45.60957
710.817	47.29358
710.9695	48.05123
711.1221	51.74652
711.2747	51.01377
711.4272	46.27001
711.5797	49.10527
711.7322	51.01133
711.8848	48.97209
712.0373	50.66061
712.1898	48.25601
712.3422	46.42009
712.4948	49.05929
712.6472	52.13246
712.7996	51.82756
712.9521	47.97763
713.1046	46.721
713.257	52.24483
713.4094	49.43855
713.5618	52.37051
713.7142	55.03711
713.8666	54.74544
714.019	57.88886
714.1714	53.12329
714.3237	54.43548
714.4761	56.42997
714.6285	58.52584
714.7808	61.8105
714.9331	57.15731
715.0854	53.91388
715.2378	48.77504
715.3901	46.0495
715.5424	57.08696
715.6947	57.43013
715.8469	54.64293
715.9992	50.9053
716.1515	51.32129
716.3037	53.83579
716.456	54.14639
716.6082	49.02558
716.7604	46.23657
716.9127	52.69835
717.0649	44.36588
717.2171	48.49612
717.3693	45.75299
717.5214	49.0348
717.6736	49.24709
717.8258	47.14646
717.978	52.68044
718.1301	48.83813
718.2822	53.06864
718.4344	50.28922
718.5865	49.65258
718.7386	45.92184
718.8907	47.05007
719.0428	50.35377
719.1949	49.85604
719.3469	49.09691
719.499	47.2285
719.6511	53.42571
719.8031	48.05602
719.9551	52.89038
720.1072	48.56646
720.2592	44.36833
720.4112	46.27178
720.5632	52.3017
720.7152	51.24191
720.8672	53.83967
721.0192	52.71348
721.1711	60.19241
721.3231	60.75802
721.475	64.53316
721.627	58.92488
721.7789	58.67318
721.9308	66.82871
722.0828	63.89844
722.2347	60.95118
722.3866	69.05581
722.5385	61.91196
722.6903	65.01456
722.8422	68.9285
722.9941	61.03622
723.1459	59.10894
723.2977	58.49244
723.4496	59.74167
723.6014	56.32533
723.7532	57.89304
723.905	63.13289
724.0568	64.28812
724.2086	54.86751
724.3604	50.94474
724.5121	56.21099
724.6639	57.31716
724.8157	57.7238
724.9674	63.77011
725.1191	63.30634
725.2709	61.26463
725.4226	58.40656
725.5743	57.98354
725.726	61.84521
725.8777	61.96264
726.0294	61.50569
726.181	61.89817
726.3327	64.89483
726.4844	62.93119
726.636	62.42217
726.7877	63.07478
726.9393	70.24561
727.0909	71.93581
727.2425	70.61577
727.3941	67.64424
727.5457	65.63239
727.6973	64.71571
727.8488	67.06913
728.0004	66.6502
728.1519	68.14045
728.3035	68.31544
728.455	70.99888
728.6066	71.38842
728.7581	70.33471
728.9095	64.71611
729.0611	60.91385
729.2126	65.13271
729.364	63.84562
729.5155	73.13226
729.667	73.86385
729.8184	76.01456
729.9698	75.26438
730.1213	71.99973
730.2727	63.35865
730.4241	70.31161
730.5756	69.15186
730.7269	77.80553
730.8784	79.49004
731.0297	73.64965
731.1811	71.0502
731.3325	73.93822
731.4838	75.91425
731.6351	74.2011
731.7865	73.9683
731.9378	75.3605
732.0891	85.242
732.2404	83.91991
732.3917	81.96357
732.543	81.08449
732.6943	81.9143
732.8456	85.71896
732.9968	83.98474
733.1481	86.1176
733.2993	82.61137
733.4506	85.52654
733.6018	91.2047
733.753	88.79515
733.9042	93.79082
734.0554	88.67575
734.2066	93.43246
734.3578	91.19162
734.509	84.93796
734.6602	89.69981
734.8113	86.43505
734.9624	90.14661
735.1136	85.19852
735.2647	80.33205
735.4158	87.04861
735.5669	94.53778
735.718	90.21684
735.8691	92.8456
736.0201	88.56319
736.1713	90.73944
736.3223	95.57458
736.4733	96.14769
736.6244	90.44309
736.7755	90.95628
736.9265	98.63612
737.0775	96.34578
737.2285	101.1767
737.3795	100.7085
737.5305	97.1307
737.6815	96.75496
737.8324	95.25256
737.9834	93.36473
738.1343	100.6176
738.2853	99.70002
738.4362	97.73814
738.5871	97.38877
738.738	95.51072
738.8889	93.84478
739.0399	96.16978
739.1907	101.2314
739.3416	98.60699
739.4925	99.26024
739.6433	98.51649
739.7942	99.36026
739.945	97.5564
740.0958	103.6441
740.2467	102.0881
740.3975	100.7493
740.5483	100.849
740.6991	103.214
740.8499	99.92335
741.0007	101.4158
741.1514	101.7097
741.3022	96.0898
741.4529	99.71687
741.6036	101.6445
741.7544	96.59982
741.9051	100.6665
742.0558	100.7314
742.2065	100.2792
742.3572	103.7552
742.5079	100.4901
742.6586	103.5322
742.8093	100.7294
742.9599	103.1812
743.1105	104.6409
743.2612	107.0811
743.4118	105.188
743.5624	108.9193
743.7131	107.1065
743.8636	105.1226
744.0142	107.5207
744.1648	113.398
744.3154	109.0407
744.4659	109.8161
744.6165	109.2522
744.767	109.0199
744.9176	108.3559
745.0681	107.4526
745.2186	115.0352
745.3691	110.5292
745.5197	108.0105
745.6702	110.3471
745.8206	111.6254
745.9711	111.4542
746.1215	109.4267
746.272	102.6375
746.4224	108.4256
746.5729	112.2673
746.7233	107.2687
746.8737	109.8565
747.0241	110.7843
747.1745	105.4664
747.3249	110.7927
747.4753	112.9165
747.6257	109.4172
747.776	110.5878
747.9264	108.8342
748.0767	108.5169
748.2271	105.2979
748.3774	110.23
748.5276	110.8654
748.678	108.1398
748.8282	110.2283
748.9786	109.0517
749.1288	108.5758
749.2791	105.0051
749.4294	106.0809
749.5796	109.243
749.7299	108.6773
749.8801	103.4612
750.0303	111.3355
750.1805	108.5897
750.3307	109.726
750.4809	115.5617
750.6311	107.521
750.7813	106.8035
750.9314	107.82
751.0816	102.976
751.2318	107.9919
751.3818	103.6836
751.532	101.5904
751.6821	111.5005
751.8322	111.2678
751.9823	107.7824
752.1324	104.0424
752.2825	104.4078
752.4326	105.9182
752.5826	104.9879
752.7327	107.2682
752.8827	110.1277
753.0327	105.6556
753.1827	102.7203
753.3328	108.4379
753.4828	111.8117
753.6328	112.418
753.7828	106.5665
753.9327	107.7549
754.0827	107
754.2327	101.7288
754.3826	103.213
754.5325	103.7198
754.6825	103.627
754.8324	106.628
754.9823	115.8164
755.1322	110.4397
755.2821	104.6959
755.432	106.1188
755.5818	100.8464
755.7318	100.507
755.8816	96.86841
756.0314	100.6662
756.1813	104.4758
756.3311	102.6359
756.4809	102.2126
756.6307	107.8969
756.7805	108.3927
756.9303	99.53796
757.0801	98.59101
757.2299	101.8833
757.3796	100.6231
757.5294	98.20284
757.6791	103.2819
757.8289	108.7222
757.9786	100.6599
758.1283	102.013
758.278	102.435
758.4277	102.2346
758.5773	98.94356
758.7271	96.03413
758.8767	96.16029
759.0264	99.4588
759.176	95.40783
759.3256	88.65403
759.4753	76.17728
759.6249	58.97429
759.7745	44.95618
759.9241	45.14099
760.0737	35.09423
760.2233	29.0361
760.3729	28.4031
760.5224	23.77877
760.6719	21.46106
760.8215	26.90133
760.971	31.92199
761.1205	34.13231
761.2701	35.71849
761.4196	41.3672
761.5691	47.29445
761.7186	57.20893
761.868	68.64246
762.0175	70.0971
762.167	64.76718
762.3164	58.33775
762.4659	54.71895
762.6153	46.2205
762.7647	44.02887
762.9141	41.13211
763.0635	41.7223
763.2129	40.58232
763.3623	46.68381
763.5117	45.71817
763.661	43.99467
763.8104	49.31034
763.9597	51.70586
764.1091	52.69917
764.2584	54.94912
764.4077	53.19702
764.557	55.7979
764.7063	58.49271
764.8556	66.51926
765.0049	62.22506
765.1541	63.87364
765.3034	62.74009
765.4526	63.23513
765.6019	63.62394
765.7511	66.05663
765.9003	66.27728
766.0496	69.90525
766.1987	71.60864
766.348	72.68731
766.4971	73.75131
766.6463	78.74786
766.7955	83.59805
766.9446	77.4636
767.0938	77.89378
767.2429	81.39701
767.392	80.60981
767.5411	83.10999
767.6902	84.58913
767.8394	83.8731
767.9884	74.81738
768.1375	76.39579
768.2866	81.73479
768.4356	80.50989
768.5847	86.04559
768.7337	81.62107
768.8828	83.96022
769.0317	83.99248
769.1808	83.01021
769.3298	83.20712
769.4788	87.36143
769.6277	87.37622
769.7767	83.6256
769.9257	80.69626
770.0746	85.77255
770.2236	84.90054
770.3725	87.06691
770.5214	81.83941
770.6703	90.95199
770.8193	84.79437
770.9681	82.0313
771.1171	82.32065
771.2659	86.73981
771.4148	87.54656
771.5637	86.24494
771.7125	87.32056
771.8613	89.6124
772.0101	88.94099
772.159	86.49535
772.3078	88.18974
772.4566	84.75404
772.6054	87.67652
772.7542	82.14718
772.903	87.1488
773.0517	84.2064
773.2004	81.65865
773.3492	79.93474
773.4979	75.97464
773.6467	82.40543
773.7953	84.26029
773.944	83.76584
774.0928	84.18536
774.2415	81.80807
774.3901	81.97113
774.5388	81.46765
774.6874	76.96208
774.8361	69.92076
774.9847	74.72636
775.1334	80.29932
775.282	79.10737
775.4305	75.16599
775.5792	85.50484
775.7277	82.30129
775.8763	82.97881
776.0249	88.66151
776.1735	86.18205
776.322	81.70878
776.4705	84.07206
776.6191	84.93385
776.7676	80.19003
776.9161	83.10281
777.0646	79.17145
777.2131	78.03683
777.3616	76.77203
777.5101	77.6038
777.6585	77.52586
777.8069	76.16039
777.9554	71.42836
778.1038	76.18204
778.2523	80.26762
778.4007	76.68462
778.5491	71.09758
778.6974	79.50814
778.8459	77.00642
778.9942	78.80788
779.1426	81.68368
779.291	80.92268
779.4393	76.35164
779.5876	78.77955
779.736	80.59756
779.8843	77.00231
780.0326	72.70326
780.1809	73.94977
780.3292	76.8927
780.4775	73.98596
780.6257	76.17953
780.774	78.84028
780.9222	77.19588
781.0704	74.65881
781.2187	75.02813
781.3669	75.53572
781.5151	72.18362
781.6633	74.83082
781.8115	79.32008
781.9597	80.68871
782.1078	78.41136
782.256	75.9443
782.4042	74.82817
782.5523	74.35014
782.7004	77.55247
782.8486	73.18625
782.9967	71.99648
783.1448	77.09065
783.2929	72.9815
783.441	72.11331
783.5891	69.30501
783.7371	72.55033
783.8851	72.32168
784.0332	74.68818
784.1812	75.63078
784.3293	73.49445
784.4773	72.43441
784.6253	74.09969
784.7733	73.95332
784.9213	77.55688
785.0692	75.92877
785.2172	73.35582
785.3652	74.17455
785.5131	75.1266
785.6611	74.99105
785.809	68.8186
785.9569	72.04577
786.1048	70.15018
786.2527	73.00443
786.4006	74.4824
786.5485	69.87247
786.6964	70.71336
786.8442	72.26982
786.9921	67.90686
787.1399	66.62691
787.2877	73.21442
787.4355	69.99543
787.5833	68.51081
787.7311	68.20061
787.8789	68.55453
788.0267	63.9153
788.1745	64.62381
788.3223	67.5511
788.47	63.59036
788.6177	63.39565
788.7654	70.12486
788.9132	68.56853
789.0609	67.20374
789.2086	66.96823
789.3563	69.11031
789.504	66.29115
789.6517	64.79025
789.7993	67.63339
789.947	62.12099
790.0946	63.26241
790.2422	63.41372
790.3898	69.46454
790.5375	66.13108
790.6851	66.88924
790.8326	64.14935
790.9802	66.79882
791.1278	63.4912
791.2754	64.90693
791.423	68.65882
791.5705	66.60186
791.718	61.95531
791.8655	64.92113
792.0131	65.37098
792.1606	67.1869
792.308	66.88288
792.4556	64.05408
792.603	66.1175
792.7505	66.32445
792.8979	62.65979
793.0454	65.22046
793.1928	62.2954
793.3403	64.72588
793.4877	67.06709
793.6351	66.84563
793.7825	59.82758
793.9299	61.38448
794.0772	68.80187
794.2246	71.85202
794.3719	59.86319
794.5193	65.60847
794.6666	64.74336
794.814	64.45927
794.9613	61.22202
795.1086	69.72944
795.2559	66.38123
795.4032	64.69901
795.5505	61.13419
795.6978	64.04224
795.845	63.58517
795.9922	61.74573
796.1395	54.29526
796.2867	61.83966
796.4339	58.72572
796.5811	58.532
796.7283	61.10154
796.8755	56.39433
797.0227	56.76799
797.1699	61.78455
797.317	63.98988
797.4642	65.49267
797.6113	62.77934
797.7584	62.29355
797.9056	64.8287
798.0527	64.24937
798.1998	63.33436
798.3469	55.77247
798.494	57.57477
798.641	57.9985
798.7881	59.03724
798.9351	57.7514
799.0822	57.86534
799.2292	60.49206
799.3762	59.63556
799.5232	66.42133
799.6702	61.77365
799.8172	61.21093
799.9642	56.16702
800.1111	60.7634
800.2581	60.38225
800.4051	57.89017
800.552	57.83781
800.6989	56.4199
800.8458	60.98724
800.9927	60.50046
801.1396	58.41293
801.2866	58.56947
801.4334	57.26633
801.5803	56.1237
801.7272	59.7305
801.874	58.03984
802.0209	59.85847
802.1677	58.89572
802.3145	57.48617
802.4613	54.9068
802.6081	51.96935
802.7549	52.38538
802.9017	55.46289
803.0485	58.48315
803.1952	60.79068
803.342	54.17463
803.4887	53.72657
803.6354	56.16336
803.7822	55.71944
803.9289	57.01133
804.0756	55.30292
804.2223	58.59212
804.369	54.87548
804.5156	56.37248
804.6623	54.56499
804.8089	52.35692
804.9556	53.33318
805.1022	54.95882
805.2488	50.23575
805.3954	54.39145
805.542	49.53809
805.6886	54.54839
805.8352	53.25888
805.9818	56.0749
806.1283	53.44233
806.2749	55.13034
806.4214	55.68592
806.5679	56.65035
806.7145	51.41154
806.861	48.69228
807.0074	52.414
807.154	55.01377
807.3004	57.5877
807.4469	56.37008
807.5934	51.64794
807.7398	56.755
807.8862	49.96312
808.0327	49.79945
808.1791	55.25857
808.3255	50.34422
808.4719	48.71651
808.6183	51.7718
808.7647	51.07686
808.9111	52.7225
809.0574	56.69423
809.2037	54.82529
809.3501	51.42316
809.4965	51.0251
809.6428	49.7975
809.7891	48.83417
809.9354	46.87862
810.0817	51.25383
810.2279	48.82915
810.3742	54.02172
810.5204	51.79332
810.6667	42.04088
810.8129	43.48532
810.9592	48.89272
811.1054	52.01957
811.2516	42.60868
811.3978	43.49873
811.5439	48.54639
811.6901	47.54436
811.8363	48.77394
811.9825	47.08843
812.1286	48.55798
812.2748	44.28502
812.4209	48.84787
812.567	47.99036
812.7131	48.42046
812.8592	46.83878
813.0053	42.14688
813.1514	43.55039
813.2974	42.12638
813.4435	39.7421
813.5895	39.68699
813.7356	43.90619
813.8816	45.84514
814.0276	43.5635
814.1736	40.03729
814.3196	37.2989
814.4656	40.72559
814.6116	40.82472
814.7576	37.8101
814.9035	36.23143
815.0494	33.79014
815.1954	37.06634
815.3413	36.86544
815.4872	36.31377
815.6331	37.24891
815.779	39.82647
815.9249	43.16806
816.0707	36.19771
816.2166	36.01623
816.3625	30.87433
816.5083	30.24664
816.6542	37.84155
816.8	37.33546
816.9458	31.78035
817.0916	35.83683
817.2374	37.75568
817.3832	43.3284
817.5289	39.46495
817.6747	37.97193
817.8204	33.05964
817.9662	31.23621
818.1119	33.99203
818.2576	33.75126
818.4034	36.70126
818.5491	42.11882
818.6948	39.57319
818.8405	33.9122
818.9861	34.70594
819.1318	33.17797
819.2774	36.98612
819.423	41.17086
819.5687	39.46444
819.7143	34.13046
819.8599	32.80979
820.0055	31.80433
820.1511	34.49446
820.2967	35.41484
820.4422	39.90218
820.5878	40.61328
820.7333	39.31358
820.8788	37.67068
821.0244	40.22738
821.1699	37.47317
821.3154	31.50717
821.4609	35.83991
821.6064	39.91491
821.7519	42.7145
821.8973	42.43973
822.0428	37.32086
822.1882	33.79211
822.3337	37.02582
822.4791	37.36517
822.6245	30.82455
822.7699	24.35062
822.9153	25.19972
823.0607	25.83655
823.2061	25.36011
823.3514	30.401
823.4968	31.69981
823.6422	33.30934
823.7875	37.30318
823.9328	39.55793
824.0781	34.45844
824.2234	35.27162
824.3687	35.26227
824.514	38.47242
824.6592	33.69048
824.8045	36.37978
824.9498	38.34771
825.095	40.93909
825.2402	43.70895
825.3854	39.89275
825.5306	34.25984
825.6758	32.72435
825.821	38.2612
825.9662	33.38319
826.1114	34.74749
826.2565	36.51894
826.4017	32.84341
826.5468	34.18775
826.692	38.43198
826.837	37.23784
826.9822	34.6074
827.1273	34.85437
827.2723	35.56531
827.4174	32.81883
827.5625	34.174
827.7075	36.18095
827.8526	34.20858
827.9976	33.55202
828.1426	31.49242
828.2877	33.40465
828.4327	29.02932
828.5776	34.89783
828.7227	38.88999
828.8676	34.03271
829.0126	34.99149
829.1575	35.82891
829.3024	33.13554
829.4474	27.0498
829.5923	31.47645
829.7372	33.49317
829.8821	33.38652
830.027	33.52417
830.1719	33.21178
830.3168	32.50248
830.4616	33.90185
830.6064	35.02515
830.7513	32.25529
830.8961	34.59348
831.041	35.76632
831.1857	35.86319
831.3306	39.10415
831.4753	33.64096
831.6201	38.06721
831.7649	32.87704
831.9096	30.05268
832.0544	30.4444
832.1991	30.33689
832.3438	30.90329
832.4885	31.05095
832.6332	35.3697
832.778	32.36105
832.9226	28.14473
833.0673	33.63238
833.2119	33.70489
833.3566	31.14733
833.5012	32.52179
833.6459	31.91904
833.7905	30.55598
833.9351	30.35975
834.0797	32.86156
834.2243	34.91916
834.3688	33.47829
834.5134	31.21942
834.658	34.13012
834.8026	37.36214
834.9471	37.2631
835.0916	36.78008
835.2361	33.42889
835.3806	35.84208
835.5251	34.99254
835.6696	33.66292
835.8141	33.38511
835.9586	35.00479
836.103	38.79455
836.2474	33.59256
836.3918	32.12769
836.5363	33.89427
836.6807	35.80932
836.8251	36.02486
836.9695	33.9105
837.1138	31.09316
837.2582	34.74117
837.4026	38.83053
837.5469	33.99587
837.6913	29.27655
837.8356	31.41528
837.9799	33.92963
838.1242	32.69657
838.2686	32.24477
838.4128	27.46168
838.5571	32.69229
838.7014	32.11811
838.8456	35.92949
838.9899	30.88023
839.1341	33.71444
839.2783	35.34295
839.4225	32.8466
839.5667	29.26891
839.7109	31.48044
839.8551	31.76113
839.9993	33.39729
840.1434	32.04901
840.2876	32.72065
840.4317	31.76603
840.5759	33.66328
840.72	30.59388
840.8641	30.33176
841.0082	29.55177
841.1523	33.24661
841.2963	32.39902
841.4404	27.83148
841.5845	30.88152
841.7285	30.21526
841.8726	27.18861
842.0165	32.01798
842.1606	32.47937
842.3046	36.02258
842.4485	37.73745
842.5925	34.59396
842.7365	32.0684
842.8805	28.43269
843.0244	28.20259
843.1684	32.51167
843.3123	38.60863
843.4562	31.12315
843.6002	29.61713
843.744	26.69493
843.8879	24.35986
844.0318	30.21703
844.1757	31.40193
844.3195	32.25711
844.4634	34.0691
844.6072	30.21526
844.751	29.52434
844.8948	31.96861
845.0386	36.64917
845.1824	25.93319
845.3262	34.24648
845.47	34.033
845.6138	28.92493
845.7575	27.98973
845.9012	31.11749
846.045	28.66576
846.1887	29.89901
846.3324	34.33001
846.4761	27.78106
846.6198	32.14613
846.7635	32.32463
846.9071	31.20267
847.0508	35.42685
847.1944	34.58849
847.3381	32.71869
847.4817	30.22685
847.6253	32.72897
847.7689	34.2542
847.9125	34.49567
848.0561	29.97626
848.1996	28.8245
848.3432	27.65093
848.4868	31.91079
848.6303	28.26697
848.7738	26.85713
848.9174	27.62962
849.0609	29.40639
849.2043	32.23989
849.3478	31.3452
849.4913	25.44827
849.6348	26.34716
849.7782	32.03774
849.9217	26.63018
850.0651	28.94377
850.2086	27.62709
850.3519	28.76258
850.4954	31.26054
850.6387	31.03786
850.7821	30.5026
850.9255	27.80209
851.0688	29.0259
851.2122	26.87935
851.3555	26.93985
851.4988	27.09303
851.6422	28.58852
851.7855	33.30917
851.9288	31.86477
852.0721	29.61604
852.2153	28.6398
852.3586	27.8063
852.5018	25.44936
852.6451	29.70004
852.7883	30.85495
852.9315	31.28076
853.0748	32.4403
853.218	28.3366
853.3611	26.47161
853.5043	33.23395
853.6475	29.45152
853.7906	27.67051
853.9338	24.42772
854.0769	25.79862
854.22	16.82721
854.3632	19.8077
854.5063	22.72793
854.6494	24.57174
854.7924	23.35465
854.9355	25.90076
855.0786	27.32032
855.2216	30.88026
855.3647	27.88775
855.5077	27.61716
855.6507	26.75056
855.7937	25.09902
855.9367	29.22895
856.0797	25.29718
856.2227	24.5329
856.3657	31.41244
856.5086	31.04297
856.6516	28.45826
856.7945	25.25905
856.9374	27.83467
857.0803	26.80033
857.2232	24.58162
857.3661	22.21536
857.509	23.0783
857.6519	29.46336
857.7947	29.63126
857.9376	28.30082
858.0804	24.39919
858.2232	28.07117
858.366	26.7549
858.5089	25.95553
858.6516	26.62551
858.7944	25.45407
858.9372	27.60166
859.08	27.75022
859.2227	23.58881
859.3654	27.12858
859.5082	32.34967
859.6509	24.02846
859.7936	30.33405
859.9363	30.5295
860.079	21.60184
860.2217	26.53229
860.3643	24.00136
860.507	26.79278
860.6496	26.41906
860.7922	25.20732
860.9349	26.08504
861.0775	24.61791
861.2201	24.8509
861.3627	23.09879
861.5052	24.77378
861.6478	27.51551
861.7904	27.24941
861.9329	27.27113
862.0755	25.01605
862.218	25.24707
862.3605	23.33996
862.503	23.34411
862.6455	25.56386
862.788	27.81618
862.9305	27.53324
863.0729	23.74965
863.2154	24.61916
863.3578	24.48542
863.5002	25.96071
863.6426	27.38249
863.7851	25.76898
863.9275	25.78689
864.0698	23.73348
864.2122	24.92174
864.3546	25.19414
864.4969	28.15925
864.6393	28.94365
864.7816	23.79666
864.924	24.00537
865.0662	25.79196
865.2086	28.69324
865.3508	23.70779
865.4931	26.73296
865.6354	25.35851
865.7776	24.77887
865.9199	21.1803
866.0621	18.13183
866.2043	16.7565
866.3466	16.04932
866.4888	19.98521
866.6309	23.48109
866.7731	23.51527
866.9153	26.37688
867.0574	23.15245
867.1996	23.41026
867.3417	21.82213
867.4839	23.28844
867.626	21.4846
867.7681	21.38908
867.9102	21.9105
868.0522	25.65173
868.1943	26.31071
868.3364	21.58168
868.4785	22.42869
868.6205	25.82273
868.7625	19.70659
868.9045	24.41342
869.0465	20.71847
869.1885	19.66454
869.3305	20.90014
869.4725	20.43733
869.6144	26.12575
869.7564	27.45098
869.8983	23.69425
870.0403	24.13997
870.1822	22.03287
870.3241	22.10333
870.466	22.52131
870.6079	22.09442
870.7498	22.83524
870.8916	22.75397
871.0335	23.86374
871.1754	25.73758
871.3171	25.08677
871.459	20.83062
871.6008	21.42342
871.7426	19.09973
871.8844	24.00622
872.0262	23.15561
872.1679	18.86872
872.3097	22.7967
872.4514	25.18861
872.5931	20.69431
872.7349	19.75056
872.8766	18.23765
873.0183	20.25513
873.16	22.94935
873.3017	21.9575
873.4434	20.96731
873.585	24.26317
873.7266	23.15183
873.8683	25.36621
874.0099	20.30018
874.1516	17.44139
874.2932	21.29016
874.4348	25.46768
874.5763	22.70506
874.7179	26.40834
874.8594	21.24396
875.001	22.21072
875.1425	22.31698
875.2841	22.20407
875.4256	23.36046
875.5671	19.65624
875.7086	18.9068
875.85	18.29253
875.9915	20.25257
876.133	16.93759
876.2744	19.91261
876.4159	15.67473
876.5573	18.63982
876.6987	20.56568
876.8401	19.99366
876.9815	19.08206
877.1229	20.26558
877.2643	19.77719
877.4056	24.16518
877.547	19.19792
877.6884	16.66276
877.8297	20.07557
877.971	20.0344
878.1123	22.30654
878.2536	20.83051
878.3949	17.89577
878.5362	15.72128
878.6774	19.26211
878.8187	22.35834
878.9599	18.40026
879.1011	17.47117
879.2424	16.50699
879.3836	18.10313
879.5248	17.93091
879.666	22.23156
879.8071	20.76066
879.9483	21.13612
880.0895	22.99005
880.2306	22.99939
880.3718	17.06882
880.5129	22.01183
880.654	19.22864
880.7951	18.54075
880.9362	18.69591
881.0773	22.58165
881.2183	17.01311
881.3594	16.74927
881.5004	15.91813
881.6414	16.77061
881.7825	18.17789
881.9235	15.36811
882.0645	20.04967
882.2054	19.64014
882.3464	17.15071
882.4874	17.69228
882.6284	19.18077
882.7693	18.37342
882.9103	19.56863
883.0512	21.28444
883.1921	16.03209
883.333	18.42712
883.4739	21.37076
883.6147	26.06681
883.7556	17.8494
883.8965	18.28211
884.0374	18.29926
884.1782	14.79561
884.319	18.45728
884.4598	18.02015
884.6006	16.46961
884.7414	19.79192
884.8822	12.99887
885.0229	15.67335
885.1637	17.66145
885.3044	19.8782
885.4452	18.70381
885.5859	21.96773
885.7266	15.3358
885.8673	17.05459
886.008	13.29788
886.1487	11.13527
886.2894	16.37477
886.43	15.40859
886.5707	17.92475
886.7113	17.33806
886.8519	15.58022
886.9926	13.10922
887.1331	15.77883
887.2737	12.27289
887.4143	16.79029
887.5549	21.30169
887.6954	23.60975
887.836	19.97453
887.9765	19.06832
888.1171	18.31274
888.2576	19.19819
888.3981	13.29402
888.5386	18.20007
888.679	16.55027
888.8195	16.63017
888.96	16.66892
889.1004	16.50086
889.2408	21.63134
889.3813	18.08666
889.5217	15.15652
889.6621	14.5447
889.8025	13.1225
889.9429	15.57675
890.0833	19.20525
890.2236	20.64883
890.364	18.85002
890.5043	22.39137
890.6446	14.95652
890.7849	15.96171
890.9252	10.79548
891.0655	14.69915
891.2058	14.84365
891.3461	15.8031
891.4863	17.91987
891.6266	18.82465
891.7668	14.1764
891.907	15.78882
892.0472	17.40707
892.1874	16.46674
892.3276	15.03873
892.4678	17.49471
892.608	15.18827
892.7481	19.54303
892.8883	16.18174
893.0284	14.3327
893.1685	10.13423
893.3087	8.907634
893.4487	17.17984
893.5889	16.61217
893.7289	17.6142
893.869	13.773
894.009	18.26615
894.1491	14.35202
894.2891	17.90712
894.4291	16.86411
894.5692	17.97336
894.7092	15.12188
894.8491	17.46168
894.9891	13.532
895.1291	15.53639
895.269	12.52031
895.409	11.42685
895.549	13.13991
895.6888	12.91794
895.8288	11.62691
895.9687	11.59826
896.1086	14.6972
896.2484	10.39148
896.3883	9.679739
896.5281	8.107792
896.668	11.67236
896.8079	14.42613
896.9476	12.99821
897.0875	9.358369
897.2272	9.180484
897.3671	10.32553
897.5068	16.60189
897.6466	14.88534
897.7864	8.212269
897.9261	11.9562
898.0658	12.64234
898.2056	13.93031
898.3453	12.16366
898.4849	14.79432
898.6246	10.31872
898.7643	10.70931
898.904	9.770398
899.0436	5.020969
899.1833	7.275008
899.3229	11.24771
899.4625	15.51298
899.6021	19.00622
899.7417	13.7434
899.8813	11.56147
900.0209	15.33057
900.1605	10.12991
900.3	11.09165
900.4395	10.19295
900.579	11.17377
900.7186	10.94991
900.8581	8.343135
900.9976	8.624571
901.1371	11.95474
901.2766	16.09413
901.416	14.77205
901.5555	9.140867
901.6949	11.91717
901.8344	11.08524
901.9738	8.41424
902.1132	8.697741
902.2526	14.2677
902.3919	13.03253
902.5313	15.51669
902.6707	10.603
