SPECTRUM DATA FILE
SpectrumCount:	1
PixelCount:	3648
UserName:	ToughBook User
SampleName:	
LightSource:	
Comments:	
DeviceName:	Qwave
DeviceManufacturer:	Broadcom
DeviceSerialNo:	11311

Name:	last spectrum
Date:	2024-05-02T14:50:32.7525205+02:00
ExposureTime:	0.02
TemporalAvg:	1
IntensityUnit:	normalizedCounts
CCDLoadLevel:	0.05456034
Temperature:	32.58951
DiagramColor:	200
ProcessingSteps:	335

Wavelength [nm]	Intensity1
334.421	14.39721
334.5891	16.98413
334.7573	18.19491
334.9254	16.82102
335.0935	19.16657
335.2616	19.11694
335.4297	17.61356
335.5978	17.92433
335.7659	16.5047
335.934	18.95044
336.1021	21.27877
336.2701	15.06086
336.4382	17.53545
336.6063	13.57017
336.7744	16.61202
336.9424	15.70707
337.1105	12.84387
337.2785	17.17956
337.4466	16.62491
337.6146	18.0789
337.7827	23.39391
337.9507	15.74035
338.1187	18.38074
338.2867	17.39691
338.4548	20.82797
338.6228	19.80337
338.7908	19.99614
338.9588	21.20926
339.1268	15.04032
339.2948	18.13086
339.4628	18.21002
339.6308	15.97934
339.7988	21.22359
339.9667	18.87694
340.1347	19.39242
340.3027	15.79575
340.4707	20.56237
340.6386	20.19967
340.8066	19.22852
340.9745	19.51919
341.1425	15.72836
341.3104	16.06605
341.4784	16.39291
341.6463	19.76817
341.8142	21.74722
341.9821	19.01759
342.1501	17.61189
342.318	13.95721
342.4859	19.65335
342.6538	19.99561
342.8217	24.30876
342.9896	23.11668
343.1575	18.73196
343.3254	21.39979
343.4933	24.16362
343.6612	20.83992
343.829	19.56787
343.9969	17.63302
344.1648	19.98834
344.3326	17.04496
344.5005	24.56695
344.6683	26.05717
344.8362	24.48726
345.004	19.6877
345.1719	22.4204
345.3397	17.89184
345.5075	17.33928
345.6754	17.06467
345.8432	17.84718
346.011	17.35279
346.1788	20.90922
346.3466	19.48068
346.5144	24.87368
346.6822	21.70062
346.85	18.52464
347.0178	20.07413
347.1856	21.92985
347.3534	23.38926
347.5211	21.40515
347.6889	17.67123
347.8567	20.64705
348.0244	23.49015
348.1922	18.0742
348.3599	16.72762
348.5277	20.55366
348.6954	14.90616
348.8632	17.99143
349.0309	20.95315
349.1986	16.08198
349.3663	18.04691
349.5341	20.33791
349.7018	20.38543
349.8695	20.54548
350.0372	19.61553
350.2049	20.8485
350.3726	24.17814
350.5403	23.72556
350.7079	22.14267
350.8756	17.14557
351.0433	19.67785
351.211	26.56497
351.3786	19.75846
351.5463	21.48991
351.714	22.98026
351.8816	24.52749
352.0493	23.80437
352.2169	17.19696
352.3846	22.21651
352.5522	24.68727
352.7198	23.71014
352.8875	26.72648
353.0551	19.26953
353.2227	19.82791
353.3903	23.29685
353.5579	21.30058
353.7255	25.15019
353.8931	24.50413
354.0607	22.42901
354.2283	20.6246
354.3958	21.73895
354.5634	27.84152
354.731	22.84445
354.8986	23.63706
355.0661	26.49768
355.2337	25.01567
355.4012	22.90815
355.5688	25.23792
355.7363	20.66787
355.9039	23.11163
356.0714	22.35724
356.239	25.29578
356.4065	21.10619
356.574	19.26849
356.7415	25.04048
356.909	21.93398
357.0765	21.33814
357.244	23.71707
357.4115	18.66381
357.579	19.35539
357.7465	21.59064
357.914	24.26483
358.0815	20.94613
358.249	16.42611
358.4164	18.21803
358.5839	21.51099
358.7513	18.66456
358.9188	20.74342
359.0862	24.86731
359.2537	23.29333
359.4211	23.19886
359.5886	25.498
359.756	28.30022
359.9234	27.74843
360.0909	29.35584
360.2583	24.54947
360.4257	26.31186
360.5931	27.12019
360.7605	22.22826
360.9279	24.34154
361.0953	30.4865
361.2627	27.52104
361.4301	26.15498
361.5974	23.71198
361.7648	25.6498
361.9322	25.75441
362.0995	30.16761
362.2669	27.11946
362.4343	26.66433
362.6016	34.0916
362.769	31.34732
362.9363	27.75977
363.1036	25.86241
363.271	26.65241
363.4383	30.51118
363.6056	25.30703
363.7729	25.23515
363.9402	27.96629
364.1075	30.97545
364.2748	33.10519
364.4421	28.89933
364.6094	25.97993
364.7767	23.2172
364.944	30.25393
365.1113	33.28238
365.2786	30.97321
365.4458	25.86696
365.6131	31.83782
365.7803	30.40049
365.9476	32.2002
366.1148	30.49502
366.2821	33.09611
366.4493	30.0475
366.6166	35.67726
366.7838	33.23444
366.951	30.06614
367.1182	32.69975
367.2855	30.81305
367.4527	25.78109
367.6199	25.77877
367.7871	27.16125
367.9543	28.07325
368.1215	28.26367
368.2886	27.27229
368.4558	27.9683
368.623	25.95986
368.7902	31.32216
368.9573	32.02911
369.1245	29.86104
369.2917	25.21786
369.4588	30.22283
369.6259	30.76941
369.7931	29.32713
369.9602	32.19022
370.1274	31.34743
370.2945	31.4872
370.4616	29.65628
370.6287	28.38458
370.7958	29.21706
370.963	32.89741
371.1301	33.25669
371.2971	31.54122
371.4643	34.68747
371.6313	31.56877
371.7984	32.51997
371.9655	28.11445
372.1326	29.81278
372.2997	26.52147
372.4667	36.70872
372.6338	36.8763
372.8008	36.07684
372.9679	33.86766
373.1349	38.51371
373.3019	25.06423
373.469	26.16491
373.636	29.54977
373.803	28.83997
373.9701	37.29586
374.1371	32.79368
374.3041	29.4507
374.4711	30.17217
374.6381	26.08354
374.8051	26.2846
374.9721	34.28104
375.1391	32.38272
375.3061	34.34726
375.473	33.04827
375.64	32.30938
375.8069	31.75428
375.9739	29.85899
376.1409	32.44323
376.3078	34.15848
376.4748	36.52811
376.6417	32.01977
376.8087	36.0707
376.9756	34.78925
377.1425	37.06916
377.3094	31.84278
377.4763	31.0324
377.6432	33.70839
377.8102	42.60767
377.9771	37.85725
378.144	42.87478
378.3109	39.68718
378.4777	38.62034
378.6446	37.22044
378.8115	39.28808
378.9784	37.47985
379.1452	34.27606
379.3121	35.94974
379.4789	37.00631
379.6458	34.14449
379.8127	35.22419
379.9795	31.65626
380.1463	33.36825
380.3131	43.16055
380.48	40.39169
380.6468	39.56057
380.8136	43.16475
380.9804	39.1204
381.1472	41.91598
381.314	40.29018
381.4808	35.93317
381.6476	36.74074
381.8144	33.44503
381.9812	38.09914
382.148	35.80116
382.3147	28.81617
382.4815	35.18152
382.6483	32.02444
382.815	29.99025
382.9818	30.44732
383.1485	28.6668
383.3153	31.71117
383.482	31.39892
383.6487	31.52217
383.8155	30.23341
383.9822	32.45959
384.1489	34.35506
384.3156	41.81044
384.4823	44.9477
384.649	42.65491
384.8157	38.51381
384.9824	41.99166
385.1491	39.82385
385.3158	41.25179
385.4825	39.24568
385.6491	33.87688
385.8158	33.54221
385.9825	33.31374
386.1491	39.07728
386.3157	39.68549
386.4824	40.29036
386.649	47.45917
386.8157	44.32714
386.9823	40.04794
387.1489	33.7745
387.3156	39.05363
387.4821	40.15137
387.6488	38.55407
387.8154	42.29247
387.982	39.93248
388.1486	39.99207
388.3152	39.0097
388.4818	42.29551
388.6483	45.72544
388.8149	42.36032
388.9815	40.10588
389.148	44.75512
389.3146	43.79636
389.4811	47.32936
389.6477	49.74191
389.8142	51.84933
389.9808	46.43367
390.1473	42.81858
390.3138	41.89232
390.4804	43.06325
390.6469	44.63042
390.8134	47.1181
390.9799	47.85251
391.1464	50.29568
391.3129	51.984
391.4794	47.25409
391.6459	44.4977
391.8124	41.75101
391.9789	40.58973
392.1453	45.07898
392.3118	46.43527
392.4782	42.78821
392.6447	44.35448
392.8112	43.79965
392.9776	39.87527
393.144	34.36842
393.3105	30.62527
393.4769	35.08916
393.6433	34.552
393.8098	35.29897
393.9762	39.81513
394.1426	40.68639
394.309	44.77849
394.4754	50.40052
394.6418	53.95274
394.8082	51.75238
394.9746	49.16291
395.141	49.41073
395.3073	51.28315
395.4737	50.26799
395.64	51.88063
395.8064	53.72468
395.9728	49.11255
396.1391	46.24698
396.3055	41.99488
396.4718	44.42573
396.6381	39.89834
396.8045	36.18422
396.9708	35.11748
397.1371	40.3315
397.3034	41.47276
397.4697	45.92943
397.636	47.79814
397.8023	49.30423
397.9686	52.74235
398.1349	64.26739
398.3012	59.38046
398.4675	58.74327
398.6337	58.25548
398.8	60.88829
398.9662	60.15671
399.1325	64.84909
399.2988	61.73893
399.465	62.15147
399.6313	60.03835
399.7975	63.63682
399.9637	61.75974
400.1299	58.26127
400.2961	68.05273
400.4624	60.84489
400.6286	58.71407
400.7948	61.49906
400.961	69.36412
401.1272	66.56017
401.2934	65.58121
401.4595	67.10773
401.6257	64.36051
401.7919	66.92166
401.9581	68.18207
402.1242	60.45753
402.2904	64.64944
402.4565	62.63653
402.6227	66.50372
402.7888	65.40012
402.955	65.99952
403.1211	58.70694
403.2872	62.81553
403.4533	61.27422
403.6194	63.78738
403.7856	70.70782
403.9517	70.94146
404.1177	69.45964
404.2838	68.74666
404.4499	59.62037
404.616	54.7834
404.7821	59.32571
404.9482	66.33463
405.1142	66.97063
405.2803	64.83854
405.4464	61.7405
405.6124	63.40825
405.7784	65.88171
405.9445	65.14105
406.1105	61.14418
406.2766	68.24203
406.4426	69.61089
406.6086	60.9391
406.7746	62.63623
406.9406	71.09284
407.1066	69.68632
407.2726	69.40636
407.4386	67.95105
407.6046	70.90992
407.7706	68.5473
407.9366	70.81716
408.1025	78.63307
408.2685	78.71077
408.4344	83.64877
408.6004	81.76423
408.7664	77.74792
408.9323	77.24245
409.0983	83.03962
409.2642	80.04231
409.4301	79.24138
409.596	75.06087
409.762	72.16467
409.9279	70.11462
410.0938	68.98573
410.2597	71.04801
410.4256	70.13161
410.5915	70.92626
410.7574	73.08617
410.9232	74.88658
411.0891	75.17989
411.255	76.85574
411.4209	78.0672
411.5867	79.3806
411.7526	77.05965
411.9184	80.63443
412.0843	84.94148
412.2501	80.45039
412.4159	91.2406
412.5818	76.7824
412.7476	80.27785
412.9134	80.45735
413.0792	78.46425
413.245	67.78265
413.4108	77.73119
413.5766	82.00714
413.7424	79.47289
413.9082	82.00623
414.074	88.55627
414.2397	82.02072
414.4055	80.21862
414.5713	78.8555
414.737	80.85817
414.9028	83.71661
415.0685	79.68221
415.2343	80.31155
415.4	79.4815
415.5658	79.2655
415.7315	76.97497
415.8972	81.03401
416.0629	87.10434
416.2286	87.12418
416.3943	80.01109
416.56	77.4838
416.7257	83.65308
416.8914	85.03071
417.0571	76.24699
417.2228	75.50445
417.3884	77.95834
417.5541	78.38727
417.7198	84.23161
417.8854	81.61243
418.0511	77.84096
418.2167	85.90186
418.3824	82.55442
418.548	83.13932
418.7136	80.67192
418.8792	79.865
419.0449	88.4306
419.2105	85.40435
419.3761	84.92645
419.5417	84.58088
419.7073	75.01492
419.8729	76.71135
420.0385	75.73988
420.204	79.18121
420.3696	84.9464
420.5352	91.14446
420.7007	89.71117
420.8663	91.12161
421.0319	89.50945
421.1974	89.92525
421.3629	93.5035
421.5285	90.35957
421.694	88.68854
421.8595	88.93684
422.0251	94.96923
422.1906	91.46856
422.3561	85.08889
422.5216	78.34728
422.6871	79.6388
422.8526	84.23908
423.0181	88.9017
423.1835	93.03995
423.349	91.66493
423.5145	90.41991
423.68	87.42721
423.8454	90.72463
424.0109	91.50706
424.1763	89.82022
424.3418	92.7453
424.5072	93.60803
424.6726	91.23603
424.838	94.08621
425.0035	89.92236
425.1689	91.92019
425.3343	88.4913
425.4997	93.75224
425.6651	95.98272
425.8305	89.6917
425.9959	88.92139
426.1613	88.00317
426.3267	94.65701
426.492	100.1723
426.6574	100.3533
426.8228	96.22707
426.9881	83.98173
427.1534	86.69037
427.3188	81.26455
427.4841	90.32375
427.6495	99.00926
427.8148	95.8925
427.9801	91.93288
428.1454	97.6137
428.3107	97.47658
428.476	96.15134
428.6414	91.69002
428.8066	85.56053
428.9719	88.61742
429.1372	89.55122
429.3025	90.96451
429.4678	90.65092
429.633	88.3168
429.7983	88.49852
429.9636	79.29449
430.1288	71.7616
430.294	66.87179
430.4593	69.38281
430.6245	69.25251
430.7897	72.61862
430.955	81.0445
431.1202	83.74339
431.2854	87.77995
431.4506	94.20216
431.6158	94.44884
431.781	103.6017
431.9462	106.0152
432.1114	100.9319
432.2766	93.16851
432.4417	87.08973
432.6069	84.56281
432.772	95.54237
432.9372	95.67047
433.1024	107.9371
433.2675	107.5414
433.4326	102.734
433.5977	105.3789
433.7629	93.77814
433.928	86.20919
434.0931	83.40723
434.2582	88.24317
434.4233	98.71812
434.5884	105.4654
434.7535	107.9865
434.9186	109.3884
435.0837	102.4494
435.2488	96.29969
435.4138	96.84039
435.5789	101.2579
435.744	105.9835
435.909	106.3559
436.0741	108.8519
436.2391	109.7712
436.4042	113.0806
436.5692	111.3214
436.7342	108.4044
436.8992	111.3939
437.0643	111.4883
437.2293	110.2514
437.3943	109.7828
437.5593	108.0632
437.7243	109.7986
437.8893	106.7659
438.0542	111.1179
438.2192	108.3966
438.3842	98.96683
438.5491	99.77792
438.7141	106.7997
438.8791	116.6547
439.044	108.9724
439.209	114.9416
439.3739	116.6189
439.5388	117.8035
439.7037	121.1075
439.8687	116.1524
440.0336	118.0797
440.1985	113.5197
440.3634	113.7679
440.5283	111.6441
440.6932	110.0689
440.8581	113.1633
441.0229	121.7709
441.1878	122.8819
441.3527	120.4256
441.5175	116.6448
441.6824	115.0203
441.8472	121.0115
442.0121	122.7244
442.1769	131.51
442.3418	121.0097
442.5066	123.0501
442.6714	125.446
442.8362	120.5357
443.001	121.7376
443.1659	116.8132
443.3307	120.5086
443.4955	119.8929
443.6602	121.2696
443.825	124.4509
443.9898	127.9657
444.1546	121.3483
444.3193	118.6006
444.4841	122.8782
444.6488	123.9674
444.8136	126.1168
444.9783	127.1879
445.1431	127.4726
445.3078	127.1583
445.4725	121.301
445.6372	114.15
445.802	118.5913
445.9667	117.0784
446.1314	113.3935
446.2961	115.2374
446.4608	122.2889
446.6255	123.0758
446.7901	124.94
446.9548	120.001
447.1195	131.2908
447.2841	132.4624
447.4488	128.1979
447.6134	135.082
447.7781	134.6248
447.9427	129.8967
448.1074	130.2729
448.272	128.0195
448.4366	130.768
448.6012	134.3523
448.7658	134.5177
448.9305	130.3177
449.095	129.9776
449.2596	128.222
449.4242	133.9821
449.5888	129.834
449.7534	126.7664
449.9179	129.6812
450.0825	133.5816
450.2471	140.2761
450.4116	144.8667
450.5762	138.7562
450.7407	137.7272
450.9052	146.8503
451.0698	150.2366
451.2343	148.1016
451.3988	142.2218
451.5633	139.9053
451.7278	136.7211
451.8923	138.148
452.0568	141.9865
452.2213	140.5312
452.3858	140.1503
452.5503	134.5081
452.7148	133.8037
452.8792	129.8099
453.0437	125.0249
453.2081	134.3489
453.3726	135.3528
453.537	139.1388
453.7015	139.5027
453.8659	147.248
454.0303	143.8591
454.1947	138.5276
454.3592	139.3113
454.5236	147.097
454.688	139.9826
454.8524	133.0287
455.0168	132.7695
455.1811	141.6015
455.3455	141.9173
455.5099	146.5445
455.6743	144.1398
455.8386	144.8313
456.003	146.9984
456.1673	146.8895
456.3317	142.5668
456.496	141.58
456.6603	145.5423
456.8246	149.5537
456.989	147.431
457.1533	150.9138
457.3176	151.4115
457.4819	150.3584
457.6462	147.3484
457.8105	148.1767
457.9748	145.5059
458.1391	146.7098
458.3033	142.8257
458.4676	142.291
458.6319	150.9494
458.7961	145.4171
458.9604	146.3314
459.1246	146.9691
459.2888	146.691
459.4531	152.6679
459.6173	152.6965
459.7815	146.9932
459.9457	145.1527
460.11	149.4619
460.2741	151.0562
460.4384	147.9308
460.6025	147.9789
460.7667	147.9715
460.9309	151.7105
461.0951	149.3725
461.2592	145.0316
461.4234	147.1666
461.5876	152.427
461.7517	156.2954
461.9159	151.3369
462.08	153.1535
462.2441	155.6713
462.4082	154.555
462.5724	153.394
462.7365	157.0362
462.9006	155.6244
463.0647	152.2784
463.2288	147.1298
463.3929	146.3436
463.557	152.2634
463.721	148.5373
463.8851	148.3713
464.0492	150.2218
464.2132	153.5087
464.3773	149.1176
464.5414	145.8124
464.7054	146.3995
464.8694	149.7616
465.0334	146.7335
465.1975	145.8011
465.3615	154.4839
465.5255	151.6197
465.6895	157.987
465.8535	157.7547
466.0175	158.2103
466.1815	157.0466
466.3455	157.1672
466.5095	151.8457
466.6734	140.8243
466.8374	142.0267
467.0014	148.4178
467.1653	150.6606
467.3293	150.4448
467.4932	153.8212
467.6571	150.3858
467.8211	152.1354
467.985	150.7662
468.1489	146.3222
468.3128	148.5291
468.4767	156.1196
468.6406	156.1991
468.8045	161.2371
468.9684	160.744
469.1323	157.6761
469.2962	154.0789
469.46	157.8319
469.6239	159.1303
469.7878	152.5039
469.9516	156.9674
470.1154	156.7635
470.2793	149.461
470.4431	152.0331
470.607	153.6413
470.7708	153.7488
470.9346	155.0218
471.0984	157.8972
471.2622	161.1444
471.426	154.2876
471.5898	156.1648
471.7536	159.4575
471.9174	169.4276
472.0811	168.665
472.2449	167.7322
472.4087	166.6638
472.5724	166.5443
472.7362	165.6258
472.8999	162.5635
473.0637	154.4635
473.2274	161.6806
473.3911	157.8521
473.5548	160.386
473.7185	163.6274
473.8822	163.0066
474.0459	160.9422
474.2096	166.0442
474.3733	168.08
474.537	169.8542
474.7007	165.6762
474.8643	166.8938
475.028	171.129
475.1917	162.0545
475.3553	169.2646
475.519	163.6605
475.6826	159.8558
475.8463	161.4328
476.0099	159.6078
476.1735	163.6551
476.3371	162.2911
476.5007	156.6062
476.6643	162.1211
476.8279	160.7999
476.9915	156.3893
477.1551	165.985
477.3187	164.3169
477.4823	163.6967
477.6458	167.4502
477.8094	166.8338
477.9729	168.7715
478.1365	167.5921
478.3	159.3528
478.4636	170.7612
478.6271	160.6507
478.7906	159.7333
478.9541	165.6614
479.1176	159.9341
479.2812	167.7395
479.4447	171.6805
479.6082	174.0012
479.7716	161.9658
479.9351	157.539
480.0986	163.4907
480.2621	168.4268
480.4255	169.9321
480.589	167.9116
480.7524	166.6801
480.9159	160.6106
481.0793	162.6213
481.2428	161.736
481.4062	173.5941
481.5696	166.9373
481.733	166.3827
481.8964	171.1928
482.0598	163.7847
482.2232	165.23
482.3866	166.3336
482.55	161.6264
482.7134	166.0048
482.8768	162.7416
483.0401	165.1238
483.2035	167.1261
483.3668	166.5945
483.5302	166.2032
483.6935	162.8198
483.8568	160.512
484.0202	159.8991
484.1835	165.9255
484.3468	169.3732
484.5101	170.0634
484.6734	162.1521
484.8367	168.0979
485	168.5885
485.1633	167.6886
485.3266	171.1791
485.4899	157.8229
485.6531	150.6649
485.8164	149.1415
485.9796	135.6674
486.1429	129.453
486.3061	135.1476
486.4694	135.8994
486.6326	148.4766
486.7958	154.8702
486.959	154.1949
487.1223	150.8801
487.2855	150.8855
487.4486	162.432
487.6118	161.264
487.775	166.2015
487.9382	169.8452
488.1014	170.2113
488.2646	172.4115
488.4277	166.6451
488.5909	164.3983
488.754	159.2977
488.9171	156.1494
489.0803	156.4272
489.2434	156.7805
489.4066	170.8869
489.5697	177.5076
489.7328	179.3778
489.8959	180.1685
490.059	175.5332
490.2221	176.8432
490.3852	181.6392
490.5482	176.1919
490.7113	170.707
490.8744	168.9516
491.0374	166.9669
491.2005	163.4792
491.3636	172.0396
491.5266	178.4357
491.6896	171.7339
491.8527	159.6063
492.0157	149.3923
492.1787	162.682
492.3417	164.9956
492.5047	171.6325
492.6677	176.1365
492.8307	179.0596
492.9937	177.2773
493.1567	169.5739
493.3196	173.2081
493.4826	171.1957
493.6456	168.4347
493.8085	161.2619
493.9715	166.7061
494.1344	170.8044
494.2974	173.3881
494.4603	179.0698
494.6232	173.321
494.7861	176.7687
494.949	178.8138
495.1119	174.107
495.2748	173.6786
495.4377	176.8656
495.6006	174.9249
495.7635	168.6569
495.9264	162.4679
496.0892	174.1208
496.2521	177.712
496.4149	178.6539
496.5778	180.7748
496.7407	179.7618
496.9035	177.3068
497.0663	175.7512
497.2291	171.6516
497.3919	180.5118
497.5547	179.9837
497.7176	177.1565
497.8804	174.8398
498.0432	173.3228
498.2059	166.6541
498.3687	166.2286
498.5315	175.9023
498.6942	170.2758
498.857	169.0612
499.0198	179.0852
499.1825	175.5604
499.3452	177.4235
499.508	178.4447
499.6707	179.6858
499.8334	183.6151
499.9962	178.636
500.1589	174.9258
500.3216	171.4859
500.4843	170.7091
500.6469	172.2034
500.8096	169.3587
500.9723	172.3695
501.135	171.9094
501.2976	173.5447
501.4603	170.8638
501.623	164.9592
501.7856	168.2446
501.9482	167.1366
502.1109	172.0529
502.2735	168.6305
502.4361	174.63
502.5987	173.8675
502.7614	174.4985
502.924	172.6967
503.0865	175.5415
503.2491	180.7701
503.4117	174.226
503.5743	176.3086
503.7368	177.5284
503.8994	173.9599
504.062	174.3121
504.2245	172.968
504.3871	182.6651
504.5496	177.1885
504.7121	185.6215
504.8746	181.3295
505.0372	172.083
505.1997	177.0321
505.3622	185.8168
505.5247	178.3573
505.6872	183.6841
505.8497	179.0741
506.0121	181.4218
506.1746	186.2392
506.3371	186.7806
506.4995	187.379
506.662	180.4894
506.8244	180.4109
506.9869	185.5928
507.1493	179.2038
507.3117	179.0936
507.4742	178.3936
507.6366	179.6539
507.799	175.8286
507.9614	173.4713
508.1238	178.5031
508.2862	180.5235
508.4485	178.1073
508.6109	180.1237
508.7733	182.8513
508.9357	188.7292
509.098	191.3353
509.2604	193.1984
509.4227	191.9992
509.5851	189.2694
509.7474	187.5808
509.9097	184.9728
510.072	186.5033
510.2343	183.9741
510.3966	185.9556
510.5589	182.9543
510.7212	183.5925
510.8835	175.3535
511.0458	177.5753
511.2081	182.5039
511.3703	188.3222
511.5326	191.851
511.6949	190.9755
511.8571	190.3802
512.0193	189.8935
512.1816	184.9137
512.3438	181.3256
512.506	182.1391
512.6682	179.8887
512.8304	178.8678
512.9926	183.9959
513.1548	176.5837
513.317	184.6355
513.4792	178.1236
513.6414	181.8743
513.8035	176.0746
513.9657	178.4618
514.1279	175.5394
514.29	176.4168
514.4521	176.4765
514.6143	174.8373
514.7764	182.518
514.9385	189.7834
515.1006	182.4924
515.2628	178.8089
515.4249	180.2645
515.587	179.6319
515.7491	182.7813
515.9111	185.8591
516.0732	184.2374
516.2353	183.3646
516.3973	179.1936
516.5594	176.5898
516.7214	167.5643
516.8835	162.9139
517.0455	155.9009
517.2076	159.5133
517.3696	158.2144
517.5316	166.9582
517.6937	185.0583
517.8557	189.2272
518.0176	179.1144
518.1796	176.1776
518.3416	165.1324
518.5036	162.1878
518.6656	170.0411
518.8275	178.7507
518.9895	180.3088
519.1514	178.5689
519.3134	180.2455
519.4753	185.1503
519.6373	184.0505
519.7992	179.4565
519.9611	184.674
520.123	185.6216
520.2849	184.4322
520.4468	176.5002
520.6087	178.9319
520.7706	176.8743
520.9325	173.9617
521.0944	184.223
521.2562	190.2737
521.4181	182.3832
521.58	181.4458
521.7418	181.6019
521.9036	187.934
522.0655	186.9464
522.2273	185.142
522.3891	185.3809
522.551	183.5416
522.7128	182.0167
522.8746	181.4672
523.0363	179.6149
523.1981	177.3709
523.3599	181.3396
523.5217	185.3721
523.6835	186.8421
523.8452	187.7729
524.007	195.1087
524.1687	189.755
524.3304	185.4025
524.4922	188.4477
524.6539	192.1054
524.8157	187.8076
524.9774	189.6539
525.1391	185.7669
525.3008	180.7657
525.4625	192.2056
525.6241	191.978
525.7858	187.5612
525.9475	188.2629
526.1092	191.0358
526.2709	178.3442
526.4325	171.4801
526.5942	169.351
526.7558	167.5782
526.9174	174.3819
527.079	175.3847
527.2407	175.0402
527.4023	181.1309
527.5639	181.1048
527.7255	184.0148
527.8871	191.2713
528.0487	186.8843
528.2103	183.8196
528.3718	187.4119
528.5334	192.1732
528.695	191.7536
528.8565	190.6404
529.0181	200.3937
529.1796	196.9246
529.3412	196.848
529.5027	202.5107
529.6642	191.5812
529.8257	186.0462
529.9872	188.0704
530.1487	189.3691
530.3102	189.5818
530.4717	192.3935
530.6332	195.5984
530.7947	195.0683
530.9562	195.7732
531.1176	195.3632
531.2791	198.421
531.4405	191.4003
531.6019	197.2201
531.7634	190.3799
531.9248	196.4699
532.0862	189.6363
532.2477	193.1784
532.4091	193.6795
532.5704	186.9826
532.7319	183.5159
532.8932	175.371
533.0546	182.7514
533.216	195.8235
533.3774	198.3646
533.5388	194.8951
533.7001	190.6269
533.8615	194.2918
534.0228	195.1975
534.1841	195.2038
534.3455	190.4652
534.5068	191.287
534.6681	194.2985
534.8293	190.7954
534.9907	191.4513
535.152	187.2474
535.3132	181.5381
535.4745	192.3043
535.6358	196.753
535.7971	195.7621
535.9583	195.8192
536.1196	191.8372
536.2808	188.1366
536.4421	188.6964
536.6033	186.1799
536.7645	178.0943
536.9258	180.6528
537.087	181.412
537.2482	187.808
537.4094	191.4382
537.5706	188.9167
537.7318	198.3274
537.8929	196.9903
538.0541	184.8763
538.2153	192.1833
538.3764	193.748
538.5376	182.3654
538.6987	184.2088
538.8599	186.5826
539.021	184.9153
539.1821	189.0568
539.3432	196.5519
539.5043	188.685
539.6655	190.6152
539.8265	184.5242
539.9876	191.4953
540.1487	193.6401
540.3098	185.3766
540.4708	177.6566
540.6319	183.8827
540.793	181.9128
540.954	183.6205
541.1151	181.5011
541.2761	186.1072
541.4371	191.4153
541.5981	183.5213
541.7592	179.2961
541.9202	183.1041
542.0812	188.9492
542.2422	191.8024
542.4031	190.567
542.5641	189.5152
542.7251	185.5041
542.886	190.8913
543.0471	189.813
543.208	179.2625
543.369	187.3759
543.5298	181.7276
543.6908	177.3411
543.8517	191.2579
544.0126	194.7512
544.1736	189.9946
544.3345	184.8113
544.4954	182.7353
544.6563	185.1495
544.8171	184.1334
544.978	187.5026
545.1389	191.9473
545.2997	192.3464
545.4606	194.2987
545.6215	188.4593
545.7823	182.5169
545.9432	186.9493
546.104	191.2166
546.2648	192.5746
546.4256	190.5286
546.5864	191.3815
546.7473	184.8683
546.908	190.9009
547.0688	190.9522
547.2296	186.3365
547.3904	186.6384
547.5511	183.3706
547.7119	181.6151
547.8727	179.5563
548.0334	188.1609
548.1942	187.8656
548.3549	188.9053
548.5156	193.0308
548.6763	192.0025
548.837	188.3847
548.9977	189.9017
549.1584	193.9861
549.3192	197.0917
549.4798	192.3386
549.6405	188.5535
549.8011	189.6115
549.9619	192.8124
550.1225	190.9337
550.2831	187.2519
550.4438	188.5933
550.6044	188.2208
550.765	187.6252
550.9257	188.1606
551.0863	186.2159
551.2469	186.6319
551.4075	184.1308
551.5681	183.0696
551.7287	192.6907
551.8893	195.1337
552.0498	193.19
552.2104	192.4044
552.371	197.5023
552.5315	200.2645
552.6921	197.2821
552.8526	188.4598
553.0131	192.3142
553.1736	188.5671
553.3342	193.7052
553.4947	193.6283
553.6552	190.1495
553.8157	191.1068
553.9762	193.0528
554.1367	191.0472
554.2971	193.5325
554.4576	191.7743
554.618	196.6834
554.7785	196.5284
554.939	197.965
555.0994	196.9913
555.2598	197.4684
555.4203	192.7712
555.5807	191.725
555.7411	194.1903
555.9015	202.3301
556.0619	196.2701
556.2223	191.9981
556.3827	190.3605
556.5431	192.2581
556.7034	194.3357
556.8638	194.3211
557.0242	187.5686
557.1845	190.1151
557.3448	188.5159
557.5052	186.9951
557.6655	189.1647
557.8259	193.654
557.9861	187.7191
558.1465	199.1685
558.3068	191.5427
558.467	184.8672
558.6274	185.2311
558.7877	178.8783
558.9479	187.024
559.1082	179.9819
559.2684	189.8804
559.4287	191.0763
559.5889	192.4036
559.7491	187.8878
559.9094	187.6413
560.0696	188.7731
560.2299	186.6889
560.3901	189.9631
560.5502	196.2081
560.7104	198.0822
560.8707	197.3553
561.0308	194.6407
561.191	198.3326
561.3511	201.1243
561.5114	196.6208
561.6714	188.9082
561.8316	187.7907
561.9918	193.4552
562.1519	182.9836
562.312	187.1854
562.4722	190.1198
562.6323	200.4455
562.7924	197.131
562.9525	193.8601
563.1125	194.9408
563.2726	194.9685
563.4327	198.9183
563.5928	196.1132
563.7528	189.6812
563.9129	197.6848
564.0729	193.5515
564.233	190.7791
564.393	193.6157
564.553	191.5475
564.7131	199.4379
564.873	196.3786
565.0331	199.0961
565.1931	197.5269
565.353	201.5171
565.5131	193.3417
565.673	192.6406
565.833	190.6182
565.9929	195.1634
566.1529	192.6521
566.3129	189.1646
566.4728	193.6438
566.6328	198.365
566.7927	194.0577
566.9526	201.6965
567.1125	203.9634
567.2724	198.8175
567.4323	197.4204
567.5922	196.0579
567.7521	201.4518
567.9119	196.5851
568.0718	194.6549
568.2317	201.4777
568.3915	192.1122
568.5514	194.4381
568.7112	189.0667
568.871	194.7406
569.0309	191.5751
569.1907	196.154
569.3505	199.1323
569.5103	193.2282
569.6701	188.6617
569.8299	194.9459
569.9897	200.8055
570.1495	199.6972
570.3092	198.1961
570.469	197.0357
570.6287	191.7422
570.7885	191.5978
570.9482	194.8076
571.108	193.3332
571.2677	196.1021
571.4274	198.1786
571.5871	203.2863
571.7468	201.2008
571.9066	207.4497
572.0662	205.3356
572.2259	207.2931
572.3856	202.5909
572.5452	201.1376
572.7049	206.2436
572.8646	204.2942
573.0242	213.1088
573.1838	202.7574
573.3435	202.7236
573.5031	205.5249
573.6627	209.3701
573.8223	205.8106
573.9819	217.0238
574.1415	211.5426
574.3011	215.1661
574.4607	212.1564
574.6203	205.0741
574.7798	207.9254
574.9394	214.9769
575.099	210.1189
575.2585	205.6185
575.418	206.7851
575.5776	214.4897
575.7371	207.907
575.8966	210.0258
576.0562	210.3902
576.2156	209.1851
576.3751	209.0979
576.5346	214.9682
576.6941	212.251
576.8536	210.4001
577.0131	220.2618
577.1725	214.7923
577.332	210.3554
577.4914	206.9101
577.6508	214.061
577.8103	212.9099
577.9697	211.6068
578.1291	204.4418
578.2885	207.5365
578.4479	205.7254
578.6073	200.9807
578.7667	208.464
578.9261	211.9018
579.0854	205.9593
579.2448	204.6901
579.4042	208.0211
579.5635	213.3778
579.7229	217.6969
579.8822	212.6272
580.0416	205.075
580.2009	208.5096
580.3602	212.2256
580.5195	211.7761
580.6788	206.5324
580.8381	210.5005
580.9974	217.9143
581.1566	218.608
581.3159	218.3842
581.4752	218.3685
581.6345	221.6964
581.7937	224.2649
581.9529	216.3666
582.1122	218.8421
582.2714	218.561
582.4306	214.5278
582.5898	218.4331
582.749	217.709
582.9082	223.2332
583.0674	223.4637
583.2266	222.6587
583.3857	221.1021
583.5449	222.5931
583.7041	216.9761
583.8633	215.4372
584.0224	216.7878
584.1815	218.3986
584.3407	225.8784
584.4998	222.5567
584.6589	222.8961
584.818	217.6597
584.9771	222.5311
585.1362	223.9524
585.2953	217.9553
585.4544	211.2077
585.6135	218.084
585.7725	223.0017
585.9316	213.7621
586.0906	214.3326
586.2497	225.3533
586.4087	230.7908
586.5677	227.5608
586.7267	221.9336
586.8858	218.3269
587.0448	223.0389
587.2038	218.5638
587.3628	212.7834
587.5218	217.1181
587.6807	222.1715
587.8397	221.3749
587.9987	229.9395
588.1577	225.0488
588.3166	220.0532
588.4755	214.1382
588.6345	221.5147
588.7934	214.5045
588.9523	212.1759
589.1112	207.9625
589.2701	202.0711
589.429	201.9735
589.5879	214.6286
589.7468	208.6379
589.9056	213.9528
590.0645	218.772
590.2234	210.6891
590.3822	217.7907
590.5411	223.6522
590.6999	227.7135
590.8588	221.4234
591.0176	223.7554
591.1764	226.4664
591.3352	218.1192
591.494	222.1982
591.6528	221.7487
591.8116	216.4908
591.9703	223.4841
592.1291	218.8418
592.2878	220.8571
592.4467	220.0205
592.6053	224.748
592.7641	225.6732
592.9229	223.4725
593.0816	221.4456
593.2403	223.88
593.399	223.5423
593.5577	227.369
593.7164	226.8255
593.8751	226.8109
594.0338	226.195
594.1924	218.215
594.3511	224.1687
594.5098	227.9066
594.6684	226.6894
594.8271	225.5083
594.9857	228.3928
595.1443	232.5241
595.303	227.0176
595.4615	226.8377
595.6202	229.0558
595.7787	231.4745
595.9374	233.1868
596.0959	232.4357
596.2545	234.5432
596.4131	227.9147
596.5717	229.5576
596.7302	231.4657
596.8887	229.9135
597.0473	228.5727
597.2058	236.3888
597.3644	239.1739
597.5229	232.6964
597.6814	232.4328
597.8399	233.2874
597.9984	236.7843
598.1569	232.3131
598.3154	230.3033
598.4738	236.8165
598.6323	229.1007
598.7908	232.5151
598.9492	240.3085
599.1076	234.8726
599.2661	230.0722
599.4245	235.182
599.5829	236.3672
599.7413	239.9371
599.8997	235.9435
600.0581	234.7175
600.2165	244.235
600.3749	246.2382
600.5333	241.1295
600.6917	241.0552
600.85	236.3011
601.0084	234.1489
601.1667	229.971
601.325	236.6685
601.4833	243.3548
601.6417	240.1299
601.8	237.3371
601.9583	242.8792
602.1166	239.4152
602.2749	234.6843
602.4332	232.8886
602.5914	233.0747
602.7498	241.8882
602.908	239.6833
603.0662	250.4344
603.2245	258.3306
603.3828	253.9051
603.541	243.3268
603.6992	246.4807
603.8574	247.5993
604.0156	241.627
604.1738	243.8819
604.332	248.0154
604.4902	249.0337
604.6484	243.391
604.8065	243.8041
604.9647	244.0537
605.1229	248.2905
605.281	249.5875
605.4391	248.1922
605.5973	240.4962
605.7554	243.0047
605.9135	239.1229
606.0717	241.9535
606.2297	243.4273
606.3878	240.6104
606.5459	243.6465
606.704	240.7584
606.8621	237.9127
607.0201	240.7229
607.1782	248.9204
607.3362	249.5245
607.4943	241.5648
607.6523	243.4931
607.8104	251.0367
607.9684	250.5782
608.1264	256.2625
608.2844	251.382
608.4424	249.0682
608.6003	240.6033
608.7584	235.291
608.9163	243.2608
609.0743	248.1307
609.2322	248.6593
609.3902	244.0164
609.5482	244.9803
609.7061	243.5571
609.864	248.5324
610.0219	244.6559
610.1798	243.6705
610.3377	239.9488
610.4956	240.6875
610.6535	237.2496
610.8114	239.7516
610.9693	241.8683
611.1271	248.1543
611.285	246.2868
611.4429	248.5582
611.6007	251.4187
611.7585	247.1534
611.9164	239.7453
612.0742	240.5561
612.232	235.4972
612.3898	237.9107
612.5476	245.2681
612.7054	242.0435
612.8632	237.4632
613.0209	243.3896
613.1787	249.0249
613.3365	243.9161
613.4942	240.0217
613.652	230.7458
613.8097	222.7366
613.9674	233.7238
614.1252	235.1127
614.2829	235.4443
614.4406	241.0588
614.5983	238.4994
614.756	231.2804
614.9136	236.2242
615.0714	235.7457
615.229	235.5471
615.3867	238.8073
615.5443	241.6208
615.702	238.0186
615.8596	233.1189
616.0172	230.0839
616.1748	233.2325
616.3325	222.8931
616.4901	228.7901
616.6476	223.6085
616.8052	222.6571
616.9628	229.1923
617.1204	228.3797
617.278	229.1203
617.4355	239.4083
617.5931	233.4162
617.7506	229.1931
617.9081	233.8751
618.0657	226.0023
618.2232	236.507
618.3807	229.5649
618.5382	231.9417
618.6957	243.2994
618.8532	236.863
619.0107	231.4953
619.1682	237.5323
619.3256	234.8268
619.4831	230.9822
619.6406	231.7967
619.798	236.9389
619.9554	239.078
620.1129	249.7304
620.2703	238.4869
620.4277	242.542
620.5851	234.4461
620.7425	227.3711
620.8998	234.5685
621.0573	236.277
621.2146	235.8174
621.372	233.9148
621.5294	229.3628
621.6867	227.7085
621.8441	231.9287
622.0013	231.0551
622.1587	235.1463
622.316	235.4555
622.4733	233.7375
622.6306	234.4022
622.7879	230.6097
622.9452	235.4978
623.1025	229.6304
623.2598	231.8555
623.4171	235.3803
623.5743	235.4501
623.7316	232.0579
623.8888	233.4587
624.046	235.2887
624.2032	238.3439
624.3605	235.2673
624.5176	222.168
624.6749	218.8642
624.8321	225.3877
624.9893	224.0509
625.1464	226.1131
625.3036	223.8076
625.4608	221.8542
625.6179	222.4055
625.7751	226.2984
625.9322	225.1246
626.0894	227.4226
626.2465	229.9223
626.4036	233.8953
626.5607	229.1726
626.7178	235.6067
626.8749	231.6085
627.032	231.3049
627.189	235.6212
627.3461	223.2099
627.5032	221.4224
627.6602	221.4775
627.8173	216.9487
627.9743	212.7409
628.1313	217.8379
628.2884	217.2509
628.4454	227.3286
628.6024	221.5984
628.7594	229.1913
628.9164	226.2888
629.0734	225.9393
629.2303	221.5069
629.3873	222.5283
629.5443	222.4886
629.7012	218.5356
629.8582	220.6046
630.0151	214.0658
630.172	226.7999
630.3289	223.8392
630.4858	226.6032
630.6428	222.2209
630.7996	222.4518
630.9565	224.7195
631.1134	223.878
631.2703	215.565
631.4272	221.3185
631.584	219.8324
631.7408	215.533
631.8977	219.0028
632.0546	221.9147
632.2114	224.4303
632.3682	218.4822
632.525	222.5354
632.6818	223.1417
632.8386	222.4505
632.9954	226.0716
633.1522	229.1718
633.3089	221.7372
633.4657	224.1324
633.6224	225.484
633.7792	219.9783
633.9359	226.1819
634.0927	219.4935
634.2494	215.8124
634.4061	218.6891
634.5628	220.7537
634.7195	220.0205
634.8762	216.7102
635.0329	220.4251
635.1895	218.1689
635.3462	221.9061
635.5029	227.2493
635.6595	225.1899
635.8162	217.7655
635.9728	215.7724
636.1295	216.4741
636.2861	223.6796
636.4427	216.0696
636.5992	214.3847
636.7559	217.8906
636.9124	221.7448
637.069	222.5508
637.2256	221.168
637.3821	217.7399
637.5387	220.9657
637.6953	223.3542
637.8518	223.2262
638.0084	218.8475
638.1649	218.5161
638.3214	220.0862
638.4779	228.124
638.6344	232.9653
638.7909	222.621
638.9474	221.9817
639.1038	219.0051
639.2603	219.9323
639.4167	217.4236
639.5732	218.9694
639.7297	217.9015
639.8861	209.5666
640.0425	213.436
640.199	210.4333
640.3553	217.2657
640.5118	215.8258
640.6682	221.0883
640.8245	213.7012
640.981	212.3148
641.1373	208.2938
641.2936	215.0468
641.45	221.6745
641.6064	212.4155
641.7627	211.3148
641.9191	213.4067
642.0754	215.7568
642.2317	211.4068
642.388	208.4427
642.5443	208.8566
642.7006	218.209
642.8569	217.8427
643.0131	206.4125
643.1694	209.7445
643.3257	215.8291
643.4819	219.6966
643.6382	210.2994
643.7944	204.7773
643.9506	209.9737
644.1069	215.1729
644.2631	218.95
644.4193	213.6496
644.5754	210.926
644.7316	211.6463
644.8878	214.1588
645.044	213.3718
645.2002	210.1586
645.3563	211.2892
645.5125	215.226
645.6686	212.7353
645.8248	209.0994
645.9809	202.1497
646.137	201.84
646.2931	199.6986
646.4492	197.6574
646.6053	203.2977
646.7614	202.1246
646.9174	204.4089
647.0735	202.034
647.2296	202.2965
647.3856	203.853
647.5417	201.4764
647.6977	196.5708
647.8537	201.1716
648.0098	203.1269
648.1658	194.2444
648.3218	192.2883
648.4777	195.8775
648.6337	200.0591
648.7897	202.5475
648.9457	206.5662
649.1016	200.3014
649.2576	199.6895
649.4135	195.5958
649.5695	187.9832
649.7254	189.6446
649.8813	197.6424
650.0372	194.2966
650.1932	198.9128
650.3491	201.5396
650.5049	200.8948
650.6608	198.2753
650.8167	205.0076
650.9725	205.491
651.1284	202.2413
651.2842	203.9249
651.4401	200.8148
651.5959	188.4312
651.7518	192.7525
651.9076	198.8627
652.0634	192.0547
652.2192	196.3773
652.3749	201.6079
652.5308	198.2325
652.6865	195.4996
652.8423	195.0055
652.998	202.6987
653.1538	196.7044
653.3096	192.7827
653.4653	197.1148
653.621	196.3212
653.7767	195.3155
653.9324	190.4724
654.0881	196.6413
654.2438	200.7946
654.3995	193.2392
654.5552	198.1731
654.7109	193.5166
654.8665	194.0003
655.0222	191.1605
655.1778	190.1514
655.3334	193.3603
655.4891	192.4382
655.6447	184.4149
655.8003	183.8065
655.9559	179.9897
656.1115	168.0486
656.2671	155.8604
656.4227	156.4619
656.5782	169.3405
656.7338	173.1517
656.8893	182.351
657.0449	186.2538
657.2004	187.4365
657.356	186.8504
657.5115	193.8386
657.667	195.7521
657.8225	185.395
657.978	191.5038
658.1335	191.7049
658.289	193.4447
658.4445	196.7533
658.5999	191.994
658.7554	196.0239
658.9108	197.7888
659.0663	196.1456
659.2217	194.3446
659.3771	194.133
659.5325	193.9679
659.6879	188.6838
659.8433	192.7769
659.9987	195.5918
660.1541	198.5845
660.3095	196.2332
660.4648	194.0439
660.6202	189.5806
660.7756	200.2413
660.9309	199.0271
661.0862	199.8172
661.2416	194.9794
661.3969	200.267
661.5522	194.0667
661.7075	197.2939
661.8628	193.0871
662.0181	197.2813
662.1733	192.6359
662.3286	192.8062
662.4839	191.3449
662.6391	193.111
662.7944	199.803
662.9496	194.0053
663.1048	185.1606
663.26	191.1187
663.4152	191.229
663.5704	191.3418
663.7256	189.2173
663.8808	190.0291
664.036	194.1188
664.1912	183.9052
664.3463	186.845
664.5015	189.637
664.6566	192.6539
664.8118	193.0358
664.9669	191.1778
665.122	190.8144
665.2771	194.4295
665.4322	193.6019
665.5873	191.8121
665.7424	190.7074
665.8975	191.6131
666.0526	196.0116
666.2076	193.9555
666.3627	178.6128
666.5177	181.1958
666.6727	186.5835
666.8278	192.7852
666.9828	198.4623
667.1378	192.2486
667.2928	188.7778
667.4478	189.7032
667.6028	187.7202
667.7578	192.6849
667.9127	193.2771
668.0677	183.1797
668.2226	189.6689
668.3776	186.8225
668.5325	185.1122
668.6874	189.829
668.8423	190.4332
668.9973	187.82
669.1522	194.5385
669.3071	190.0936
669.4619	190.0965
669.6168	187.4491
669.7717	188.0491
669.9265	187.2375
670.0814	190.2185
670.2362	185.9694
670.3911	182.1771
670.5459	183.9089
670.7007	191.3849
670.8555	183.5652
671.0103	187.7396
671.1651	184.5165
671.3199	188.1681
671.4747	181.4084
671.6295	181.9975
671.7842	188.6991
671.939	186.6549
672.0937	181.7953
672.2484	177.3756
672.4031	177.5564
672.5579	185.5767
672.7126	184.6229
672.8673	183.5028
673.022	182.3672
673.1767	182.3878
673.3314	187.0928
673.486	182.3444
673.6407	180.4592
673.7953	172.1882
673.95	174.7982
674.1046	180.242
674.2592	179.1404
674.4138	177.4281
674.5684	181.4999
674.723	180.5882
674.8776	180.6073
675.0322	184.2872
675.1868	184.5898
675.3414	177.4317
675.4959	177.948
675.6505	174.4736
675.805	177.93
675.9595	180.2884
676.1141	176.3067
676.2686	184.7731
676.4231	177.2956
676.5776	176.4906
676.7321	174.8851
676.8866	175.3338
677.041	175.3155
677.1955	174.964
677.35	177.0799
677.5044	178.7466
677.6589	178.1449
677.8133	178.1553
677.9677	173.074
678.1221	173.6865
678.2766	176.6593
678.4309	172.1698
678.5853	174.3548
678.7397	170.5587
678.8941	177.3076
679.0485	180.9637
679.2028	182.0558
679.3571	178.1783
679.5115	169.7233
679.6658	170.2131
679.8201	173.3781
679.9744	174.1485
680.1288	169.7115
680.2831	168.6171
680.4373	170.4645
680.5916	176.0957
680.7459	174.8713
680.9001	172.2129
681.0544	166.5503
681.2087	167.9185
681.3629	168.8503
681.5171	169.0258
681.6713	158.261
681.8256	168.0489
681.9797	171.615
682.134	165.829
682.2881	165.9122
682.4423	174.6252
682.5965	171.8619
682.7507	173.5197
682.9048	170.7868
683.059	169.5975
683.2131	170.7854
683.3672	165.2955
683.5213	166.1847
683.6754	169.3212
683.8295	166.9896
683.9836	163.1536
684.1377	164.6427
684.2918	169.8036
684.4459	163.1971
684.5999	162.7753
684.754	163.525
684.908	167.5616
685.062	165.8229
685.2161	166.1923
685.3701	164.4536
685.5241	160.9866
685.6781	158.2719
685.8321	161.1843
685.9861	163.6109
686.14	164.37
686.294	165.6578
686.4479	159.9539
686.6019	152.5558
686.7559	141.5798
686.9098	126.1991
687.0637	120.1033
687.2176	127.6166
687.3715	129.6903
687.5254	130.8655
687.6793	137.7415
687.8332	137.3489
687.9871	143.4868
688.1409	144.9621
688.2947	146.7634
688.4486	148.5158
688.6024	141.481
688.7563	142.8117
688.9101	140.8747
689.0639	141.3814
689.2177	134.9901
689.3715	135.22
689.5253	147.2734
689.6791	141.8646
689.8328	150.2196
689.9866	146.2555
690.1403	149.6275
690.2941	148.1804
690.4478	142.9695
690.6015	145.1344
690.7552	145.2991
690.9089	147.2355
691.0626	145.122
691.2164	146.8026
691.37	154.0816
691.5237	144.4719
691.6774	146.9371
691.831	148.6667
691.9847	144.8189
692.1383	144.1354
692.2919	152.5869
692.4456	147.6156
692.5992	149.7913
692.7527	155.619
692.9064	143.573
693.0599	142.5461
693.2136	146.4229
693.3671	141.9409
693.5207	145.2023
693.6742	150.6373
693.8278	148.6898
693.9813	139.4217
694.1348	135.7546
694.2883	136.5693
694.4418	145.8708
694.5953	142.3144
694.7488	143.5741
694.9023	145.3772
695.0558	141.2933
695.2093	139.6925
695.3627	145.485
695.5162	146.8304
695.6696	141.5468
695.8231	144.7694
695.9764	144.9765
696.1299	147.4365
696.2833	145.8374
696.4367	147.3578
696.5901	149.8279
696.7435	146.3199
696.8968	151.4473
697.0502	148.1681
697.2036	152.2185
697.3569	153.1597
697.5102	148.1489
697.6635	150.5778
697.8168	152.173
697.9702	144.3157
698.1235	147.1842
698.2768	135.5161
698.4301	146.7838
698.5833	150.586
698.7366	138.6854
698.8898	139.9473
699.0431	143.8801
699.1964	148.4605
699.3495	143.2789
699.5028	142.0134
699.656	138.9763
699.8092	143.081
699.9624	147.8347
700.1156	139.6861
700.2688	135.9319
700.4219	139.7238
700.5751	140.4814
700.7283	142.7147
700.8814	142.6574
701.0345	145.3765
701.1877	140.3402
701.3408	145.8452
701.4939	145.0728
701.647	138.1969
701.8001	138.9879
701.9532	142.6239
702.1063	143.5797
702.2593	135.6301
702.4124	138.4745
702.5654	143.9181
702.7184	143.8224
702.8715	138.505
703.0245	138.484
703.1776	141.3703
703.3305	150.8178
703.4835	145.0158
703.6365	140.6798
703.7895	140.293
703.9424	138.0044
704.0954	140.9698
704.2484	143.067
704.4013	145.577
704.5543	145.7425
704.7072	145.5608
704.8601	143.3481
705.013	147.7907
705.1659	145.8644
705.3188	138.9825
705.4717	138.2161
705.6246	144.4738
705.7774	148.1163
705.9303	145.096
706.0831	145.9364
706.236	140.4555
706.3888	140.3798
706.5416	149.1866
706.6944	141.5567
706.8472	140.4811
707	138.0047
707.1528	138.8432
707.3056	138.359
707.4583	144.8111
707.6111	144.4861
707.7639	149.1014
707.9166	140.5114
708.0693	143.1409
708.222	147.0603
708.3748	141.0809
708.5275	141.9405
708.6802	144.3304
708.8328	144.1474
708.9855	140.8223
709.1382	135.5631
709.2909	139.7821
709.4435	136.1325
709.5962	141.0945
709.7488	144.1153
709.9014	142.3961
710.054	139.5876
710.2067	139.7596
710.3593	142.2847
710.5118	140.0019
710.6644	138.9371
710.817	141.9372
710.9695	138.5232
711.1221	144.0278
711.2747	145.2893
711.4272	143.3817
711.5797	140.5161
711.7322	139.5846
711.8848	139.8542
712.0373	135.8548
712.1898	137.527
712.3422	135.7819
712.4948	137.8709
712.6472	140.4028
712.7996	137.6024
712.9521	133.5487
713.1046	139.6029
713.257	134.9695
713.4094	135.7757
713.5618	141.8822
713.7142	142.5337
713.8666	136.6276
714.019	138.5915
714.1714	135.1126
714.3237	137.4104
714.4761	134.6239
714.6285	127.8475
714.7808	134.0495
714.9331	131.8807
715.0854	130.7618
715.2378	132.036
715.3901	138.0684
715.5424	133.2995
715.6947	134.8813
715.8469	138.2398
715.9992	130.9588
716.1515	127.4283
716.3037	130.0418
716.456	121.5319
716.6082	120.575
716.7604	119.5575
716.9127	122.529
717.0649	117.706
717.2171	116.298
717.3693	117.266
717.5214	116.5816
717.6736	112.2463
717.8258	118.582
717.978	117.7607
718.1301	114.9893
718.2822	115.734
718.4344	113.3866
718.5865	105.4965
718.7386	105.0421
718.8907	105.9831
719.0428	111.821
719.1949	112.1698
719.3469	117.8687
719.499	118.3871
719.6511	113.8568
719.8031	110.9833
719.9551	115.1102
720.1072	109.0267
720.2592	111.8351
720.4112	116.3241
720.5632	114.5287
720.7152	112.5463
720.8672	118.0111
721.0192	118.0802
721.1711	127.8697
721.3231	127.4856
721.475	121.3908
721.627	130.5959
721.7789	129.9799
721.9308	125.1021
722.0828	126.2544
722.2347	129.3492
722.3866	124.9955
722.5385	126.1969
722.6903	125.2446
722.8422	124.7802
722.9941	120.6696
723.1459	115.8041
723.2977	110.2767
723.4496	111.316
723.6014	106.604
723.7532	107.4407
723.905	111.4361
724.0568	110.1982
724.2086	108.4486
724.3604	108.4221
724.5121	107.4253
724.6639	110.9769
724.8157	111.278
724.9674	111.9489
725.1191	113.5562
725.2709	109.2205
725.4226	107.9314
725.5743	108.0386
725.726	113.9069
725.8777	112.1076
726.0294	116.1805
726.181	119.1983
726.3327	110.6016
726.4844	111.2882
726.636	113.4997
726.7877	119.4959
726.9393	123.4472
727.0909	120.3633
727.2425	117.9921
727.3941	116.5533
727.5457	111.6706
727.6973	102.593
727.8488	105.8691
728.0004	110.899
728.1519	112.0357
728.3035	114.2689
728.455	116.8715
728.6066	121.5692
728.7581	116.5827
728.9095	110.1209
729.0611	105.5949
729.2126	106.2021
729.364	110.6049
729.5155	113.0408
729.667	118.0322
729.8184	116.123
729.9698	112.1187
730.1213	111.3272
730.2727	110.548
730.4241	107.331
730.5756	111.0253
730.7269	117.7209
730.8784	116.4174
731.0297	116.3347
731.1811	113.9245
731.3325	117.5314
731.4838	112.9729
731.6351	112.6858
731.7865	117.2087
731.9378	107.8507
732.0891	115.1117
732.2404	117.1995
732.3917	120.4021
732.543	116.4459
732.6943	116.1322
732.8456	118.6763
732.9968	119.9589
733.1481	107.0623
733.2993	115.2525
733.4506	117.9954
733.6018	117.636
733.753	117.1169
733.9042	121.1245
734.0554	116.8686
734.2066	121.1179
734.3578	118.8172
734.509	119.8238
734.6602	124.7836
734.8113	125.2853
734.9624	122.5072
735.1136	112.9683
735.2647	113.7222
735.4158	116.0752
735.5669	118.8528
735.718	120.7836
735.8691	121.2495
736.0201	117.868
736.1713	113.0655
736.3223	112.589
736.4733	114.7981
736.6244	115.8671
736.7755	117.0135
736.9265	114.8379
737.0775	116.4677
737.2285	114.057
737.3795	116.7281
737.5305	119.6685
737.6815	116.6404
737.8324	121.5471
737.9834	118.2422
738.1343	107.346
738.2853	106.0564
738.4362	113.3473
738.5871	115.7776
738.738	120.0926
738.8889	121.6345
739.0399	116.357
739.1907	116.5137
739.3416	116.9656
739.4925	116.3167
739.6433	113.708
739.7942	119.7589
739.945	117.421
740.0958	118.1906
740.2467	118.4884
740.3975	116.7263
740.5483	117.9457
740.6991	119.2051
740.8499	116.133
741.0007	109.9471
741.1514	106.411
741.3022	115.5794
741.4529	116.0814
741.6036	111.8206
741.7544	113.9118
741.9051	117.6886
742.0558	117.6642
742.2065	116.1922
742.3572	111.796
742.5079	111.3457
742.6586	115.079
742.8093	111.7551
742.9599	114.0096
743.1105	113.9238
743.2612	116.8696
743.4118	120.1682
743.5624	118.9484
743.7131	118.2842
743.8636	115.0822
744.0142	113.6798
744.1648	111.3474
744.3154	107.2358
744.4659	113.2386
744.6165	113.8757
744.767	111.9437
744.9176	110.984
745.0681	114.2073
745.2186	110.8077
745.3691	113.8367
745.5197	113.4728
745.6702	112.0787
745.8206	110.5748
745.9711	108.7363
746.1215	112.5303
746.272	111.1582
746.4224	111.2527
746.5729	110.6074
746.7233	110.3823
746.8737	112.9731
747.0241	110.5188
747.1745	115.8546
747.3249	114.6369
747.4753	111.1266
747.6257	113.2757
747.776	109.1084
747.9264	107.7002
748.0767	105.0909
748.2271	110.3551
748.3774	108.4916
748.5276	106.5415
748.678	113.8489
748.8282	109.3665
748.9786	108.226
749.1288	107.3971
749.2791	104.1304
749.4294	103.8838
749.5796	107.0924
749.7299	102.7478
749.8801	97.86077
750.0303	97.49
750.1805	104.2483
750.3307	104.1764
750.4809	105.6665
750.6311	103.8012
750.7813	107.8622
750.9314	110.8379
751.0816	106.4305
751.2318	107.0051
751.3818	104.5908
751.532	102.8465
751.6821	106.8739
751.8322	102.4161
751.9823	105.4371
752.1324	110.485
752.2825	101.2761
752.4326	98.46446
752.5826	104.2632
752.7327	102.093
752.8827	103.0005
753.0327	104.1642
753.1827	105.3653
753.3328	101.5187
753.4828	108.0023
753.6328	102.1051
753.7828	96.12309
753.9327	104.4339
754.0827	99.45892
754.2327	100.1211
754.3826	104.6944
754.5325	101.3231
754.6825	99.79246
754.8324	102.8171
754.9823	104.7132
755.1322	101.0118
755.2821	98.93608
755.432	95.12454
755.5818	95.47357
755.7318	91.65204
755.8816	97.79708
756.0314	94.69753
756.1813	99.19225
756.3311	97.68015
756.4809	97.92535
756.6307	99.86623
756.7805	98.21617
756.9303	97.73863
757.0801	92.89321
757.2299	96.02528
757.3796	88.88231
757.5294	92.50233
757.6791	95.94531
757.8289	92.5559
757.9786	92.46704
758.1283	90.48508
758.278	94.35756
758.4277	95.70719
758.5773	91.90791
758.7271	94.10932
758.8767	93.46342
759.0264	90.61681
759.176	92.52676
759.3256	83.72595
759.4753	69.25676
759.6249	59.58913
759.7745	54.46686
759.9241	53.13704
760.0737	44.18989
760.2233	43.65615
760.3729	35.77723
760.5224	32.58916
760.6719	36.60682
760.8215	41.86889
760.971	40.74989
761.1205	43.6243
761.2701	48.10051
761.4196	49.21501
761.5691	53.76832
761.7186	65.85616
761.868	72.3462
762.0175	64.00533
762.167	62.07161
762.3164	59.66759
762.4659	58.95093
762.6153	56.74919
762.7647	53.81375
762.9141	48.97662
763.0635	51.14457
763.2129	52.87661
763.3623	56.57755
763.5117	54.29927
763.661	55.88817
763.8104	59.64458
763.9597	56.36279
764.1091	56.80614
764.2584	55.76825
764.4077	60.4635
764.557	65.04575
764.7063	60.53405
764.8556	63.72885
765.0049	64.61719
765.1541	65.43919
765.3034	64.8526
765.4526	68.17491
765.6019	71.41427
765.7511	66.63522
765.9003	70.95441
766.0496	63.58558
766.1987	69.36615
766.348	71.97652
766.4971	71.49625
766.6463	68.30024
766.7955	73.89812
766.9446	74.63054
767.0938	76.54909
767.2429	77.756
767.392	76.94447
767.5411	73.31902
767.6902	73.48328
767.8394	72.50397
767.9884	76.70576
768.1375	78.66921
768.2866	76.01196
768.4356	81.96913
768.5847	85.75694
768.7337	81.94833
768.8828	78.38664
769.0317	82.5976
769.1808	79.32677
769.3298	83.42439
769.4788	80.36536
769.6277	79.44637
769.7767	78.75843
769.9257	79.67352
770.0746	80.37598
770.2236	74.23624
770.3725	74.76624
770.5214	81.2146
770.6703	80.0118
770.8193	83.82674
770.9681	83.81053
771.1171	74.43426
771.2659	79.60986
771.4148	76.54185
771.5637	80.58858
771.7125	78.52153
771.8613	73.06292
772.0101	75.47324
772.159	78.65701
772.3078	83.73561
772.4566	76.81671
772.6054	76.93718
772.7542	79.16415
772.903	75.47689
773.0517	76.58918
773.2004	78.88335
773.3492	76.86771
773.4979	77.88585
773.6467	78.61071
773.7953	82.36492
773.944	77.05262
774.0928	73.34747
774.2415	76.57357
774.3901	72.16113
774.5388	75.93476
774.6874	72.53986
774.8361	73.01276
774.9847	76.39176
775.1334	75.30087
775.282	75.7439
775.4305	73.60284
775.5792	74.2516
775.7277	73.03042
775.8763	69.20434
776.0249	68.1433
776.1735	70.89687
776.322	72.7068
776.4705	75.75375
776.6191	80.38794
776.7676	78.3962
776.9161	77.76768
777.0646	75.76521
777.2131	74.07311
777.3616	71.71388
777.5101	69.45325
777.6585	71.50467
777.8069	72.95374
777.9554	72.81302
778.1038	71.29893
778.2523	69.26901
778.4007	72.40773
778.5491	72.60606
778.6974	76.70364
778.8459	72.35754
778.9942	68.3498
779.1426	72.58878
779.291	72.02772
779.4393	76.34855
779.5876	72.95016
779.736	67.14417
779.8843	69.16944
780.0326	72.03649
780.1809	69.99952
780.3292	75.40386
780.4775	73.16295
780.6257	71.20253
780.774	73.15755
780.9222	69.93416
781.0704	71.13922
781.2187	71.80228
781.3669	68.95782
781.5151	67.563
781.6633	65.37464
781.8115	68.5248
781.9597	70.66533
782.1078	69.09271
782.256	70.23705
782.4042	74.40179
782.5523	68.37858
782.7004	67.41074
782.8486	67.80356
782.9967	67.24434
783.1448	65.58698
783.2929	70.38986
783.441	64.99422
783.5891	64.60629
783.7371	67.82961
783.8851	65.83492
784.0332	70.89676
784.1812	74.21002
784.3293	69.3205
784.4773	64.78847
784.6253	61.68604
784.7733	62.13076
784.9213	64.3156
785.0692	64.82233
785.2172	61.37369
785.3652	63.5635
785.5131	64.69946
785.6611	66.25381
785.809	66.68947
785.9569	66.32275
786.1048	66.64727
786.2527	64.75378
786.4006	66.6851
786.5485	71.17009
786.6964	69.88776
786.8442	68.67866
786.9921	65.61777
787.1399	68.661
787.2877	65.93654
787.4355	67.50695
787.5833	65.78722
787.7311	63.26803
787.8789	64.07304
788.0267	64.70186
788.1745	61.57616
788.3223	62.11219
788.47	64.70837
788.6177	67.26402
788.7654	65.93784
788.9132	65.75155
789.0609	61.19519
789.2086	64.12355
789.3563	65.58572
789.504	59.65926
789.6517	62.13749
789.7993	61.75227
789.947	60.09686
790.0946	62.085
790.2422	63.333
790.3898	62.10788
790.5375	71.83167
790.6851	65.77949
790.8326	61.65496
790.9802	64.98262
791.1278	66.15817
791.2754	60.45902
791.423	65.09296
791.5705	63.00694
791.718	59.52274
791.8655	57.46381
792.0131	56.24709
792.1606	58.38291
792.308	64.29588
792.4556	62.45926
792.603	60.86829
792.7505	56.45835
792.8979	53.73844
793.0454	57.69117
793.1928	59.58849
793.3403	63.48836
793.4877	57.28572
793.6351	51.67891
793.7825	52.44444
793.9299	60.84879
794.0772	61.21999
794.2246	62.2785
794.3719	58.96538
794.5193	61.09086
794.6666	58.65404
794.814	57.82169
794.9613	58.88201
795.1086	57.96632
795.2559	54.44723
795.4032	55.05863
795.5505	56.88836
795.6978	57.42624
795.845	61.06916
795.9922	56.35884
796.1395	56.20616
796.2867	52.06719
796.4339	58.16107
796.5811	57.08618
796.7283	56.13353
796.8755	58.10095
797.0227	60.49664
797.1699	61.32914
797.317	56.73001
797.4642	55.16417
797.6113	58.66549
797.7584	58.53251
797.9056	54.78938
798.0527	61.34787
798.1998	56.10238
798.3469	55.12372
798.494	53.1901
798.641	52.3745
798.7881	54.92148
798.9351	53.86023
799.0822	55.59671
799.2292	54.041
799.3762	50.2033
799.5232	55.93142
799.6702	54.20247
799.8172	51.95529
799.9642	49.68328
800.1111	54.74423
800.2581	58.27191
800.4051	53.24816
800.552	56.57591
800.6989	60.59109
800.8458	55.34015
800.9927	50.96529
801.1396	55.10825
801.2866	50.64938
801.4334	52.87418
801.5803	53.41381
801.7272	57.20427
801.874	58.94603
802.0209	57.78318
802.1677	54.33599
802.3145	48.47068
802.4613	50.31954
802.6081	55.78792
802.7549	55.81349
802.9017	54.94473
803.0485	47.18892
803.1952	52.75347
803.342	54.08876
803.4887	52.49169
803.6354	56.27746
803.7822	56.6031
803.9289	48.80585
804.0756	55.31612
804.2223	53.98481
804.369	50.49723
804.5156	57.39143
804.6623	52.40836
804.8089	53.56351
804.9556	59.19428
805.1022	51.47822
805.2488	49.76387
805.3954	52.96327
805.542	52.15316
805.6886	50.8756
805.8352	48.33674
805.9818	50.90609
806.1283	50.58941
806.2749	52.63277
806.4214	54.45472
806.5679	51.93659
806.7145	50.89613
806.861	52.91444
807.0074	54.77118
807.154	52.9627
807.3004	53.15253
807.4469	52.12107
807.5934	54.21563
807.7398	46.4866
807.8862	46.25733
808.0327	49.35716
808.1791	49.68533
808.3255	51.20931
808.4719	50.97893
808.6183	48.88636
808.7647	50.69867
808.9111	51.42126
809.0574	46.87355
809.2037	52.91528
809.3501	54.19291
809.4965	48.85088
809.6428	46.11901
809.7891	46.40945
809.9354	43.99745
810.0817	44.80862
810.2279	50.30062
810.3742	48.84293
810.5204	45.67788
810.6667	47.26098
810.8129	46.0768
810.9592	49.30095
811.1054	43.16357
811.2516	39.45217
811.3978	44.08872
811.5439	44.58915
811.6901	48.63762
811.8363	46.73352
811.9825	46.75893
812.1286	44.76187
812.2748	44.20413
812.4209	40.69292
812.567	39.18615
812.7131	43.98411
812.8592	43.41165
813.0053	38.55962
813.1514	42.71615
813.2974	46.26546
813.4435	42.8518
813.5895	39.49474
813.7356	43.8448
813.8816	41.69857
814.0276	41.26677
814.1736	39.2298
814.3196	39.27156
814.4656	39.6411
814.6116	42.21691
814.7576	39.11225
814.9035	36.29992
815.0494	37.75187
815.1954	36.64402
815.3413	37.33411
815.4872	39.47963
815.6331	38.61566
815.779	42.35331
815.9249	39.23036
816.0707	40.55172
816.2166	34.68071
816.3625	30.17287
816.5083	31.5657
816.6542	36.83102
816.8	34.65586
816.9458	37.24123
817.0916	35.90849
817.2374	36.19117
817.3832	38.45073
817.5289	45.87008
817.6747	40.19653
817.8204	38.76921
817.9662	34.29376
818.1119	35.44387
818.2576	35.76077
818.4034	36.53734
818.5491	38.42578
818.6948	39.41903
818.8405	39.47756
818.9861	37.03828
819.1318	39.93392
819.2774	38.3646
819.423	35.47243
819.5687	33.95577
819.7143	38.77804
819.8599	36.51372
820.0055	34.81025
820.1511	36.12469
820.2967	36.29602
820.4422	44.70012
820.5878	44.37402
820.7333	36.37551
820.8788	38.22175
821.0244	37.68079
821.1699	39.2519
821.3154	38.4198
821.4609	39.32935
821.6064	35.77851
821.7519	35.64729
821.8973	36.20728
822.0428	37.37373
822.1882	37.39957
822.3337	38.30238
822.4791	36.82721
822.6245	36.38575
822.7699	33.39029
822.9153	30.85822
823.0607	35.47681
823.2061	33.12346
823.3514	27.66285
823.4968	24.93104
823.6422	33.03802
823.7875	37.29531
823.9328	40.5876
824.0781	33.32262
824.2234	35.16515
824.3687	38.59227
824.514	31.39347
824.6592	37.3963
824.8045	37.99771
824.9498	38.62432
825.095	38.64335
825.2402	39.55511
825.3854	35.9098
825.5306	33.65096
825.6758	35.01272
825.821	29.49402
825.9662	34.41346
826.1114	36.89015
826.2565	37.04596
826.4017	34.16786
826.5468	36.64367
826.692	37.32475
826.837	34.78741
826.9822	42.94796
827.1273	43.95233
827.2723	36.38809
827.4174	36.92019
827.5625	34.69389
827.7075	37.51522
827.8526	37.35738
827.9976	35.74699
828.1426	34.49623
828.2877	32.43526
828.4327	38.09238
828.5776	39.71471
828.7227	34.92729
828.8676	28.56939
829.0126	30.78017
829.1575	33.22725
829.3024	32.20581
829.4474	34.49977
829.5923	34.28113
829.7372	33.45734
829.8821	37.2882
830.027	38.36542
830.1719	29.75142
830.3168	36.79699
830.4616	27.40488
830.6064	34.61674
830.7513	32.39605
830.8961	33.65416
831.041	33.86206
831.1857	38.67011
831.3306	39.1658
831.4753	36.19532
831.6201	36.53445
831.7649	37.6216
831.9096	33.25376
832.0544	27.73496
832.1991	31.57643
832.3438	32.04488
832.4885	34.5582
832.6332	34.13476
832.778	32.99306
832.9226	31.5227
833.0673	30.30429
833.2119	34.08163
833.3566	39.58274
833.5012	31.95551
833.6459	32.56996
833.7905	35.34169
833.9351	35.52772
834.0797	29.5265
834.2243	30.82404
834.3688	32.02378
834.5134	37.76555
834.658	38.55372
834.8026	40.66032
834.9471	36.09222
835.0916	34.7819
835.2361	33.47021
835.3806	31.57999
835.5251	33.83152
835.6696	30.94976
835.8141	33.70654
835.9586	36.04244
836.103	33.95263
836.2474	31.61611
836.3918	33.17158
836.5363	34.27858
836.6807	33.20652
836.8251	33.7993
836.9695	40.40629
837.1138	33.30405
837.2582	34.57021
837.4026	32.25336
837.5469	34.33648
837.6913	31.98152
837.8356	33.61207
837.9799	36.12112
838.1242	36.05387
838.2686	30.75678
838.4128	32.88944
838.5571	32.89484
838.7014	25.76241
838.8456	30.1356
838.9899	30.20123
839.1341	37.54841
839.2783	33.90976
839.4225	28.71113
839.5667	29.26387
839.7109	35.27041
839.8551	34.06148
839.9993	33.7181
840.1434	30.58754
840.2876	28.32129
840.4317	28.19395
840.5759	34.929
840.72	36.75605
840.8641	34.0422
841.0082	34.38862
841.1523	34.13974
841.2963	32.32414
841.4404	28.88877
841.5845	29.48269
841.7285	35.88148
841.8726	33.06194
842.0165	28.81664
842.1606	27.92166
842.3046	31.67641
842.4485	32.19524
842.5925	31.15501
842.7365	34.17042
842.8805	34.00523
843.0244	36.35524
843.1684	34.87226
843.3123	27.81251
843.4562	28.38985
843.6002	28.98457
843.744	34.54992
843.8879	29.48242
844.0318	30.25009
844.1757	33.27174
844.3195	32.572
844.4634	29.76335
844.6072	30.22743
844.751	35.00429
844.8948	32.10534
845.0386	31.8942
845.1824	31.71127
845.3262	34.58484
845.47	33.51086
845.6138	33.88067
845.7575	32.14755
845.9012	36.28267
846.045	30.82511
846.1887	27.3595
846.3324	32.70781
846.4761	32.95407
846.6198	32.49739
846.7635	33.32236
846.9071	29.19016
847.0508	26.1044
847.1944	29.76299
847.3381	33.34682
847.4817	34.90794
847.6253	36.00978
847.7689	28.69438
847.9125	28.95247
848.0561	32.97185
848.1996	31.58008
848.3432	25.29902
848.4868	28.61578
848.6303	34.49101
848.7738	29.75236
848.9174	30.17402
849.0609	34.47517
849.2043	33.22692
849.3478	36.23198
849.4913	31.05391
849.6348	30.632
849.7782	28.08487
849.9217	30.12381
850.0651	30.783
850.2086	24.92613
850.3519	27.59344
850.4954	29.92457
850.6387	26.3806
850.7821	29.47744
850.9255	33.49076
851.0688	28.35019
851.2122	27.94113
851.3555	32.87671
851.4988	33.69228
851.6422	29.87101
851.7855	26.27283
851.9288	27.81586
852.0721	29.39207
852.2153	27.77137
852.3586	27.53786
852.5018	28.1562
852.6451	30.90893
852.7883	27.09147
852.9315	24.07727
853.0748	32.48008
853.218	28.76054
853.3611	30.85705
853.5043	29.93266
853.6475	28.32199
853.7906	29.01789
853.9338	25.18974
854.0769	24.9323
854.22	25.96759
854.3632	22.4567
854.5063	25.00385
854.6494	28.32771
854.7924	30.37721
854.9355	29.07593
855.0786	28.96102
855.2216	31.21564
855.3647	30.18363
855.5077	27.98153
855.6507	30.69784
855.7937	32.89776
855.9367	31.24728
856.0797	26.22519
856.2227	24.35414
856.3657	27.98044
856.5086	23.17509
856.6516	27.63599
856.7945	29.31172
856.9374	27.72308
857.0803	27.86923
857.2232	31.76983
857.3661	28.18584
857.509	21.91454
857.6519	31.41497
857.7947	28.87622
857.9376	28.09249
858.0804	33.18307
858.2232	27.12857
858.366	27.96354
858.5089	29.49087
858.6516	31.63814
858.7944	28.91694
858.9372	25.81724
859.08	24.94896
859.2227	24.40655
859.3654	32.33809
859.5082	28.54023
859.6509	25.24632
859.7936	27.85399
859.9363	30.5248
860.079	28.8325
860.2217	30.67201
860.3643	28.0809
860.507	32.72407
860.6496	30.62904
860.7922	29.95706
860.9349	26.32428
861.0775	27.92992
861.2201	29.3124
861.3627	29.48336
861.5052	24.85256
861.6478	26.81406
861.7904	24.71134
861.9329	24.35843
862.0755	21.76515
862.218	28.87659
862.3605	25.21776
862.503	26.61255
862.6455	27.27396
862.788	25.34586
862.9305	24.47501
863.0729	24.66398
863.2154	27.27154
863.3578	24.77551
863.5002	28.18866
863.6426	28.1947
863.7851	26.8319
863.9275	25.60738
864.0698	27.06978
864.2122	25.58928
864.3546	27.00294
864.4969	26.91049
864.6393	21.70501
864.7816	24.28109
864.924	22.93757
865.0662	26.11102
865.2086	26.90629
865.3508	26.05301
865.4931	23.01632
865.6354	23.21762
865.7776	23.2195
865.9199	21.77356
866.0621	22.18206
866.2043	22.95827
866.3466	24.01417
866.4888	25.06797
866.6309	22.44868
866.7731	24.43101
866.9153	24.14918
867.0574	23.20252
867.1996	24.48725
867.3417	28.25799
867.4839	27.11118
867.626	21.47136
867.7681	25.10746
867.9102	27.58491
868.0522	26.85615
868.1943	25.76274
868.3364	25.55134
868.4785	28.70338
868.6205	26.93755
868.7625	27.53821
868.9045	25.25995
869.0465	23.98297
869.1885	26.7797
869.3305	25.06285
869.4725	22.33395
869.6144	21.14248
869.7564	26.62414
869.8983	22.06472
870.0403	24.25293
870.1822	23.64783
870.3241	17.52979
870.466	23.28475
870.6079	23.21774
870.7498	30.01962
870.8916	26.82406
871.0335	30.59444
871.1754	20.41854
871.3171	19.86522
871.459	22.87808
871.6008	24.5061
871.7426	26.47803
871.8844	24.79436
872.0262	22.25464
872.1679	26.27516
872.3097	24.70854
872.4514	18.72322
872.5931	21.15426
872.7349	20.34611
872.8766	20.49789
873.0183	21.67566
873.16	22.76258
873.3017	19.48137
873.4434	19.50706
873.585	19.59024
873.7266	21.71871
873.8683	23.58639
874.0099	20.47846
874.1516	19.92631
874.2932	19.01
874.4348	23.7503
874.5763	23.91892
874.7179	20.6376
874.8594	19.98964
875.001	23.59736
875.1425	24.31964
875.2841	25.89512
875.4256	21.3011
875.5671	25.05698
875.7086	22.62282
875.85	22.61161
875.9915	20.33769
876.133	18.78631
876.2744	20.74408
876.4159	22.76952
876.5573	26.52752
876.6987	25.09121
876.8401	22.513
876.9815	20.84584
877.1229	21.74316
877.2643	21.02984
877.4056	20.70426
877.547	27.28014
877.6884	17.42568
877.8297	18.34207
877.971	20.47333
878.1123	21.42755
878.2536	20.75288
878.3949	20.04018
878.5362	25.44143
878.6774	23.42022
878.8187	22.98291
878.9599	23.9405
879.1011	18.86463
879.2424	24.2547
879.3836	22.46497
879.5248	21.1092
879.666	21.0945
879.8071	20.60441
879.9483	23.51401
880.0895	21.977
880.2306	21.72957
880.3718	23.55401
880.5129	21.08762
880.654	22.69738
880.7951	20.29799
880.9362	21.50556
881.0773	17.17193
881.2183	18.39127
881.3594	21.57606
881.5004	21.77946
881.6414	21.07992
881.7825	18.56662
881.9235	21.70614
882.0645	23.32892
882.2054	20.9247
882.3464	24.93603
882.4874	23.63417
882.6284	19.98977
882.7693	24.33387
882.9103	22.55169
883.0512	23.24697
883.1921	22.52104
883.333	20.19919
883.4739	19.69489
883.6147	21.699
883.7556	23.83975
883.8965	17.64863
884.0374	20.06802
884.1782	23.90222
884.319	15.23225
884.4598	18.19071
884.6006	20.28634
884.7414	20.6008
884.8822	17.9639
885.0229	15.72264
885.1637	21.16365
885.3044	23.13023
885.4452	21.10665
885.5859	18.51923
885.7266	16.23209
885.8673	18.15633
886.008	20.83275
886.1487	17.66039
886.2894	16.88025
886.43	16.87774
886.5707	17.87898
886.7113	23.22588
886.8519	24.63348
886.9926	17.18381
887.1331	20.79949
887.2737	19.07831
887.4143	22.36117
887.5549	21.62414
887.6954	20.67352
887.836	21.26312
887.9765	17.66634
888.1171	19.14152
888.2576	19.49404
888.3981	20.45371
888.5386	21.79649
888.679	19.91879
888.8195	18.07384
888.96	19.88514
889.1004	18.75226
889.2408	19.76412
889.3813	21.06376
889.5217	22.32552
889.6621	21.7952
889.8025	22.57495
889.9429	22.47538
890.0833	21.66862
890.2236	21.30184
890.364	19.41878
890.5043	22.29884
890.6446	20.1509
890.7849	19.30265
890.9252	18.47998
891.0655	16.46058
891.2058	15.83588
891.3461	15.90751
891.4863	20.1097
891.6266	24.68731
891.7668	22.6978
891.907	21.74705
892.0472	18.87697
892.1874	23.90595
892.3276	18.11906
892.4678	15.60088
892.608	14.74212
892.7481	16.47621
892.8883	19.10418
893.0284	19.66838
893.1685	15.95979
893.3087	14.35393
893.4487	15.9659
893.5889	21.65949
893.7289	18.08124
893.869	16.28799
894.009	20.95861
894.1491	16.4297
894.2891	21.96881
894.4291	20.63263
894.5692	15.56101
894.7092	17.14202
894.8491	14.56846
894.9891	23.925
895.1291	17.82913
895.269	14.58289
895.409	14.16281
895.549	16.57588
895.6888	14.16342
895.8288	17.41961
895.9687	19.3934
896.1086	19.22129
896.2484	13.34311
896.3883	17.22769
896.5281	15.81289
896.668	8.920048
896.8079	14.07841
896.9476	13.74811
897.0875	16.81873
897.2272	15.93551
897.3671	15.65615
897.5068	16.57733
897.6466	21.76918
897.7864	15.71856
897.9261	16.1287
898.0658	15.96981
898.2056	17.28658
898.3453	20.33898
898.4849	13.8893
898.6246	11.64997
898.7643	12.49292
898.904	15.25497
899.0436	16.35786
899.1833	13.09406
899.3229	12.68629
899.4625	13.99594
899.6021	16.32186
899.7417	17.15898
899.8813	18.71063
900.0209	17.32414
900.1605	17.20471
900.3	17.50114
900.4395	17.25222
900.579	17.22355
900.7186	18.78223
900.8581	13.86872
900.9976	8.952079
901.1371	14.97208
901.2766	13.67038
901.416	12.72775
901.5555	13.47436
901.6949	18.93327
901.8344	17.15651
901.9738	14.32023
902.1132	15.49377
902.2526	17.54411
902.3919	14.07257
902.5313	15.10567
902.6707	14.9075
