SPECTRUM DATA FILE
SpectrumCount:	1
PixelCount:	3648
UserName:	ToughBook User
SampleName:	
LightSource:	
Comments:	
DeviceName:	Qwave
DeviceManufacturer:	Broadcom
DeviceSerialNo:	11311

Name:	last spectrum
Date:	2024-05-02T14:50:01.3063195+02:00
ExposureTime:	0.02
TemporalAvg:	1
IntensityUnit:	normalizedCounts
CCDLoadLevel:	0.06230092
Temperature:	32.47928
DiagramColor:	200
ProcessingSteps:	335

Wavelength [nm]	Intensity1
334.421	24.31207
334.5891	26.83232
334.7573	26.14625
334.9254	24.57983
335.0935	27.44088
335.2616	26.63979
335.4297	29.67584
335.5978	26.54656
335.7659	21.83908
335.934	22.32586
336.1021	29.94148
336.2701	31.77866
336.4382	31.31988
336.6063	24.72661
336.7744	26.93248
336.9424	31.17297
337.1105	26.10361
337.2785	23.23179
337.4466	23.42705
337.6146	25.72209
337.7827	24.53872
337.9507	26.69958
338.1187	29.43153
338.2867	26.3273
338.4548	25.64587
338.6228	24.94119
338.7908	26.93555
338.9588	24.79312
339.1268	23.84892
339.2948	20.5836
339.4628	27.12666
339.6308	24.72561
339.7988	24.12665
339.9667	31.38273
340.1347	27.02401
340.3027	29.17933
340.4707	24.53938
340.6386	32.08207
340.8066	26.51196
340.9745	25.51001
341.1425	20.17998
341.3104	23.50213
341.4784	25.2576
341.6463	26.59342
341.8142	28.27752
341.9821	29.55295
342.1501	27.00403
342.318	31.48195
342.4859	28.38951
342.6538	25.15586
342.8217	24.72359
342.9896	31.2635
343.1575	26.80616
343.3254	27.73536
343.4933	28.34344
343.6612	27.1288
343.829	27.075
343.9969	23.87013
344.1648	25.68166
344.3326	25.38924
344.5005	29.66788
344.6683	29.72545
344.8362	28.44958
345.004	28.19451
345.1719	26.69962
345.3397	27.32343
345.5075	26.10037
345.6754	28.95561
345.8432	24.0748
346.011	25.55576
346.1788	32.05268
346.3466	31.23444
346.5144	29.69226
346.6822	27.23005
346.85	26.32361
347.0178	27.37971
347.1856	26.23919
347.3534	23.18601
347.5211	30.09705
347.6889	26.34509
347.8567	24.9426
348.0244	24.76006
348.1922	25.01209
348.3599	24.11711
348.5277	25.97215
348.6954	23.22308
348.8632	27.05981
349.0309	31.02099
349.1986	27.92749
349.3663	25.53371
349.5341	30.15734
349.7018	32.05093
349.8695	27.04091
350.0372	28.54617
350.2049	29.86009
350.3726	26.87465
350.5403	25.48055
350.7079	26.1333
350.8756	26.36897
351.0433	32.1818
351.211	25.0751
351.3786	30.39488
351.5463	31.12123
351.714	27.32311
351.8816	26.56426
352.0493	26.33568
352.2169	30.50835
352.3846	30.22444
352.5522	25.28636
352.7198	27.81603
352.8875	30.84152
353.0551	31.8115
353.2227	32.28306
353.3903	36.85221
353.5579	35.87305
353.7255	34.47926
353.8931	27.08498
354.0607	29.03134
354.2283	35.74672
354.3958	35.19273
354.5634	33.21457
354.731	32.79588
354.8986	33.45123
355.0661	31.56249
355.2337	32.54692
355.4012	31.25449
355.5688	32.10742
355.7363	34.49576
355.9039	33.59047
356.0714	35.57584
356.239	36.41737
356.4065	31.81915
356.574	31.9872
356.7415	31.24018
356.909	32.04971
357.0765	34.11653
357.244	31.7735
357.4115	33.05008
357.579	32.37342
357.7465	31.17967
357.914	25.89687
358.0815	28.24966
358.249	30.35328
358.4164	33.73266
358.5839	34.93467
358.7513	29.73213
358.9188	29.87966
359.0862	30.6122
359.2537	32.79604
359.4211	33.08872
359.5886	36.22802
359.756	33.02338
359.9234	36.16637
360.0909	36.79638
360.2583	34.36964
360.4257	35.03886
360.5931	26.84546
360.7605	30.9321
360.9279	30.74091
361.0953	30.99005
361.2627	31.05058
361.4301	33.89326
361.5974	37.21976
361.7648	34.55493
361.9322	36.68018
362.0995	34.91202
362.2669	34.20977
362.4343	39.46726
362.6016	37.87118
362.769	38.10302
362.9363	37.93571
363.1036	35.34506
363.271	37.98911
363.4383	37.03608
363.6056	36.55745
363.7729	38.89
363.9402	39.63465
364.1075	35.94593
364.2748	38.99212
364.4421	41.093
364.6094	40.19269
364.7767	40.53899
364.944	33.129
365.1113	40.17985
365.2786	37.9428
365.4458	42.42647
365.6131	40.38282
365.7803	40.17015
365.9476	37.16058
366.1148	41.99623
366.2821	38.91468
366.4493	42.3571
366.6166	39.15553
366.7838	44.25108
366.951	39.1442
367.1182	39.66845
367.2855	39.79284
367.4527	37.17559
367.6199	34.85306
367.7871	37.26214
367.9543	36.59306
368.1215	37.02438
368.2886	34.85004
368.4558	35.06874
368.623	34.06224
368.7902	34.60546
368.9573	40.34663
369.1245	41.90444
369.2917	34.71586
369.4588	38.26093
369.6259	38.03588
369.7931	43.05863
369.9602	43.70705
370.1274	35.94714
370.2945	34.60623
370.4616	34.49188
370.6287	38.2827
370.7958	34.30453
370.963	43.51635
371.1301	41.05534
371.2971	43.48636
371.4643	41.79347
371.6313	41.78983
371.7984	38.73371
371.9655	39.28399
372.1326	41.56041
372.2997	49.20288
372.4667	41.31361
372.6338	37.08047
372.8008	44.57423
372.9679	41.867
373.1349	45.11293
373.3019	41.93461
373.469	46.91738
373.636	43.48459
373.803	41.34548
373.9701	40.15222
374.1371	43.72115
374.3041	42.61332
374.4711	38.1341
374.6381	39.01701
374.8051	40.63928
374.9721	45.61269
375.1391	41.48928
375.3061	46.08587
375.473	47.82529
375.64	45.78687
375.8069	42.45568
375.9739	43.24294
376.1409	44.85263
376.3078	45.34751
376.4748	45.19387
376.6417	43.2996
376.8087	40.86992
376.9756	43.51547
377.1425	48.70021
377.3094	46.89108
377.4763	47.19719
377.6432	49.58646
377.8102	51.19589
377.9771	53.02752
378.144	52.30491
378.3109	49.53545
378.4777	48.30517
378.6446	47.48111
378.8115	47.03577
378.9784	44.32121
379.1452	40.05821
379.3121	36.70369
379.4789	37.66541
379.6458	41.4606
379.8127	43.53293
379.9795	44.68398
380.1463	47.72765
380.3131	47.70589
380.48	46.83914
380.6468	40.74796
380.8136	39.26313
380.9804	44.28723
381.1472	42.72894
381.314	41.67082
381.4808	38.67572
381.6476	46.93805
381.8144	40.83572
381.9812	42.36545
382.148	40.76667
382.3147	39.9987
382.4815	43.96482
382.6483	38.11155
382.815	35.14492
382.9818	42.34108
383.1485	39.08789
383.3153	40.03954
383.482	38.70925
383.6487	46.306
383.8155	42.27646
383.9822	38.70013
384.1489	42.82272
384.3156	41.50525
384.4823	48.98392
384.649	54.4744
384.8157	49.25928
384.9824	46.65734
385.1491	52.85846
385.3158	50.75842
385.4825	49.69591
385.6491	46.70794
385.8158	52.47308
385.9825	56.47952
386.1491	53.73971
386.3157	47.02644
386.4824	58.54676
386.649	50.66705
386.8157	43.60281
386.9823	42.72593
387.1489	52.72887
387.3156	48.21075
387.4821	51.4705
387.6488	50.24977
387.8154	50.88
387.982	51.2626
388.1486	49.05886
388.3152	41.75964
388.4818	50.99216
388.6483	52.36768
388.8149	49.1839
388.9815	46.70155
389.148	49.15579
389.3146	48.16153
389.4811	52.18589
389.6477	55.44632
389.8142	55.27605
389.9808	51.01505
390.1473	54.38056
390.3138	50.30663
390.4804	57.35592
390.6469	50.28445
390.8134	50.36739
390.9799	49.75252
391.1464	56.09016
391.3129	56.54409
391.4794	55.94853
391.6459	56.18703
391.8124	57.96689
391.9789	58.27203
392.1453	50.92566
392.3118	54.25576
392.4782	55.2168
392.6447	55.01632
392.8112	52.2151
392.9776	44.52169
393.144	44.05127
393.3105	44.32721
393.4769	39.00673
393.6433	39.34989
393.8098	42.50301
393.9762	49.35604
394.1426	54.44956
394.309	53.44344
394.4754	54.4152
394.6418	57.59399
394.8082	58.39877
394.9746	61.24631
395.141	60.64299
395.3073	65.86919
395.4737	60.68883
395.64	58.37272
395.8064	59.43295
395.9728	57.49654
396.1391	58.38622
396.3055	57.86043
396.4718	49.49236
396.6381	51.40804
396.8045	48.65094
396.9708	48.97052
397.1371	46.58136
397.3034	53.57492
397.4697	55.43818
397.636	59.08982
397.8023	65.19528
397.9686	69.58636
398.1349	71.18045
398.3012	76.71625
398.4675	76.58057
398.6337	68.25021
398.8	68.57944
398.9662	74.46157
399.1325	74.25903
399.2988	67.62478
399.465	69.36595
399.6313	69.476
399.7975	65.98939
399.9637	66.36403
400.1299	74.14128
400.2961	75.05587
400.4624	71.07362
400.6286	69.68845
400.7948	72.40594
400.961	74.93696
401.1272	73.50538
401.2934	76.95607
401.4595	74.47968
401.6257	74.93671
401.7919	70.42342
401.9581	80.60265
402.1242	85.54445
402.2904	82.51655
402.4565	76.40765
402.6227	78.96249
402.7888	80.71662
402.955	71.09052
403.1211	72.11085
403.2872	74.10527
403.4533	75.22963
403.6194	77.51301
403.7856	79.57858
403.9517	80.61493
404.1177	77.27112
404.2838	72.97599
404.4499	74.4823
404.616	71.64542
404.7821	78.82301
404.9482	75.57232
405.1142	78.96851
405.2803	78.34206
405.4464	73.40971
405.6124	71.88599
405.7784	72.01312
405.9445	73.7597
406.1105	73.59219
406.2766	75.6001
406.4426	76.71837
406.6086	83.80519
406.7746	83.57721
406.9406	72.89014
407.1066	74.38651
407.2726	87.02642
407.4386	85.0183
407.6046	79.25972
407.7706	81.15514
407.9366	82.2421
408.1025	87.23482
408.2685	91.43874
408.4344	88.35456
408.6004	84.56351
408.7664	91.89207
408.9323	92.28478
409.0983	88.23152
409.2642	85.45668
409.4301	87.45801
409.596	83.7174
409.762	83.039
409.9279	77.78687
410.0938	78.782
410.2597	83.47066
410.4256	83.41857
410.5915	84.64365
410.7574	83.88983
410.9232	89.91034
411.0891	94.85479
411.255	87.69002
411.4209	97.86202
411.5867	91.92399
411.7526	86.84861
411.9184	94.73971
412.0843	90.81152
412.2501	96.94668
412.4159	96.16204
412.5818	86.32418
412.7476	91.04034
412.9134	88.70573
413.0792	86.67673
413.245	89.58191
413.4108	89.84099
413.5766	89.73738
413.7424	95.52905
413.9082	99.95746
414.074	92.83847
414.2397	93.81854
414.4055	90.36138
414.5713	95.92465
414.737	94.03545
414.9028	89.10857
415.0685	92.23238
415.2343	91.11211
415.4	90.62918
415.5658	87.11015
415.7315	85.43789
415.8972	89.72749
416.0629	88.72462
416.2286	94.68155
416.3943	98.90421
416.56	99.60973
416.7257	89.1302
416.8914	92.96402
417.0571	91.5645
417.2228	90.30302
417.3884	88.85988
417.5541	90.26669
417.7198	88.84946
417.8854	91.30347
418.0511	95.72763
418.2167	93.43385
418.3824	96.98228
418.548	91.69103
418.7136	90.58497
418.8792	91.98345
419.0449	91.54259
419.2105	94.12779
419.3761	98.63631
419.5417	98.03787
419.7073	95.9835
419.8729	93.00402
420.0385	88.2869
420.204	97.16641
420.3696	101.1228
420.5352	98.16881
420.7007	99.41771
420.8663	102.0724
421.0319	108.8294
421.1974	101.415
421.3629	104.8695
421.5285	105.4319
421.694	99.57541
421.8595	103.377
422.0251	102.9572
422.1906	102.6025
422.3561	97.2515
422.5216	92.16927
422.6871	89.24135
422.8526	98.55582
423.0181	103.1979
423.1835	113.9098
423.349	111.9729
423.5145	109.6759
423.68	100.8732
423.8454	97.62074
424.0109	106.8685
424.1763	100.4239
424.3418	107.3581
424.5072	109.0738
424.6726	104.5774
424.838	102.7254
425.0035	101.3705
425.1689	107.7086
425.3343	110.9464
425.4997	112.8949
425.6651	106.4232
425.8305	103.7734
425.9959	99.56337
426.1613	103.3091
426.3267	108.3057
426.492	117.5144
426.6574	109.4326
426.8228	108.3771
426.9881	99.41235
427.1534	96.43723
427.3188	94.70502
427.4841	102.4082
427.6495	110.6779
427.8148	110.7835
427.9801	106.2951
428.1454	104.6084
428.3107	105.7761
428.476	107.1733
428.6414	105.101
428.8066	102.5202
428.9719	105.3215
429.1372	108.3785
429.3025	100.8793
429.4678	105.0763
429.633	100.1368
429.7983	94.58012
429.9636	92.11887
430.1288	95.55905
430.294	92.81302
430.4593	90.75375
430.6245	84.01525
430.7897	85.89627
430.955	90.23856
431.1202	93.39669
431.2854	99.96508
431.4506	108.8079
431.6158	120.6231
431.781	124.5997
431.9462	121.8922
432.1114	116.0257
432.2766	110.4683
432.4417	106.7915
432.6069	104.1395
432.772	105.5766
432.9372	116.3165
433.1024	123.9252
433.2675	125.7652
433.4326	118.9885
433.5977	119.883
433.7629	110.8786
433.928	103.5118
434.0931	101.5634
434.2582	102.3201
434.4233	109.7343
434.5884	121.3162
434.7535	115.3208
434.9186	112.2024
435.0837	123.6693
435.2488	115.5895
435.4138	114.1849
435.5789	123.0719
435.744	123.9589
435.909	123.5499
436.0741	122.5335
436.2391	133.8585
436.4042	128.9505
436.5692	125.4784
436.7342	127.3588
436.8992	124.6662
437.0643	127.6202
437.2293	130.142
437.3943	122.7262
437.5593	122.9553
437.7243	121.5092
437.8893	127.7549
438.0542	132.9841
438.2192	124.2087
438.3842	117.9915
438.5491	118.3246
438.7141	117.4646
438.8791	122.7016
439.044	125.5623
439.209	122.2695
439.3739	125.2102
439.5388	128.8789
439.7037	131.0666
439.8687	126.4147
440.0336	134.589
440.1985	136.3989
440.3634	129.9879
440.5283	125.9052
440.6932	124.1023
440.8581	131.701
441.0229	142.8809
441.1878	140.8652
441.3527	141.1008
441.5175	136.4763
441.6824	134.3094
441.8472	138.934
442.0121	144.7243
442.1769	144.8975
442.3418	140.3577
442.5066	145.0155
442.6714	146.5304
442.8362	143.6262
443.001	131.0003
443.1659	136.4568
443.3307	136.4397
443.4955	137.4899
443.6602	137.5922
443.825	142.1298
443.9898	143.2052
444.1546	143.7436
444.3193	143.1315
444.4841	143.7506
444.6488	141.8773
444.8136	143.9441
444.9783	141.3893
445.1431	143.3875
445.3078	144.3102
445.4725	137.703
445.6372	130.5898
445.802	125.6067
445.9667	136.4551
446.1314	137.669
446.2961	136.2495
446.4608	139.5427
446.6255	138.0944
446.7901	142.2567
446.9548	142.0488
447.1195	139.9857
447.2841	151.3196
447.4488	148.0329
447.6134	144.6299
447.7781	145.2664
447.9427	143.5673
448.1074	144.6547
448.272	142.7579
448.4366	142.153
448.6012	153.4499
448.7658	153.3212
448.9305	147.3622
449.095	147.1917
449.2596	151.2751
449.4242	142.1045
449.5888	145.3106
449.7534	146.7626
449.9179	145.2018
450.0825	152.0048
450.2471	147.9094
450.4116	156.8669
450.5762	164.8039
450.7407	160.2126
450.9052	153.7159
451.0698	161.2279
451.2343	160.8078
451.3988	155.9185
451.5633	158.0773
451.7278	156.5652
451.8923	159
452.0568	162.3416
452.2213	154.2801
452.3858	150.7774
452.5503	159.1851
452.7148	159.1761
452.8792	146.5352
453.0437	143.0892
453.2081	150.1374
453.3726	154.1548
453.537	154.7599
453.7015	159.3374
453.8659	161.8827
454.0303	161.9813
454.1947	165.0466
454.3592	170.8763
454.5236	163.6944
454.688	166.9224
454.8524	161.4867
455.0168	161.8218
455.1811	159.4616
455.3455	163.3078
455.5099	159.2178
455.6743	164.3784
455.8386	168.5406
456.003	169.2935
456.1673	170.5782
456.3317	165.985
456.496	161.0879
456.6603	169.0508
456.8246	173.621
456.989	174.9772
457.1533	177.3925
457.3176	168.2548
457.4819	167.9489
457.6462	171.1337
457.8105	168.2837
457.9748	164.5606
458.1391	163.4445
458.3033	162.6626
458.4676	163.9928
458.6319	163.8823
458.7961	168.7504
458.9604	167.8662
459.1246	167.5611
459.2888	173.3724
459.4531	162.6012
459.6173	160.248
459.7815	160.9065
459.9457	167.4916
460.11	174.5228
460.2741	166.5078
460.4384	164.5538
460.6025	166.4072
460.7667	172.945
460.9309	170.6334
461.0951	173.4827
461.2592	170.8759
461.4234	167.0074
461.5876	171.9166
461.7517	167.8344
461.9159	171.6784
462.08	174.3018
462.2441	175.7497
462.4082	177.6134
462.5724	179.7126
462.7365	167.5424
462.9006	167.7507
463.0647	173.6844
463.2288	169.048
463.3929	166.92
463.557	171.4402
463.721	175.1998
463.8851	170.5008
464.0492	172.5783
464.2132	168.2889
464.3773	172.391
464.5414	166.5798
464.7054	158.4479
464.8694	165.0021
465.0334	161.3675
465.1975	166.1169
465.3615	178.7771
465.5255	173.4309
465.6895	167.5652
465.8535	180.0803
466.0175	177.8876
466.1815	176.8993
466.3455	164.6697
466.5095	167.7007
466.6734	165.2236
466.8374	161.998
467.0014	161.8849
467.1653	170.1637
467.3293	170.3266
467.4932	175.6981
467.6571	177.8802
467.8211	176.5894
467.985	173.0235
468.1489	176.1247
468.3128	173.0305
468.4767	172.8554
468.6406	172.7007
468.8045	174.8252
468.9684	172.3716
469.1323	180.8362
469.2962	178.9438
469.46	184.3682
469.6239	187.3698
469.7878	184.7455
469.9516	180.4276
470.1154	175.6512
470.2793	172.863
470.4431	175.4164
470.607	174.7703
470.7708	176.4099
470.9346	184.1979
471.0984	177.308
471.2622	174.3961
471.426	172.2233
471.5898	180.1718
471.7536	182.4449
471.9174	182.1413
472.0811	185.5829
472.2449	187.3901
472.4087	189.0433
472.5724	188.1711
472.7362	180.0357
472.8999	178.4284
473.0637	179.5326
473.2274	179.6165
473.3911	181.2374
473.5548	181.2637
473.7185	181
473.8822	182.5409
474.0459	186.886
474.2096	191.2811
474.3733	184.296
474.537	190.5578
474.7007	191.3961
474.8643	192.136
475.028	186.369
475.1917	182.3952
475.3553	189.708
475.519	185.538
475.6826	187.258
475.8463	189.9566
476.0099	191.8221
476.1735	183.1886
476.3371	177.7621
476.5007	182.7617
476.6643	184.6789
476.8279	186.0107
476.9915	183.3025
477.1551	176.2075
477.3187	182.4511
477.4823	194.5778
477.6458	192.3996
477.8094	190.9621
477.9729	190.9215
478.1365	186.8002
478.3	186.0653
478.4636	192.9119
478.6271	188.4805
478.7906	189.8134
478.9541	190.1108
479.1176	183.9253
479.2812	186.8124
479.4447	192.18
479.6082	194.0703
479.7716	192.0668
479.9351	189.0488
480.0986	185.8956
480.2621	188.8201
480.4255	191.1734
480.589	190.1645
480.7524	183.0216
480.9159	185.8492
481.0793	185.6393
481.2428	194.0663
481.4062	196.7948
481.5696	193.5233
481.733	191.1919
481.8964	191.281
482.0598	182.8866
482.2232	185.9256
482.3866	191.097
482.55	186.9364
482.7134	189.3561
482.8768	187.8724
483.0401	184.4537
483.2035	189.1093
483.3668	191.1144
483.5302	184.8208
483.6935	183.2923
483.8568	182.0247
484.0202	184.8266
484.1835	177.9029
484.3468	181.5411
484.5101	182.7161
484.6734	183.422
484.8367	187.6838
485	190.4595
485.1633	188.0798
485.3266	183.8929
485.4899	182.1647
485.6531	180.0458
485.8164	174.2749
485.9796	162.3526
486.1429	153.0153
486.3061	156.9127
486.4694	173.9185
486.6326	187.811
486.7958	182.6266
486.959	178.452
487.1223	176.7487
487.2855	178.6366
487.4486	181.1751
487.6118	184.3492
487.775	186.8947
487.9382	189.8106
488.1014	194.4716
488.2646	195.9537
488.4277	193.6972
488.5909	189.3368
488.754	185.1812
488.9171	184.3941
489.0803	182.3398
489.2434	191.1618
489.4066	196.5294
489.5697	195.971
489.7328	205.7468
489.8959	202.4514
490.059	201.495
490.2221	193.7347
490.3852	194.8159
490.5482	202.7032
490.7113	200.8188
490.8744	200.7238
491.0374	202.0626
491.2005	197.9014
491.3636	196.2653
491.5266	201.1232
491.6896	204.0748
491.8527	189.3405
492.0157	190.2646
492.1787	186.9875
492.3417	185.8168
492.5047	191.6194
492.6677	200.6669
492.8307	203.077
492.9937	203.8589
493.1567	200.3394
493.3196	205.5366
493.4826	209.5719
493.6456	198.8812
493.8085	193.5246
493.9715	194.1249
494.1344	198.2261
494.2974	200.4721
494.4603	199.0992
494.6232	201.8266
494.7861	204.8281
494.949	204.8068
495.1119	207.5493
495.2748	209.4325
495.4377	205.1061
495.6006	200.0782
495.7635	204.9241
495.9264	201.9207
496.0892	202.6152
496.2521	202.8282
496.4149	209.8779
496.5778	203.7828
496.7407	203.365
496.9035	198.6381
497.0663	201.6668
497.2291	200.6949
497.3919	209.0749
497.5547	206.8105
497.7176	204.023
497.8804	206.7992
498.0432	202.9576
498.2059	197.1116
498.3687	195.146
498.5315	194.0501
498.6942	194.5381
498.857	201.3054
499.0198	207.0647
499.1825	205.9649
499.3452	196.0209
499.508	200.3625
499.6707	201.846
499.8334	198.0121
499.9962	204.4702
500.1589	201.0042
500.3216	204.043
500.4843	199.9662
500.6469	194.2419
500.8096	197.7167
500.9723	203.2577
501.135	196.3852
501.2976	190.5828
501.4603	192.6233
501.623	190.5614
501.7856	195.3028
501.9482	202.3271
502.1109	200.4979
502.2735	203.2655
502.4361	203.8744
502.5987	198.119
502.7614	195.5391
502.924	200.9278
503.0865	213.1516
503.2491	210.0366
503.4117	205.8208
503.5743	208.832
503.7368	206.7889
503.8994	202.9386
504.062	193.7573
504.2245	194.5816
504.3871	195.7001
504.5496	207.9096
504.7121	209.3448
504.8746	210.1137
505.0372	205.8704
505.1997	198.3717
505.3622	208.0377
505.5247	214.7761
505.6872	210.2019
505.8497	211.068
506.0121	213.1773
506.1746	217.6759
506.3371	212.842
506.4995	208.5742
506.662	208.6301
506.8244	207.3945
506.9869	212.1149
507.1493	216.5607
507.3117	211.8383
507.4742	212.1652
507.6366	213.7145
507.799	217.7353
507.9614	206.52
508.1238	205.9493
508.2862	201.0926
508.4485	214.2829
508.6109	216.4778
508.7733	207.0091
508.9357	212.1574
509.098	214.2935
509.2604	220.0763
509.4227	219.0312
509.5851	215.3363
509.7474	213.2201
509.9097	209.3837
510.072	213.8683
510.2343	214.3901
510.3966	216.8157
510.5589	222.5318
510.7212	224.5911
510.8835	215.0606
511.0458	216.6385
511.2081	221.322
511.3703	218.6407
511.5326	220.1384
511.6949	223.1602
511.8571	220.0383
512.0193	213.7896
512.1816	214.7625
512.3438	214.7554
512.506	205.7963
512.6682	217.2133
512.8304	214.3876
512.9926	206.6308
513.1548	206.0158
513.317	217.668
513.4792	216.197
513.6414	210.4971
513.8035	217.0504
513.9657	212.7608
514.1279	211.1842
514.29	208.3724
514.4521	214.0523
514.6143	212.6274
514.7764	211.9998
514.9385	215.2731
515.1006	216.2636
515.2628	215.8304
515.4249	208.6879
515.587	209.4679
515.7491	211.3467
515.9111	210.2343
516.0732	216.6984
516.2353	214.9385
516.3973	207.0793
516.5594	204.9621
516.7214	193.9658
516.8835	187.159
517.0455	183.7829
517.2076	189.2949
517.3696	186.3275
517.5316	191.3752
517.6937	207.9282
517.8557	213.1863
518.0176	211.3614
518.1796	200.1717
518.3416	187.1738
518.5036	187.2143
518.6656	201.2673
518.8275	207.8421
518.9895	205.8534
519.1514	205.2944
519.3134	201.6517
519.4753	211.5954
519.6373	211.7164
519.7992	213.3171
519.9611	220.9193
520.123	224.5476
520.2849	219.8396
520.4468	208.7901
520.6087	206.2457
520.7706	200.6211
520.9325	209.7074
521.0944	211.7568
521.2562	220.6754
521.4181	217.4047
521.58	215.3355
521.7418	209.6138
521.9036	209.7853
522.0655	224.02
522.2273	210.7651
522.3891	212.0247
522.551	222.8674
522.7128	214.4747
522.8746	210.3412
523.0363	218.4125
523.1981	216.8668
523.3599	217.1139
523.5217	208.4129
523.6835	218.3123
523.8452	216.525
524.007	226.4416
524.1687	223.5181
524.3304	221.6784
524.4922	223.781
524.6539	225.4318
524.8157	215.2666
524.9774	224.2708
525.1391	224.2023
525.3008	213.9223
525.4625	218.7344
525.6241	223.8438
525.7858	223.5467
525.9475	229.9002
526.1092	223.4809
526.2709	213.7605
526.4325	210.5053
526.5942	205.8433
526.7558	201.5437
526.9174	208.9369
527.079	201.8316
527.2407	209.8266
527.4023	215.0134
527.5639	216.9071
527.7255	214.4419
527.8871	217.6487
528.0487	223.0696
528.2103	219.1024
528.3718	223.3307
528.5334	217.8929
528.695	225.0799
528.8565	226.5825
529.0181	234.9661
529.1796	228.2174
529.3412	232.0604
529.5027	233.9054
529.6642	232.1727
529.8257	222.751
529.9872	223.5379
530.1487	223.4822
530.3102	225.9601
530.4717	219.2815
530.6332	231.7945
530.7947	227.9111
530.9562	226.2135
531.1176	234.1908
531.2791	226.5883
531.4405	228.9348
531.6019	228.3028
531.7634	230.877
531.9248	230.1049
532.0862	228.2037
532.2477	223.688
532.4091	224.6989
532.5704	220.8091
532.7319	219.788
532.8932	210.1806
533.0546	220.6184
533.216	221.6432
533.3774	230.8736
533.5388	225.9896
533.7001	225.5691
533.8615	226.1502
534.0228	227.9668
534.1841	222.6148
534.3455	223.5985
534.5068	227.0379
534.6681	223.1673
534.8293	217.6505
534.9907	220.7483
535.152	232.5191
535.3132	229.5105
535.4745	228.6093
535.6358	234.1909
535.7971	240.3349
535.9583	237.1836
536.1196	238.6456
536.2808	229.1599
536.4421	226.7273
536.6033	224.8631
536.7645	224.4804
536.9258	229.2542
537.087	225.8545
537.2482	224.242
537.4094	223.916
537.5706	226.5728
537.7318	234.4758
537.8929	230.6853
538.0541	232.0148
538.2153	231.8725
538.3764	228.6062
538.5376	230.9646
538.6987	229.0466
538.8599	227.7751
539.021	228.0181
539.1821	227.5032
539.3432	232.3581
539.5043	224.3629
539.6655	223.0198
539.8265	222.4508
539.9876	220.5395
540.1487	221.8643
540.3098	221.2482
540.4708	220.3436
540.6319	217.0914
540.793	219.5501
540.954	222.7582
541.1151	223.132
541.2761	219.8321
541.4371	225.1842
541.5981	220.0535
541.7592	226.6572
541.9202	219.5042
542.0812	224.502
542.2422	222.2266
542.4031	225.5557
542.5641	226.3629
542.7251	227.5502
542.886	221.5247
543.0471	229.0289
543.208	220.6746
543.369	222.0457
543.5298	218.4657
543.6908	223.7951
543.8517	226.3158
544.0126	227.8672
544.1736	230.8567
544.3345	231.7404
544.4954	222.9608
544.6563	220.3704
544.8171	222.0658
544.978	225.6056
545.1389	225.7495
545.2997	234.2561
545.4606	223.1596
545.6215	219.787
545.7823	219.9959
545.9432	218.6063
546.104	228.5157
546.2648	229.7597
546.4256	219.4234
546.5864	219.6306
546.7473	230.3528
546.908	228.6337
547.0688	227.9195
547.2296	228.0853
547.3904	215.9645
547.5511	229.2188
547.7119	228.1009
547.8727	224.9086
548.0334	217.3174
548.1942	225.3663
548.3549	228.4943
548.5156	229.3828
548.6763	229.3014
548.837	230.0317
548.9977	227.044
549.1584	231.124
549.3192	223.987
549.4798	225.6576
549.6405	233.1922
549.8011	225.935
549.9619	220.723
550.1225	227.629
550.2831	228.3756
550.4438	228.0298
550.6044	233.537
550.765	232.0194
550.9257	224.5063
551.0863	226.4678
551.2469	223.4631
551.4075	223.8327
551.5681	222.7319
551.7287	228.849
551.8893	226.7375
552.0498	239.4218
552.2104	232.0758
552.371	230.6763
552.5315	228.6376
552.6921	226.3733
552.8526	226.2669
553.0131	227.5089
553.1736	233.4705
553.3342	231.2904
553.4947	227.6296
553.6552	235.9198
553.8157	225.3689
553.9762	229.2351
554.1367	225.2725
554.2971	231.8235
554.4576	226.801
554.618	229.698
554.7785	237.6773
554.939	237.6462
555.0994	232.1081
555.2598	232.5221
555.4203	226.636
555.5807	225.5139
555.7411	230.5489
555.9015	236.4353
556.0619	238.2019
556.2223	232.2681
556.3827	234.7691
556.5431	231.7143
556.7034	228.2359
556.8638	227.3692
557.0242	227.1972
557.1845	224.8567
557.3448	230.2548
557.5052	231.8448
557.6655	228.8447
557.8259	229.6253
557.9861	236.6663
558.1465	232.9374
558.3068	229.1573
558.467	231.009
558.6274	224.0885
558.7877	220.553
558.9479	222.0684
559.1082	224.8652
559.2684	223.4094
559.4287	222.2981
559.5889	228.9524
559.7491	226.0436
559.9094	223.3967
560.0696	230.7448
560.2299	231.5804
560.3901	233.572
560.5502	231.8782
560.7104	230.9364
560.8707	229.6929
561.0308	238.8454
561.191	236.8925
561.3511	238.6946
561.5114	227.0549
561.6714	224.2418
561.8316	226.2932
561.9918	233.4735
562.1519	237.9515
562.312	226.7551
562.4722	226.9384
562.6323	233.6574
562.7924	234.6267
562.9525	228.4391
563.1125	241.6998
563.2726	237.8845
563.4327	231.1202
563.5928	232.9563
563.7528	232.1943
563.9129	240.0603
564.0729	233.5749
564.233	237.3942
564.393	238.6845
564.553	234.9988
564.7131	241.4018
564.873	235.0536
565.0331	233.5911
565.1931	232.9394
565.353	232.9454
565.5131	227.1376
565.673	234.339
565.833	227.1048
565.9929	226.405
566.1529	227.0968
566.3129	226.09
566.4728	225.3333
566.6328	227.027
566.7927	233.119
566.9526	232.2863
567.1125	229.292
567.2724	239.563
567.4323	233.0175
567.5922	231.8231
567.7521	241.8424
567.9119	237.0033
568.0718	239.4659
568.2317	229.9245
568.3915	224.8961
568.5514	228.1438
568.7112	235.2356
568.871	237.9388
569.0309	230.8747
569.1907	239.3089
569.3505	231.1452
569.5103	231.1022
569.6701	231.6129
569.8299	230.9107
569.9897	238.1892
570.1495	235.2567
570.3092	236.9887
570.469	226.8097
570.6287	227.9921
570.7885	235.3502
570.9482	234.965
571.108	226.6416
571.2677	227.3903
571.4274	229.3006
571.5871	241.8078
571.7468	241.8979
571.9066	237.7752
572.0662	235.224
572.2259	246.9688
572.3856	239.9692
572.5452	239.1987
572.7049	238.7159
572.8646	240.8717
573.0242	244.5262
573.1838	237.1572
573.3435	240.9614
573.5031	242.3193
573.6627	249.0046
573.8223	245.3617
573.9819	249.2935
574.1415	250.8744
574.3011	254.774
574.4607	255.9958
574.6203	254.0634
574.7798	246.1229
574.9394	245.1069
575.099	251.8067
575.2585	253.5056
575.418	240.2163
575.5776	245.059
575.7371	243.563
575.8966	245.3782
576.0562	242.1434
576.2156	238.8442
576.3751	246.1952
576.5346	245.8216
576.6941	245.6221
576.8536	250.3124
577.0131	247.1977
577.1725	246.8337
577.332	249.1714
577.4914	252.8942
577.6508	250.8297
577.8103	243.503
577.9697	237.9842
578.1291	239.0975
578.2885	240.1645
578.4479	239.2833
578.6073	242.0252
578.7667	250.1723
578.9261	245.7126
579.0854	247.0618
579.2448	243.1181
579.4042	245.0343
579.5635	249.1071
579.7229	246.3165
579.8822	250.4257
580.0416	255.0162
580.2009	260.6972
580.3602	249.9395
580.5195	244.1667
580.6788	244.0072
580.8381	243.3043
580.9974	249.9508
581.1566	254.1409
581.3159	254.2971
581.4752	258.856
581.6345	256.941
581.7937	254.3308
581.9529	257.0647
582.1122	257.7614
582.2714	262.0883
582.4306	255.2933
582.5898	255.1644
582.749	257.5415
582.9082	259.5669
583.0674	263.8974
583.2266	250.5266
583.3857	247.1736
583.5449	254.9443
583.7041	255.8972
583.8633	262.4026
584.0224	263.149
584.1815	261.4781
584.3407	260.6219
584.4998	253.8501
584.6589	259.878
584.818	255.7388
584.9771	256.7482
585.1362	257.9043
585.2953	260.6777
585.4544	261.3432
585.6135	260.1911
585.7725	260.8132
585.9316	261.3102
586.0906	251.7086
586.2497	252.8083
586.4087	260.9605
586.5677	265.1552
586.7267	259.26
586.8858	261.8199
587.0448	263.8294
587.2038	269.4865
587.3628	267.0621
587.5218	264.2314
587.6807	254.8448
587.8397	251.4699
587.9987	260.0487
588.1577	258.5552
588.3166	264.6211
588.4755	263.3412
588.6345	258.1528
588.7934	252.556
588.9523	243.623
589.1112	243.7911
589.2701	246.4077
589.429	247.3143
589.5879	246.7392
589.7468	248.4635
589.9056	236.5874
590.0645	243.8031
590.2234	257.4429
590.3822	257.2535
590.5411	256.5825
590.6999	260.2141
590.8588	259.4671
591.0176	258.5831
591.1764	259.8918
591.3352	260.8454
591.494	257.8405
591.6528	258.2006
591.8116	256.5689
591.9703	256.7912
592.1291	260.2628
592.2878	266.6355
592.4467	257.7907
592.6053	257.8316
592.7641	262.4003
592.9229	255.8646
593.0816	258.0817
593.2403	266.5752
593.399	274.6603
593.5577	262.6001
593.7164	255.7782
593.8751	261.0956
594.0338	258.8773
594.1924	264.5615
594.3511	264.3818
594.5098	262.7646
594.6684	262.4498
594.8271	260.9543
594.9857	265.7042
595.1443	264.6836
595.303	267.7627
595.4615	263.5975
595.6202	266.8626
595.7787	262.7556
595.9374	261.3156
596.0959	270.3117
596.2545	269.7245
596.4131	270.7943
596.5717	268.9732
596.7302	265.043
596.8887	268.9246
597.0473	272.6248
597.2058	273.7286
597.3644	273.6555
597.5229	275.4627
597.6814	281.1026
597.8399	268.1758
597.9984	267.6414
598.1569	261.4158
598.3154	273.8094
598.4738	268.6558
598.6323	272.8941
598.7908	272.3415
598.9492	281.5176
599.1076	274.8529
599.2661	276.7146
599.4245	277.5521
599.5829	277.1437
599.7413	268.9803
599.8997	274.3783
600.0581	272.3655
600.2165	275.5928
600.3749	265.4738
600.5333	269.4475
600.6917	273.4471
600.85	274.1121
601.0084	271.2422
601.1667	273.2645
601.325	275.1729
601.4833	274.7
601.6417	277.0651
601.8	274.1792
601.9583	276.5515
602.1166	276.2293
602.2749	270.3158
602.4332	272.9028
602.5914	272.2272
602.7498	275.9299
602.908	281.9265
603.0662	280.1847
603.2245	284.8925
603.3828	284.3345
603.541	277.7474
603.6992	277.8527
603.8574	281.069
604.0156	283.7923
604.1738	288.2665
604.332	279.596
604.4902	278.2289
604.6484	273.308
604.8065	278.3797
604.9647	279.118
605.1229	281.3111
605.281	270.2111
605.4391	268.6797
605.5973	268.5732
605.7554	275.466
605.9135	274.2298
606.0717	271.9284
606.2297	276.7585
606.3878	280.0817
606.5459	277.9189
606.704	275.6688
606.8621	271.3824
607.0201	275.1344
607.1782	285.0207
607.3362	279.8398
607.4943	277.2265
607.6523	279.7473
607.8104	288.1484
607.9684	283.8435
608.1264	279.9548
608.2844	273.7659
608.4424	283.1937
608.6003	278.2493
608.7584	279.6043
608.9163	279.9716
609.0743	273.1128
609.2322	282.8302
609.3902	282.9947
609.5482	281.0046
609.7061	273.1395
609.864	277.7918
610.0219	281.1213
610.1798	275.7864
610.3377	271.2704
610.4956	270.1715
610.6535	275.7668
610.8114	274.3085
610.9693	273.4169
611.1271	275.5751
611.285	279.7037
611.4429	277.9253
611.6007	277.2344
611.7585	276.5193
611.9164	274.8152
612.0742	277.1051
612.232	277.094
612.3898	266.6979
612.5476	268.9774
612.7054	272.9193
612.8632	276.5193
613.0209	275.9873
613.1787	276.9571
613.3365	275.5024
613.4942	276.486
613.652	269.7202
613.8097	268.6072
613.9674	260.765
614.1252	265.8274
614.2829	270.8404
614.4406	273.345
614.5983	275.5629
614.756	274.3516
614.9136	277.7912
615.0714	271.1383
615.229	274.1915
615.3867	276.069
615.5443	273.4033
615.702	278.1515
615.8596	269.0451
616.0172	269.0632
616.1748	259.0812
616.3325	258.6574
616.4901	263.4679
616.6476	266.8161
616.8052	266.3184
616.9628	268.445
617.1204	265.6406
617.278	272.0289
617.4355	272.8994
617.5931	275.7708
617.7506	273.6915
617.9081	275.8758
618.0657	279.6925
618.2232	270.9234
618.3807	267.7332
618.5382	274.0866
618.6957	267.0966
618.8532	266.799
619.0107	266.4997
619.1682	266.9716
619.3256	265.3695
619.4831	269.281
619.6406	274.752
619.798	276.611
619.9554	279.5517
620.1129	278.3822
620.2703	268.6916
620.4277	277.6389
620.5851	276.687
620.7425	272.8943
620.8998	273.9137
621.0573	269.3887
621.2146	271.9948
621.372	274.8104
621.5294	270.5308
621.6867	264.6358
621.8441	268.3441
622.0013	275.0425
622.1587	270.1876
622.316	268.1321
622.4733	270.7329
622.6306	270.7304
622.7879	273.6851
622.9452	264.7616
623.1025	265.3439
623.2598	269.381
623.4171	270.2463
623.5743	268.9114
623.7316	265.1426
623.8888	262.564
624.046	266.2529
624.2032	263.1683
624.3605	262.2436
624.5176	270.0739
624.6749	258.8691
624.8321	261.5309
624.9893	276.161
625.1464	279.7213
625.3036	269.5185
625.4608	270.6929
625.6179	263.6469
625.7751	264.3085
625.9322	267.1711
626.0894	266.5658
626.2465	267.2264
626.4036	267.984
626.5607	268.3948
626.7178	272.6846
626.8749	270.9917
627.032	272.5477
627.189	269.3196
627.3461	267.6196
627.5032	267.1261
627.6602	264.6729
627.8173	258.6733
627.9743	256.7608
628.1313	255.1965
628.2884	255.4336
628.4454	265.1824
628.6024	261.3834
628.7594	256.268
628.9164	265.0225
629.0734	259.4394
629.2303	259.1499
629.3873	260.507
629.5443	266.3966
629.7012	255.0488
629.8582	258.8216
630.0151	255.8775
630.172	252.9697
630.3289	259.2574
630.4858	266.6524
630.6428	259.2035
630.7996	256.6869
630.9565	256.5091
631.1134	264.8627
631.2703	261.8772
631.4272	263.4666
631.584	262.9885
631.7408	255.9167
631.8977	266.0824
632.0546	254.5146
632.2114	251.2422
632.3682	262.8456
632.525	265.8576
632.6818	261.5468
632.8386	257.3389
632.9954	263.7849
633.1522	257.6511
633.3089	264.8423
633.4657	259.2361
633.6224	257.1526
633.7792	260.6853
633.9359	255.1319
634.0927	259.2646
634.2494	259.3487
634.4061	261.6011
634.5628	260.8539
634.7195	258.347
634.8762	261.2819
635.0329	263.8629
635.1895	260.6792
635.3462	259.7286
635.5029	255.1412
635.6595	261.3596
635.8162	255.8933
635.9728	254.0185
636.1295	250.0662
636.2861	258.5414
636.4427	256.0411
636.5992	255.651
636.7559	252.2343
636.9124	259.6323
637.069	253.5993
637.2256	261.6407
637.3821	264.8749
637.5387	259.2277
637.6953	251.8427
637.8518	257.9972
638.0084	265.0972
638.1649	262.0142
638.3214	256.5445
638.4779	257.9203
638.6344	261.0379
638.7909	265.663
638.9474	262.968
639.1038	263.8803
639.2603	264.8954
639.4167	255.8524
639.5732	253.3449
639.7297	257.7635
639.8861	257.642
640.0425	256.2762
640.199	250.6075
640.3553	251.312
640.5118	255.1511
640.6682	260.6538
640.8245	254.1491
640.981	253.7541
641.1373	248.9281
641.2936	249.0072
641.45	254.7977
641.6064	247.7266
641.7627	255.2001
641.9191	243.2341
642.0754	251.1427
642.2317	258.6832
642.388	252.6333
642.5443	248.6092
642.7006	257.5627
642.8569	259.0648
643.0131	250.4724
643.1694	253.0687
643.3257	261.0421
643.4819	253.9706
643.6382	252.4122
643.7944	249.1573
643.9506	247.9106
644.1069	251.3618
644.2631	257.4843
644.4193	256.4846
644.5754	246.6927
644.7316	246.7469
644.8878	243.0955
645.044	251.3455
645.2002	250.5755
645.3563	245.6938
645.5125	248.4347
645.6686	244.3938
645.8248	247.8889
645.9809	246.8842
646.137	249.1718
646.2931	239.685
646.4492	246.1213
646.6053	241.7105
646.7614	246.3875
646.9174	242.5898
647.0735	246.1017
647.2296	244.2415
647.3856	241.1603
647.5417	239.6805
647.6977	238.6506
647.8537	236.9805
648.0098	234.1669
648.1658	240.9523
648.3218	238.0109
648.4777	246.78
648.6337	250.4763
648.7897	249.0267
648.9457	242.9911
649.1016	236.6139
649.2576	238.2069
649.4135	234.4846
649.5695	231.7419
649.7254	230.1622
649.8813	231.4491
650.0372	233.6901
650.1932	234.3138
650.3491	240.3062
650.5049	241.7165
650.6608	248.8074
650.8167	247.7608
650.9725	241.7254
651.1284	243.2569
651.2842	244.5155
651.4401	243.594
651.5959	236.7128
651.7518	231.0207
651.9076	231.8682
652.0634	236.9694
652.2192	236.4746
652.3749	237.7182
652.5308	240.7828
652.6865	236.1514
652.8423	239.4131
652.998	238.1029
653.1538	228.9668
653.3096	233.6676
653.4653	235.3446
653.621	234.4471
653.7767	238.2882
653.9324	240.6372
654.0881	239.8125
654.2438	242.7124
654.3995	237.0888
654.5552	231.4429
654.7109	230.1896
654.8665	225.5133
655.0222	221.9424
655.1778	223.7698
655.3334	220.9652
655.4891	225.7652
655.6447	229.5983
655.8003	227.0129
655.9559	220.7229
656.1115	204.2301
656.2671	191.6229
656.4227	194.4112
656.5782	200.3324
656.7338	217.9402
656.8893	223.9654
657.0449	227.7452
657.2004	226.5307
657.356	228.8297
657.5115	229.9021
657.667	224.7976
657.8225	232.3288
657.978	240.3198
658.1335	228.2616
658.289	230.5187
658.4445	235.5293
658.5999	238.0473
658.7554	235.5323
658.9108	236.2234
659.0663	233.6387
659.2217	236.6921
659.3771	240.0891
659.5325	236.0355
659.6879	227.9726
659.8433	228.9751
659.9987	229.5145
660.1541	233.2902
660.3095	232.884
660.4648	233.95
660.6202	226.7593
660.7756	230.561
660.9309	237.2083
661.0862	228.5043
661.2416	234.0127
661.3969	232.1887
661.5522	232.2963
661.7075	231.9642
661.8628	226.5175
662.0181	227.151
662.1733	232.7318
662.3286	234.2114
662.4839	238.2887
662.6391	234.8429
662.7944	233.6301
662.9496	232.4481
663.1048	236.2458
663.26	223.2556
663.4152	222.9241
663.5704	222.858
663.7256	231.0426
663.8808	235.423
664.036	234.5239
664.1912	232.1206
664.3463	226.4155
664.5015	235.4933
664.6566	234.3632
664.8118	227.3446
664.9669	229.9693
665.122	231.9629
665.2771	232.4585
665.4322	233.5594
665.5873	227.4543
665.7424	237.3675
665.8975	237.0279
666.0526	228.6553
666.2076	227.2726
666.3627	218.916
666.5177	221.5993
666.6727	225.5862
666.8278	225.4718
666.9828	231.8385
667.1378	233.643
667.2928	224.2962
667.4478	221.3582
667.6028	230.4326
667.7578	229.7729
667.9127	224.6561
668.0677	226.8277
668.2226	229.0738
668.3776	226.8326
668.5325	228.1737
668.6874	230.4201
668.8423	229.9063
668.9973	225.0231
669.1522	233.6809
669.3071	230.7657
669.4619	225.9863
669.6168	224.8613
669.7717	224.6186
669.9265	219.2258
670.0814	218.8277
670.2362	215.0231
670.3911	215.5181
670.5459	223.6944
670.7007	224.3407
670.8555	224.4915
671.0103	226.0444
671.1651	222.4837
671.3199	225.9012
671.4747	224.8545
671.6295	219.2135
671.7842	219.8324
671.939	222.0376
672.0937	222.5148
672.2484	216.7683
672.4031	218.6814
672.5579	212.4272
672.7126	220.4448
672.8673	221.7072
673.022	221.6253
673.1767	225.0998
673.3314	222.636
673.486	220.4689
673.6407	217.3775
673.7953	220.8187
673.95	222.0037
674.1046	219.2758
674.2592	219.7202
674.4138	217.4995
674.5684	218.069
674.723	216.8898
674.8776	220.5082
675.0322	221.1575
675.1868	213.9166
675.3414	220.4416
675.4959	218.2693
675.6505	217.0444
675.805	218.6432
675.9595	222.8174
676.1141	215.1427
676.2686	218.5795
676.4231	215.7744
676.5776	213.4232
676.7321	207.5439
676.8866	215.7867
677.041	215.3119
677.1955	217.6606
677.35	219.2678
677.5044	215.103
677.6589	208.9393
677.8133	206.534
677.9677	215.0388
678.1221	223.0311
678.2766	215.163
678.4309	209.7406
678.5853	213.7987
678.7397	211.8848
678.8941	207.1281
679.0485	212.7361
679.2028	212.8032
679.3571	221.4863
679.5115	212.3323
679.6658	212.0437
679.8201	213.4514
679.9744	213.0464
680.1288	212.1391
680.2831	211.2939
680.4373	210.6719
680.5916	206.0674
680.7459	213.8057
680.9001	212.3465
681.0544	206.7762
681.2087	207.0802
681.3629	209.0513
681.5171	205.5197
681.6713	209.3043
681.8256	206.9692
681.9797	203.864
682.134	202.4946
682.2881	209.2469
682.4423	211.9385
682.5965	204.6238
682.7507	205.0978
682.9048	203.1655
683.059	201.4445
683.2131	204.5246
683.3672	199.3846
683.5213	206.8979
683.6754	205.8107
683.8295	199.0373
683.9836	201.4595
684.1377	205.4598
684.2918	202.0198
684.4459	195.6098
684.5999	203.0262
684.754	205.5684
684.908	195.0999
685.062	199.3557
685.2161	199.3498
685.3701	205.4151
685.5241	206.7096
685.6781	201.8692
685.8321	198.5677
685.9861	198.3819
686.14	196.4516
686.294	191.1543
686.4479	192.3987
686.6019	185.7528
686.7559	180.5135
686.9098	167.772
687.0637	164.4865
687.2176	165.2879
687.3715	165.6264
687.5254	168.784
687.6793	172.3497
687.8332	180.4154
687.9871	176.4002
688.1409	180.1782
688.2947	187.419
688.4486	187.5253
688.6024	183.1426
688.7563	181.0913
688.9101	187.8099
689.0639	184.0692
689.2177	182.5122
689.3715	184.599
689.5253	181.3748
689.6791	177.4566
689.8328	183.5782
689.9866	181.5785
690.1403	185.8212
690.2941	182.0929
690.4478	183.3307
690.6015	185.1944
690.7552	192.0074
690.9089	181.8635
691.0626	188.6348
691.2164	185.1051
691.37	182.8994
691.5237	189.6741
691.6774	191.0437
691.831	180.1933
691.9847	182.5588
692.1383	184.957
692.2919	188.1813
692.4456	186.9855
692.5992	179.7057
692.7527	184.7144
692.9064	185.0635
693.0599	180.1404
693.2136	180.9286
693.3671	183.1389
693.5207	193.1578
693.6742	190.5395
693.8278	183.1419
693.9813	182.2965
694.1348	180.7418
694.2883	176.936
694.4418	178.566
694.5953	183.5149
694.7488	183.9809
694.9023	178.3268
695.0558	183.6221
695.2093	175.3237
695.3627	175.292
695.5162	176.7659
695.6696	186.2817
695.8231	177.5059
695.9764	183.607
696.1299	179.6055
696.2833	181.9917
696.4367	185.8945
696.5901	186.0579
696.7435	183.7584
696.8968	186.429
697.0502	191.3657
697.2036	185.994
697.3569	182.1268
697.5102	174.7291
697.6635	176.3696
697.8168	186.2144
697.9702	183.3691
698.1235	177.151
698.2768	178.9553
698.4301	185.9415
698.5833	176.6338
698.7366	179.987
698.8898	180.959
699.0431	181.9224
699.1964	182.607
699.3495	178.6935
699.5028	185.447
699.656	184.1007
699.8092	186.8632
699.9624	181.2803
700.1156	176.1557
700.2688	179.8003
700.4219	172.1006
700.5751	173.4488
700.7283	166.774
700.8814	174.6487
701.0345	177.4849
701.1877	180.8828
701.3408	178.2643
701.4939	171.2163
701.647	176.5294
701.8001	176.1417
701.9532	173.4567
702.1063	174.0818
702.2593	180.5766
702.4124	182.1851
702.5654	174.8474
702.7184	172.9115
702.8715	174.0967
703.0245	172.1135
703.1776	175.4032
703.3305	176.1435
703.4835	177.4836
703.6365	177.1976
703.7895	170.0938
703.9424	174.2726
704.0954	175.0169
704.2484	180.9428
704.4013	183.9116
704.5543	190.7104
704.7072	181.1213
704.8601	176.0511
705.013	177.5686
705.1659	183.0616
705.3188	181.3532
705.4717	179.4779
705.6246	182.6614
705.7774	179.156
705.9303	181.7072
706.0831	170.7236
706.236	170.8201
706.3888	181.2602
706.5416	178.795
706.6944	179.5432
706.8472	182.8063
707	178.08
707.1528	178.3556
707.3056	174.3568
707.4583	176.6574
707.6111	175.9408
707.7639	177.4448
707.9166	173.2959
708.0693	183.0361
708.222	181.7869
708.3748	174.3891
708.5275	176.8671
708.6802	173.1678
708.8328	182.3959
708.9855	175.8519
709.1382	169.9124
709.2909	173.1051
709.4435	181.5629
709.5962	181.7704
709.7488	177.4098
709.9014	176.9306
710.054	175.0834
710.2067	177.579
710.3593	175.873
710.5118	171.6164
710.6644	177.5718
710.817	175.5142
710.9695	175.4462
711.1221	176.9758
711.2747	179.4762
711.4272	175.5602
711.5797	180.5592
711.7322	181.7429
711.8848	173.7946
712.0373	173.6076
712.1898	177.8262
712.3422	171.5411
712.4948	173.942
712.6472	173.637
712.7996	172.5053
712.9521	168.8822
713.1046	172.3172
713.257	174.5165
713.4094	173.6305
713.5618	173.4617
713.7142	177.4482
713.8666	172.4505
714.019	171.5892
714.1714	177.5995
714.3237	180.2254
714.4761	169.8746
714.6285	168.0718
714.7808	167.1458
714.9331	171.9269
715.0854	164.7494
715.2378	165.931
715.3901	168.9965
715.5424	164.7842
715.6947	169.9304
715.8469	169.269
715.9992	163.7658
716.1515	168.1882
716.3037	163.0173
716.456	161.3697
716.6082	160.5017
716.7604	156.0967
716.9127	150.319
717.0649	157.1665
717.2171	159.6774
717.3693	155.5112
717.5214	152.152
717.6736	155.9054
717.8258	156.1396
717.978	153.4653
718.1301	158.1799
718.2822	155.7779
718.4344	143.6069
718.5865	135.7753
718.7386	145.4668
718.8907	151.5882
719.0428	143.3335
719.1949	149.3661
719.3469	151.5483
719.499	150.1249
719.6511	148.8415
719.8031	146.6737
719.9551	144.5743
720.1072	144.5291
720.2592	144.3712
720.4112	145.1546
720.5632	142.9989
720.7152	145.9966
720.8672	147.6852
721.0192	156.4298
721.1711	162.3998
721.3231	163.5827
721.475	162.027
721.627	165.8203
721.7789	163.389
721.9308	160.5196
722.0828	155.4879
722.2347	156.9529
722.3866	158.5487
722.5385	149.0691
722.6903	150.5717
722.8422	158.8066
722.9941	149.9149
723.1459	153.7693
723.2977	136.4408
723.4496	137.5937
723.6014	151.6449
723.7532	147.4594
723.905	147.3345
724.0568	145.2598
724.2086	145.1478
724.3604	146.4206
724.5121	141.9058
724.6639	145.6392
724.8157	153.1343
724.9674	151.1748
725.1191	150.4767
725.2709	149.223
725.4226	141.282
725.5743	148.2942
725.726	149.6594
725.8777	145.8736
726.0294	149.8597
726.181	154.3373
726.3327	146.4887
726.4844	144.8132
726.636	143.5208
726.7877	150.9853
726.9393	149.5415
727.0909	158.3311
727.2425	152.7098
727.3941	146.3239
727.5457	146.7318
727.6973	145.9622
727.8488	148.5759
728.0004	148.2175
728.1519	155.367
728.3035	155.7284
728.455	154.0169
728.6066	150.419
728.7581	145.1738
728.9095	142.5053
729.0611	138.9067
729.2126	141.1107
729.364	140.0957
729.5155	145.1111
729.667	147.5991
729.8184	151.1045
729.9698	152.7444
730.1213	151.9412
730.2727	150.1452
730.4241	146.3105
730.5756	149.5605
730.7269	142.8405
730.8784	149.9368
731.0297	147.9473
731.1811	148.3881
731.3325	155.5559
731.4838	147.5729
731.6351	148.9463
731.7865	140.9252
731.9378	149.2641
732.0891	147.9447
732.2404	147.9189
732.3917	148.7014
732.543	154.1155
732.6943	149.4359
732.8456	149.4561
732.9968	154.2247
733.1481	151.1449
733.2993	150.9756
733.4506	148.8564
733.6018	145.6704
733.753	154.9812
733.9042	152.9764
734.0554	155.6849
734.2066	155.7361
734.3578	151.0044
734.509	150.2331
734.6602	147.9556
734.8113	150.3936
734.9624	156.7761
735.1136	150.4084
735.2647	151.2642
735.4158	148.8002
735.5669	151.7246
735.718	149.2354
735.8691	149.1146
736.0201	146.1729
736.1713	150.6653
736.3223	147.213
736.4733	149.8372
736.6244	143.9295
736.7755	149.73
736.9265	151.8615
737.0775	149.9453
737.2285	151.8793
737.3795	152.7175
737.5305	153.1044
737.6815	147.5193
737.8324	145.2826
737.9834	148.8451
738.1343	144.7041
738.2853	148.7351
738.4362	148.8001
738.5871	149.1612
738.738	151.4929
738.8889	146.6197
739.0399	148.5974
739.1907	145.5037
739.3416	144.8567
739.4925	155.9276
739.6433	149.6799
739.7942	148.9806
739.945	150.1935
740.0958	149.0532
740.2467	146.7049
740.3975	151.8628
740.5483	144.493
740.6991	152.4292
740.8499	148.7684
741.0007	145.3488
741.1514	144.1068
741.3022	142.02
741.4529	140.0715
741.6036	147.0925
741.7544	151.5572
741.9051	145.2142
742.0558	150.4655
742.2065	144.6478
742.3572	141.6868
742.5079	138.6105
742.6586	145.1246
742.8093	142.2819
742.9599	144.2127
743.1105	150.9685
743.2612	150.0284
743.4118	147.7787
743.5624	148.3185
743.7131	144.3992
743.8636	142.7084
744.0142	146.4002
744.1648	145.0288
744.3154	143.0856
744.4659	140.9643
744.6165	134.1187
744.767	136.4197
744.9176	135.187
745.0681	137.0687
745.2186	139.468
745.3691	147.8801
745.5197	144.7735
745.6702	149.9559
745.8206	140.0838
745.9711	140.281
746.1215	144.6608
746.272	146.3683
746.4224	138.0322
746.5729	135.1457
746.7233	145.1544
746.8737	139.6742
747.0241	141.2957
747.1745	139.3841
747.3249	137.4203
747.4753	137.6456
747.6257	137.327
747.776	141.4666
747.9264	140.2762
748.0767	136.5037
748.2271	141.7393
748.3774	139.6263
748.5276	137.8756
748.678	135.6138
748.8282	134.3788
748.9786	141.7052
749.1288	140.5083
749.2791	132.1755
749.4294	134.9535
749.5796	138.3261
749.7299	135.1146
749.8801	132.8699
750.0303	133.3488
750.1805	136.581
750.3307	134.9599
750.4809	131.7323
750.6311	136.5055
750.7813	139.8384
750.9314	138.9664
751.0816	134.2182
751.2318	128.3317
751.3818	134.5916
751.532	130.6899
751.6821	126.758
751.8322	134.0835
751.9823	131.5754
752.1324	137.1333
752.2825	136.0624
752.4326	128.9576
752.5826	128.4291
752.7327	131.2908
752.8827	131.2005
753.0327	134.5328
753.1827	128.338
753.3328	126.1948
753.4828	134.0005
753.6328	129.8802
753.7828	137.9966
753.9327	133.4599
754.0827	133.0316
754.2327	131.7429
754.3826	133.64
754.5325	132.1152
754.6825	128.16
754.8324	123.6825
754.9823	128.1139
755.1322	130.0381
755.2821	126.8526
755.432	130.6162
755.5818	130.4648
755.7318	131.1912
755.8816	127.5597
756.0314	125.7535
756.1813	123.5684
756.3311	127.6438
756.4809	127.003
756.6307	122.0188
756.7805	126.6228
756.9303	126.0391
757.0801	126.5831
757.2299	127.5738
757.3796	129.7663
757.5294	125.7547
757.6791	127.0835
757.8289	125.6889
757.9786	120.842
758.1283	121.264
758.278	124.9338
758.4277	125.0288
758.5773	124.2328
758.7271	121.7148
758.8767	123.0375
759.0264	122.4576
759.176	122.6404
759.3256	110.8816
759.4753	100.5804
759.6249	88.49425
759.7745	81.75147
759.9241	80.74284
760.0737	72.55441
760.2233	73.18542
760.3729	70.72668
760.5224	66.58936
760.6719	70.8899
760.8215	73.12866
760.971	69.89829
761.1205	75.84933
761.2701	84.74345
761.4196	85.53747
761.5691	87.38269
761.7186	95.80978
761.868	99.02081
762.0175	95.21473
762.167	92.66006
762.3164	88.63937
762.4659	84.63068
762.6153	83.75352
762.7647	84.75654
762.9141	86.56898
763.0635	81.31532
763.2129	80.73319
763.3623	85.19386
763.5117	86.16335
763.661	85.81611
763.8104	86.58103
763.9597	84.40776
764.1091	90.30733
764.2584	86.71656
764.4077	89.5118
764.557	87.52579
764.7063	85.80659
764.8556	93.94823
765.0049	99.33619
765.1541	96.6255
765.3034	90.59318
765.4526	95.52339
765.6019	97.6996
765.7511	101.544
765.9003	101.5736
766.0496	101.532
766.1987	96.21021
766.348	94.91206
766.4971	94.4193
766.6463	100.462
766.7955	101.8416
766.9446	105.9806
767.0938	105.2314
767.2429	108.9838
767.392	99.05649
767.5411	104.3402
767.6902	108.748
767.8394	105.3081
767.9884	108.0315
768.1375	113.5109
768.2866	107.6381
768.4356	102.0816
768.5847	104.6299
768.7337	103.6848
768.8828	111.7041
769.0317	112.0381
769.1808	105.0819
769.3298	109.239
769.4788	105.5515
769.6277	105.6212
769.7767	109.4273
769.9257	115.215
770.0746	109.875
770.2236	109.2329
770.3725	106.0595
770.5214	108.5926
770.6703	104.2368
770.8193	106.4864
770.9681	104.7227
771.1171	106.1647
771.2659	106.7233
771.4148	106.9715
771.5637	107.7828
771.7125	105.9542
771.8613	102.3469
772.0101	104.3605
772.159	107.1017
772.3078	101.4721
772.4566	103.4553
772.6054	104.736
772.7542	103.3719
772.903	103.1877
773.0517	100.6704
773.2004	102.8901
773.3492	102.2206
773.4979	99.6564
773.6467	100.793
773.7953	104.9931
773.944	104.4713
774.0928	103.2933
774.2415	105.0887
774.3901	104.5544
774.5388	101.8981
774.6874	99.93773
774.8361	100.383
774.9847	102.6868
775.1334	99.25466
775.282	102.4234
775.4305	101.5406
775.5792	105.0863
775.7277	101.4027
775.8763	100.9104
776.0249	104.2134
776.1735	100.4733
776.322	100.2619
776.4705	97.67066
776.6191	98.24779
776.7676	99.07046
776.9161	102.0361
777.0646	100.0328
777.2131	104.2422
777.3616	103.3053
777.5101	100.7874
777.6585	102.0208
777.8069	94.31906
777.9554	96.10413
778.1038	95.88702
778.2523	99.25863
778.4007	96.6311
778.5491	97.72166
778.6974	98.74911
778.8459	96.06057
778.9942	98.34069
779.1426	96.2797
779.291	98.12583
779.4393	103.662
779.5876	106.2365
779.736	99.17637
779.8843	97.52466
780.0326	98.7674
780.1809	98.89233
780.3292	94.12468
780.4775	91.16994
780.6257	100.1082
780.774	95.84534
780.9222	96.51945
781.0704	95.25956
781.2187	95.41349
781.3669	95.37457
781.5151	97.99453
781.6633	94.47875
781.8115	91.65323
781.9597	88.69283
782.1078	96.88913
782.256	92.26797
782.4042	98.46827
782.5523	96.47823
782.7004	95.83951
782.8486	91.95112
782.9967	91.39881
783.1448	94.52584
783.2929	92.5957
783.441	91.75812
783.5891	91.85178
783.7371	92.43591
783.8851	94.94849
784.0332	92.57802
784.1812	90.28138
784.3293	95.63821
784.4773	94.85468
784.6253	90.76096
784.7733	88.12534
784.9213	92.88606
785.0692	91.75197
785.2172	91.69725
785.3652	89.37019
785.5131	89.9117
785.6611	86.60048
785.809	89.92572
785.9569	88.59828
786.1048	88.45802
786.2527	86.80605
786.4006	87.47478
786.5485	87.98103
786.6964	92.09198
786.8442	90.58809
786.9921	88.58494
787.1399	87.6332
787.2877	84.87704
787.4355	87.28495
787.5833	89.86759
787.7311	92.37962
787.8789	88.62244
788.0267	84.45813
788.1745	91.35034
788.3223	86.80536
788.47	87.9715
788.6177	87.29858
788.7654	92.06837
788.9132	86.70239
789.0609	89.71275
789.2086	87.93298
789.3563	84.58709
789.504	86.16327
789.6517	86.03098
789.7993	84.23637
789.947	84.88802
790.0946	84.20962
790.2422	84.58572
790.3898	88.77452
790.5375	78.50347
790.6851	79.55638
790.8326	87.22147
790.9802	86.36863
791.1278	81.15733
791.2754	80.3196
791.423	82.59471
791.5705	84.45627
791.718	83.95659
791.8655	76.27322
792.0131	81.53729
792.1606	84.75948
792.308	84.35205
792.4556	85.7627
792.603	86.48315
792.7505	79.33605
792.8979	84.8284
793.0454	81.94384
793.1928	85.76895
793.3403	83.08034
793.4877	81.76376
793.6351	83.1078
793.7825	83.48018
793.9299	78.68359
794.0772	80.89236
794.2246	82.59841
794.3719	85.21713
794.5193	81.15977
794.6666	80.3728
794.814	79.90443
794.9613	79.75455
795.1086	81.50766
795.2559	81.5913
795.4032	79.44576
795.5505	86.09481
795.6978	82.76866
795.845	79.53672
795.9922	76.95818
796.1395	76.70698
796.2867	78.04204
796.4339	75.894
796.5811	80.43008
796.7283	81.83678
796.8755	82.15141
797.0227	80.10914
797.1699	81.44506
797.317	78.00641
797.4642	77.54448
797.6113	79.3846
797.7584	78.98596
797.9056	80.02505
798.0527	81.45377
798.1998	79.21645
798.3469	76.191
798.494	81.84352
798.641	78.76062
798.7881	75.44579
798.9351	76.9418
799.0822	79.34341
799.2292	83.69636
799.3762	81.09276
799.5232	73.84389
799.6702	79.20554
799.8172	74.77038
799.9642	72.05074
800.1111	78.68353
800.2581	78.69689
800.4051	76.43844
800.552	77.82941
800.6989	81.16286
800.8458	77.54367
800.9927	72.12592
801.1396	72.5387
801.2866	72.99043
801.4334	73.67235
801.5803	71.94287
801.7272	75.17124
801.874	78.87872
802.0209	74.15328
802.1677	73.31516
802.3145	77.64536
802.4613	74.47377
802.6081	77.00954
802.7549	71.2437
802.9017	73.4196
803.0485	74.52818
803.1952	78.22755
803.342	73.49471
803.4887	75.72944
803.6354	73.34907
803.7822	71.31461
803.9289	71.07277
804.0756	68.79263
804.2223	73.49763
804.369	70.86425
804.5156	72.33473
804.6623	71.79729
804.8089	72.0802
804.9556	69.61007
805.1022	68.06232
805.2488	75.44093
805.3954	71.14278
805.542	73.8044
805.6886	74.19755
805.8352	66.84879
805.9818	66.56798
806.1283	71.09337
806.2749	72.68482
806.4214	73.21004
806.5679	74.39748
806.7145	75.14674
806.861	74.57144
807.0074	73.97215
807.154	74.57373
807.3004	72.85739
807.4469	68.82153
807.5934	66.55862
807.7398	70.76426
807.8862	69.99749
808.0327	73.18678
808.1791	73.5459
808.3255	76.10069
808.4719	68.96757
808.6183	67.44179
808.7647	69.96772
808.9111	71.10843
809.0574	71.02167
809.2037	71.01247
809.3501	65.06401
809.4965	68.41786
809.6428	71.72221
809.7891	66.41598
809.9354	62.51244
810.0817	65.8528
810.2279	71.70123
810.3742	65.06988
810.5204	64.04146
810.6667	62.85768
810.8129	69.1329
810.9592	64.64388
811.1054	64.15533
811.2516	66.59267
811.3978	71.3895
811.5439	65.50363
811.6901	65.39928
811.8363	69.76833
811.9825	66.29613
812.1286	67.52666
812.2748	65.2761
812.4209	65.5137
812.567	62.53616
812.7131	61.29721
812.8592	58.58131
813.0053	64.52184
813.1514	65.13564
813.2974	63.24743
813.4435	58.17837
813.5895	60.84463
813.7356	61.71465
813.8816	64.40389
814.0276	59.64807
814.1736	57.23597
814.3196	63.61638
814.4656	61.72607
814.6116	58.20937
814.7576	61.65531
814.9035	61.21132
815.0494	57.63885
815.1954	57.61995
815.3413	58.0829
815.4872	58.83129
815.6331	60.38245
815.779	59.73086
815.9249	65.52002
816.0707	61.17664
816.2166	61.62937
816.3625	57.22672
816.5083	56.72207
816.6542	52.49949
816.8	53.67044
816.9458	56.44143
817.0916	50.58014
817.2374	53.19883
817.3832	60.95005
817.5289	56.58825
817.6747	56.01339
817.8204	54.17476
817.9662	55.46996
818.1119	56.27309
818.2576	52.23004
818.4034	58.02305
818.5491	55.37399
818.6948	58.35933
818.8405	56.5054
818.9861	53.49831
819.1318	58.04575
819.2774	54.86475
819.423	52.31935
819.5687	51.81343
819.7143	54.26314
819.8599	47.30256
820.0055	51.23879
820.1511	53.05365
820.2967	54.94258
820.4422	59.85039
820.5878	59.58003
820.7333	57.48025
820.8788	59.27119
821.0244	52.31666
821.1699	54.90648
821.3154	52.62643
821.4609	58.9171
821.6064	55.50989
821.7519	53.18641
821.8973	56.84241
822.0428	50.46769
822.1882	54.52718
822.3337	56.67271
822.4791	55.49244
822.6245	47.78019
822.7699	50.60625
822.9153	52.13229
823.0607	47.17147
823.2061	47.28567
823.3514	51.49904
823.4968	51.42985
823.6422	54.56496
823.7875	55.22124
823.9328	48.37043
824.0781	51.37909
824.2234	56.28862
824.3687	51.93681
824.514	55.33354
824.6592	56.39585
824.8045	59.21162
824.9498	60.69421
825.095	56.12053
825.2402	56.61425
825.3854	53.6495
825.5306	57.80408
825.6758	55.41974
825.821	57.38226
825.9662	54.74045
826.1114	56.54533
826.2565	53.8195
826.4017	53.93344
826.5468	58.94975
826.692	52.73056
826.837	59.04242
826.9822	55.69258
827.1273	54.92419
827.2723	55.89682
827.4174	51.47998
827.5625	49.64943
827.7075	49.68198
827.8526	49.62171
827.9976	52.03661
828.1426	52.9781
828.2877	53.66138
828.4327	56.45542
828.5776	54.16624
828.7227	51.95623
828.8676	49.55528
829.0126	46.73862
829.1575	45.32293
829.3024	54.39712
829.4474	56.72
829.5923	56.90231
829.7372	54.82405
829.8821	48.07988
830.027	50.60212
830.1719	52.91347
830.3168	46.79511
830.4616	45.8805
830.6064	46.36139
830.7513	50.08287
830.8961	54.77245
831.041	49.54431
831.1857	50.67672
831.3306	56.13111
831.4753	49.95562
831.6201	51.04944
831.7649	49.82776
831.9096	50.96812
832.0544	51.36034
832.1991	50.57022
832.3438	52.1094
832.4885	51.54128
832.6332	50.68106
832.778	50.83422
832.9226	50.83866
833.0673	47.86836
833.2119	50.54216
833.3566	52.49253
833.5012	47.61927
833.6459	47.85604
833.7905	47.7703
833.9351	49.54569
834.0797	51.23419
834.2243	57.06001
834.3688	53.97948
834.5134	55.70866
834.658	48.913
834.8026	52.2202
834.9471	47.63793
835.0916	49.9481
835.2361	48.347
835.3806	48.20917
835.5251	53.46749
835.6696	49.28323
835.8141	46.73217
835.9586	46.30707
836.103	50.05137
836.2474	43.86656
836.3918	46.40491
836.5363	52.4049
836.6807	48.8464
836.8251	51.43323
836.9695	51.0922
837.1138	48.64415
837.2582	56.69378
837.4026	49.53739
837.5469	46.27958
837.6913	50.49631
837.8356	51.43684
837.9799	50.81173
838.1242	55.01226
838.2686	49.21405
838.4128	49.96101
838.5571	49.005
838.7014	50.39006
838.8456	51.69565
838.9899	47.96107
839.1341	42.31144
839.2783	48.54041
839.4225	49.38623
839.5667	53.5645
839.7109	53.14695
839.8551	53.0214
839.9993	46.19782
840.1434	47.97859
840.2876	43.14068
840.4317	47.91632
840.5759	48.25835
840.72	47.8373
840.8641	50.05861
841.0082	48.31622
841.1523	46.76951
841.2963	49.10835
841.4404	51.59273
841.5845	46.92424
841.7285	47.12533
841.8726	44.05678
842.0165	44.63018
842.1606	44.71664
842.3046	46.69951
842.4485	44.66655
842.5925	49.06182
842.7365	45.56467
842.8805	46.79094
843.0244	45.80223
843.1684	45.58748
843.3123	41.36021
843.4562	46.74495
843.6002	48.28351
843.744	45.91879
843.8879	48.66079
844.0318	44.41639
844.1757	43.80901
844.3195	46.87224
844.4634	43.1656
844.6072	47.46021
844.751	50.84473
844.8948	46.6586
845.0386	46.53232
845.1824	46.55388
845.3262	47.91927
845.47	48.71556
845.6138	44.78096
845.7575	40.60642
845.9012	46.9991
846.045	50.91572
846.1887	44.86041
846.3324	40.54892
846.4761	48.90348
846.6198	45.50405
846.7635	43.17942
846.9071	46.56779
847.0508	44.77443
847.1944	45.90148
847.3381	42.95039
847.4817	44.22311
847.6253	48.57879
847.7689	48.45683
847.9125	44.59509
848.0561	40.98134
848.1996	40.56514
848.3432	43.90203
848.4868	44.01027
848.6303	44.72251
848.7738	44.88671
848.9174	45.13964
849.0609	43.82481
849.2043	44.58686
849.3478	44.61457
849.4913	43.09377
849.6348	42.38026
849.7782	40.23569
849.9217	41.26398
850.0651	37.37463
850.2086	42.08109
850.3519	46.6283
850.4954	44.54385
850.6387	39.64164
850.7821	45.68218
850.9255	43.02112
851.0688	39.94482
851.2122	38.85675
851.3555	38.95239
851.4988	43.38036
851.6422	39.45212
851.7855	46.8176
851.9288	43.38121
852.0721	41.05652
852.2153	40.80815
852.3586	39.01151
852.5018	43.27058
852.6451	47.21278
852.7883	39.8995
852.9315	41.25994
853.0748	42.32701
853.218	40.37838
853.3611	37.54458
853.5043	42.23529
853.6475	46.95038
853.7906	42.84183
853.9338	42.16801
854.0769	36.66205
854.22	31.48742
854.3632	34.00699
854.5063	37.70521
854.6494	35.7103
854.7924	36.00713
854.9355	39.13705
855.0786	42.1697
855.2216	41.00333
855.3647	38.67178
855.5077	41.23248
855.6507	43.99984
855.7937	39.98712
855.9367	39.02858
856.0797	41.74508
856.2227	45.64033
856.3657	45.45469
856.5086	38.48365
856.6516	41.67418
856.7945	46.7382
856.9374	46.22013
857.0803	41.18341
857.2232	36.11842
857.3661	39.76361
857.509	35.93386
857.6519	43.36118
857.7947	44.30508
857.9376	41.65804
858.0804	41.47413
858.2232	40.835
858.366	35.08366
858.5089	34.72112
858.6516	41.99941
858.7944	38.75409
858.9372	40.17825
859.08	37.31322
859.2227	37.28588
859.3654	38.12981
859.5082	39.83748
859.6509	40.77468
859.7936	37.69542
859.9363	34.35381
860.079	37.48038
860.2217	38.31662
860.3643	42.34012
860.507	38.3197
860.6496	38.40414
860.7922	36.47873
860.9349	38.6692
861.0775	37.40583
861.2201	34.45108
861.3627	36.89268
861.5052	34.43346
861.6478	35.68433
861.7904	42.36327
861.9329	43.07466
862.0755	39.19829
862.218	41.53043
862.3605	44.67567
862.503	39.86423
862.6455	42.23341
862.788	43.70264
862.9305	40.37742
863.0729	35.27299
863.2154	36.42065
863.3578	38.83958
863.5002	40.78316
863.6426	38.51414
863.7851	33.8158
863.9275	41.09032
864.0698	38.84615
864.2122	37.01672
864.3546	33.7951
864.4969	37.83038
864.6393	40.09035
864.7816	36.46122
864.924	41.44796
865.0662	38.62891
865.2086	37.57574
865.3508	35.82627
865.4931	36.09754
865.6354	37.5962
865.7776	39.77845
865.9199	34.93787
866.0621	32.43491
866.2043	32.02705
866.3466	36.26741
866.4888	36.68612
866.6309	31.63019
866.7731	36.4451
866.9153	35.48066
867.0574	35.81163
867.1996	35.256
867.3417	36.17216
867.4839	35.75193
867.626	41.81673
867.7681	39.81145
867.9102	37.7084
868.0522	34.16895
868.1943	31.20613
868.3364	35.95283
868.4785	36.8335
868.6205	36.99023
868.7625	44.00838
868.9045	34.18267
869.0465	31.50066
869.1885	35.39102
869.3305	34.34661
869.4725	33.49733
869.6144	33.69179
869.7564	38.59239
869.8983	31.459
870.0403	33.26984
870.1822	37.34431
870.3241	35.60838
870.466	35.20464
870.6079	37.6393
870.7498	42.21134
870.8916	38.42331
871.0335	38.103
871.1754	35.29078
871.3171	35.73761
871.459	36.49648
871.6008	38.19216
871.7426	39.67456
871.8844	37.26595
872.0262	34.75449
872.1679	37.38167
872.3097	34.12753
872.4514	31.71055
872.5931	31.80278
872.7349	28.78507
872.8766	32.98993
873.0183	35.48821
873.16	36.17609
873.3017	29.65997
873.4434	31.77163
873.585	33.43128
873.7266	31.35079
873.8683	35.75109
874.0099	35.01953
874.1516	36.3218
874.2932	37.57823
874.4348	29.98295
874.5763	32.20991
874.7179	42.14746
874.8594	37.3969
875.001	32.0566
875.1425	34.99022
875.2841	32.88419
875.4256	33.24646
875.5671	35.51601
875.7086	31.23314
875.85	29.91811
875.9915	31.92654
876.133	30.45097
876.2744	32.89522
876.4159	35.99853
876.5573	39.87222
876.6987	32.79522
876.8401	29.45845
876.9815	30.65187
877.1229	31.80508
877.2643	34.55495
877.4056	36.0858
877.547	35.48199
877.6884	37.28946
877.8297	33.12672
877.971	33.20671
878.1123	33.47846
878.2536	33.29872
878.3949	30.98141
878.5362	29.08632
878.6774	37.8046
878.8187	38.48721
878.9599	35.87804
879.1011	32.66406
879.2424	31.83245
879.3836	36.01587
879.5248	30.41342
879.666	30.30127
879.8071	28.99947
879.9483	28.95183
880.0895	30.65475
880.2306	33.39683
880.3718	33.36066
880.5129	27.05261
880.654	30.23731
880.7951	33.56474
880.9362	33.08664
881.0773	31.42065
881.2183	32.93161
881.3594	30.44127
881.5004	32.13344
881.6414	26.85991
881.7825	33.52098
881.9235	36.76025
882.0645	32.12489
882.2054	34.46067
882.3464	31.36563
882.4874	32.33453
882.6284	33.91607
882.7693	30.69224
882.9103	30.85888
883.0512	30.37229
883.1921	29.91026
883.333	28.89112
883.4739	30.06296
883.6147	29.74512
883.7556	32.06057
883.8965	29.78613
884.0374	25.79889
884.1782	27.44726
884.319	28.99761
884.4598	27.04082
884.6006	29.32981
884.7414	33.38195
884.8822	36.02413
885.0229	33.04964
885.1637	32.6958
885.3044	28.94481
885.4452	25.74653
885.5859	29.37777
885.7266	32.40951
885.8673	33.01049
886.008	31.22402
886.1487	27.68706
886.2894	32.73043
886.43	25.49351
886.5707	26.1978
886.7113	31.35969
886.8519	27.71687
886.9926	29.06734
887.1331	26.14722
887.2737	30.1635
887.4143	31.26894
887.5549	36.1789
887.6954	30.16734
887.836	29.87172
887.9765	28.95872
888.1171	27.97867
888.2576	28.13106
888.3981	26.41575
888.5386	30.55164
888.679	27.09628
888.8195	35.05331
888.96	30.99188
889.1004	27.7151
889.2408	29.75873
889.3813	28.5738
889.5217	30.73266
889.6621	28.80185
889.8025	23.17102
889.9429	30.06016
890.0833	26.9918
890.2236	27.6092
890.364	27.10224
890.5043	28.01114
890.6446	30.21128
890.7849	30.14913
890.9252	32.73212
891.0655	29.6045
891.2058	34.11718
891.3461	29.83219
891.4863	26.7541
891.6266	28.83999
891.7668	26.75664
891.907	31.31408
892.0472	27.45876
892.1874	26.26555
892.3276	30.54825
892.4678	30.77826
892.608	25.18237
892.7481	25.43116
892.8883	26.09674
893.0284	27.152
893.1685	25.82359
893.3087	26.88333
893.4487	24.77663
893.5889	26.99797
893.7289	29.96119
893.869	34.0947
894.009	30.09867
894.1491	28.88381
894.2891	30.17588
894.4291	24.57642
894.5692	23.94994
894.7092	26.61685
894.8491	30.60583
894.9891	29.26373
895.1291	27.79692
895.269	31.20737
895.409	27.29343
895.549	26.64609
895.6888	26.73227
895.8288	24.53962
895.9687	25.93097
896.1086	27.51274
896.2484	23.91467
896.3883	25.88934
896.5281	19.76128
896.668	24.93958
896.8079	28.6534
896.9476	24.92998
897.0875	24.82661
897.2272	22.16676
897.3671	29.06072
897.5068	27.40916
897.6466	22.85758
897.7864	19.96919
897.9261	24.02124
898.0658	26.60197
898.2056	21.63562
898.3453	24.7046
898.4849	23.27517
898.6246	22.46977
898.7643	24.50933
898.904	23.13538
899.0436	23.08175
899.1833	23.45766
899.3229	26.92476
899.4625	28.96826
899.6021	27.04132
899.7417	29.06717
899.8813	25.87085
900.0209	30.05195
900.1605	27.00429
900.3	26.48314
900.4395	25.95834
900.579	27.00279
900.7186	25.06979
900.8581	24.30075
900.9976	26.17785
901.1371	28.30259
901.2766	21.84591
901.416	26.48402
901.5555	22.46572
901.6949	23.42573
901.8344	24.63735
901.9738	24.98501
902.1132	27.87079
902.2526	24.94935
902.3919	20.67626
902.5313	25.19915
902.6707	23.32524
