SPECTRUM DATA FILE
SpectrumCount:	1
PixelCount:	3648
UserName:	ToughBook User
SampleName:	
LightSource:	
Comments:	
DeviceName:	Qwave
DeviceManufacturer:	Broadcom
DeviceSerialNo:	11311

Name:	last spectrum
Date:	2024-05-02T14:50:10.8925371+02:00
ExposureTime:	0.02
TemporalAvg:	1
IntensityUnit:	normalizedCounts
CCDLoadLevel:	0.0469164
Temperature:	32.47928
DiagramColor:	200
ProcessingSteps:	335

Wavelength [nm]	Intensity1
334.421	11.3423
334.5891	14.12764
334.7573	11.57267
334.9254	10.78358
335.0935	8.484306
335.2616	11.31627
335.4297	12.21075
335.5978	11.68465
335.7659	9.355005
335.934	10.28808
336.1021	10.08843
336.2701	9.56105
336.4382	8.738641
336.6063	9.831096
336.7744	9.567802
336.9424	2.946151
337.1105	7.140007
337.2785	8.0127
337.4466	8.436745
337.6146	13.58948
337.7827	12.96623
337.9507	12.39266
338.1187	10.76402
338.2867	10.98842
338.4548	13.98651
338.6228	8.747703
338.7908	7.686648
338.9588	9.733515
339.1268	10.53735
339.2948	10.07488
339.4628	8.884114
339.6308	13.1453
339.7988	9.967561
339.9667	9.709268
340.1347	11.55811
340.3027	9.971182
340.4707	11.82833
340.6386	8.799331
340.8066	10.7985
340.9745	6.754233
341.1425	11.74257
341.3104	10.63378
341.4784	11.44518
341.6463	13.17092
341.8142	11.50133
341.9821	10.87793
342.1501	14.77901
342.318	11.32745
342.4859	11.61405
342.6538	11.82719
342.8217	9.642706
342.9896	10.46952
343.1575	12.9967
343.3254	11.48712
343.4933	9.26265
343.6612	11.9918
343.829	14.53158
343.9969	10.58895
344.1648	3.835531
344.3326	11.91848
344.5005	12.37963
344.6683	12.00928
344.8362	15.09768
345.004	9.152788
345.1719	14.17115
345.3397	14.82935
345.5075	11.81707
345.6754	12.2468
345.8432	15.65986
346.011	16.09547
346.1788	14.85623
346.3466	13.20397
346.5144	11.29813
346.6822	14.49041
346.85	15.33861
347.0178	16.20625
347.1856	11.60384
347.3534	14.19646
347.5211	14.9822
347.6889	8.591846
347.8567	8.530723
348.0244	11.39602
348.1922	11.81305
348.3599	10.55626
348.5277	11.84109
348.6954	13.7222
348.8632	14.04932
349.0309	11.33096
349.1986	13.04297
349.3663	15.64992
349.5341	13.43696
349.7018	11.7278
349.8695	14.49017
350.0372	13.93139
350.2049	18.36288
350.3726	17.83098
350.5403	13.83422
350.7079	15.92373
350.8756	11.22668
351.0433	16.5915
351.211	15.2006
351.3786	12.39514
351.5463	12.1689
351.714	10.77411
351.8816	11.05957
352.0493	16.01526
352.2169	11.02886
352.3846	13.01909
352.5522	13.85594
352.7198	12.87707
352.8875	16.1746
353.0551	10.67478
353.2227	12.22844
353.3903	16.1618
353.5579	19.86487
353.7255	16.11358
353.8931	10.36093
354.0607	10.86095
354.2283	13.23661
354.3958	15.84578
354.5634	17.80141
354.731	10.41844
354.8986	14.9564
355.0661	21.60259
355.2337	18.30941
355.4012	14.73498
355.5688	16.39075
355.7363	18.90198
355.9039	20.04727
356.0714	16.04684
356.239	16.3858
356.4065	13.94347
356.574	14.56514
356.7415	13.61009
356.909	16.07124
357.0765	15.67147
357.244	12.25107
357.4115	15.13834
357.579	13.98134
357.7465	16.81928
357.914	15.7162
358.0815	9.246055
358.249	10.72514
358.4164	13.33036
358.5839	11.26679
358.7513	13.44867
358.9188	13.77907
359.0862	18.73633
359.2537	13.65554
359.4211	17.83446
359.5886	17.73023
359.756	20.64598
359.9234	14.09699
360.0909	14.97715
360.2583	17.19075
360.4257	15.53883
360.5931	15.12683
360.7605	17.30941
360.9279	15.33156
361.0953	19.1529
361.2627	19.96722
361.4301	18.92806
361.5974	18.24562
361.7648	21.11154
361.9322	14.70244
362.0995	17.53994
362.2669	16.84355
362.4343	14.38813
362.6016	15.67662
362.769	16.28445
362.9363	16.85808
363.1036	15.11709
363.271	16.03475
363.4383	14.39246
363.6056	18.58523
363.7729	15.89766
363.9402	18.83454
364.1075	18.52056
364.2748	14.59665
364.4421	17.8197
364.6094	16.57432
364.7767	18.31857
364.944	16.27226
365.1113	19.81213
365.2786	20.22329
365.4458	19.928
365.6131	23.48627
365.7803	23.38908
365.9476	19.18288
366.1148	17.2454
366.2821	20.44438
366.4493	27.3315
366.6166	21.34763
366.7838	17.02993
366.951	17.55445
367.1182	22.2816
367.2855	19.85847
367.4527	16.33147
367.6199	21.25121
367.7871	20.43021
367.9543	17.83811
368.1215	19.86004
368.2886	18.42109
368.4558	19.16745
368.623	20.20772
368.7902	20.22862
368.9573	19.48287
369.1245	21.24722
369.2917	23.21919
369.4588	22.74494
369.6259	19.85407
369.7931	16.70677
369.9602	20.34481
370.1274	27.49185
370.2945	21.04928
370.4616	10.95675
370.6287	18.28209
370.7958	18.44971
370.963	22.00132
371.1301	25.26582
371.2971	22.69789
371.4643	22.82376
371.6313	23.69792
371.7984	17.75273
371.9655	21.33606
372.1326	17.54124
372.2997	18.1765
372.4667	22.58755
372.6338	22.96378
372.8008	24.95535
372.9679	21.38876
373.1349	20.11239
373.3019	19.70701
373.469	20.87369
373.636	19.72273
373.803	22.48345
373.9701	22.67107
374.1371	22.91398
374.3041	24.03113
374.4711	22.93887
374.6381	18.65239
374.8051	18.52599
374.9721	20.38241
375.1391	23.46111
375.3061	20.7216
375.473	24.27474
375.64	23.57925
375.8069	23.46209
375.9739	24.53835
376.1409	24.31262
376.3078	20.76873
376.4748	23.32597
376.6417	21.2369
376.8087	28.70305
376.9756	22.28118
377.1425	23.51725
377.3094	25.20369
377.4763	25.41534
377.6432	21.69564
377.8102	26.26074
377.9771	23.13161
378.144	23.68865
378.3109	30.72874
378.4777	28.5792
378.6446	30.10103
378.8115	24.83224
378.9784	21.38065
379.1452	20.12835
379.3121	25.11643
379.4789	22.62974
379.6458	23.06102
379.8127	24.06017
379.9795	25.54615
380.1463	26.26693
380.3131	26.64159
380.48	29.85092
380.6468	29.60498
380.8136	27.28816
380.9804	29.21773
381.1472	27.08112
381.314	21.49646
381.4808	23.2034
381.6476	24.75374
381.8144	23.25461
381.9812	24.06592
382.148	23.27829
382.3147	19.91974
382.4815	21.29255
382.6483	22.24472
382.815	22.89573
382.9818	18.23055
383.1485	19.48864
383.3153	20.58927
383.482	19.49369
383.6487	19.76321
383.8155	17.21062
383.9822	18.56853
384.1489	23.66868
384.3156	30.19429
384.4823	24.11535
384.649	26.90073
384.8157	26.439
384.9824	29.70182
385.1491	27.67281
385.3158	20.52765
385.4825	20.15592
385.6491	26.94852
385.8158	24.86914
385.9825	24.95234
386.1491	26.49721
386.3157	24.07862
386.4824	30.6739
386.649	26.11392
386.8157	27.17714
386.9823	22.50353
387.1489	22.93019
387.3156	26.02975
387.4821	32.61713
387.6488	25.55565
387.8154	25.12065
387.982	29.03134
388.1486	24.03638
388.3152	26.84994
388.4818	26.68504
388.6483	27.06539
388.8149	22.65558
388.9815	25.09384
389.148	30.97992
389.3146	28.47684
389.4811	30.50887
389.6477	29.4305
389.8142	32.01382
389.9808	32.06345
390.1473	32.96178
390.3138	31.12339
390.4804	29.64601
390.6469	30.62438
390.8134	31.97595
390.9799	31.34636
391.1464	34.10244
391.3129	35.08841
391.4794	37.11113
391.6459	39.8302
391.8124	38.24478
391.9789	34.81336
392.1453	30.1923
392.3118	28.53354
392.4782	27.77855
392.6447	27.09553
392.8112	16.96869
392.9776	20.10127
393.144	16.98139
393.3105	9.856445
393.4769	17.95544
393.6433	17.7106
393.8098	24.03999
393.9762	25.0529
394.1426	28.6951
394.309	32.32056
394.4754	32.92853
394.6418	37.76331
394.8082	33.56326
394.9746	40.08937
395.141	39.08839
395.3073	40.99417
395.4737	40.52623
395.64	39.68377
395.8064	35.93134
395.9728	33.34224
396.1391	33.40113
396.3055	28.80166
396.4718	30.00822
396.6381	27.88162
396.8045	23.69958
396.9708	22.62448
397.1371	21.65023
397.3034	21.88181
397.4697	32.25716
397.636	37.53058
397.8023	40.89557
397.9686	46.23037
398.1349	48.86187
398.3012	43.91373
398.4675	42.74428
398.6337	45.09119
398.8	42.74751
398.9662	51.70013
399.1325	48.0369
399.2988	48.54395
399.465	47.6206
399.6313	51.36349
399.7975	50.15831
399.9637	46.73156
400.1299	45.61761
400.2961	53.05919
400.4624	50.29456
400.6286	42.80564
400.7948	45.2587
400.961	53.58208
401.1272	52.02195
401.2934	49.25993
401.4595	52.70741
401.6257	52.62253
401.7919	52.06107
401.9581	59.82081
402.1242	53.19891
402.2904	51.08462
402.4565	52.94797
402.6227	52.96059
402.7888	53.08215
402.955	52.42126
403.1211	46.39007
403.2872	42.5247
403.4533	47.25713
403.6194	50.64608
403.7856	55.77503
403.9517	54.94954
404.1177	57.10002
404.2838	53.3037
404.4499	49.29931
404.616	40.38219
404.7821	48.84015
404.9482	54.11638
405.1142	51.27052
405.2803	50.03269
405.4464	52.89267
405.6124	52.68793
405.7784	45.06022
405.9445	53.74156
406.1105	54.63064
406.2766	53.01212
406.4426	48.51438
406.6086	52.93742
406.7746	54.88317
406.9406	51.3559
407.1066	52.03103
407.2726	49.8074
407.4386	54.24335
407.6046	55.23488
407.7706	52.20044
407.9366	53.65946
408.1025	58.39529
408.2685	56.78031
408.4344	55.20323
408.6004	60.22542
408.7664	63.86156
408.9323	63.92556
409.0983	57.48766
409.2642	59.01811
409.4301	63.17103
409.596	57.59678
409.762	59.0136
409.9279	52.64933
410.0938	49.39541
410.2597	54.43703
410.4256	54.63966
410.5915	57.79507
410.7574	59.60881
410.9232	56.44527
411.0891	52.92711
411.255	61.23715
411.4209	61.57455
411.5867	67.54819
411.7526	63.95059
411.9184	66.60974
412.0843	65.4755
412.2501	66.14365
412.4159	64.4101
412.5818	65.53111
412.7476	65.69188
412.9134	65.09377
413.0792	62.71373
413.245	62.54078
413.4108	61.42341
413.5766	63.19227
413.7424	65.45793
413.9082	65.73292
414.074	68.55899
414.2397	63.66499
414.4055	64.09045
414.5713	66.58657
414.737	64.6102
414.9028	71.38609
415.0685	65.38541
415.2343	62.60681
415.4	64.27267
415.5658	63.547
415.7315	62.40277
415.8972	61.55941
416.0629	70.70685
416.2286	68.30207
416.3943	66.22811
416.56	65.39302
416.7257	64.87834
416.8914	69.98506
417.0571	70.46294
417.2228	61.99291
417.3884	61.04499
417.5541	61.07738
417.7198	64.55227
417.8854	65.31134
418.0511	67.75792
418.2167	65.62875
418.3824	67.90482
418.548	69.96526
418.7136	66.56284
418.8792	64.29953
419.0449	69.71613
419.2105	75.08067
419.3761	71.53679
419.5417	68.18459
419.7073	64.7115
419.8729	65.78426
420.0385	66.46483
420.204	64.31837
420.3696	70.58077
420.5352	76.93707
420.7007	71.21756
420.8663	74.54485
421.0319	69.97801
421.1974	69.28793
421.3629	74.99629
421.5285	78.03906
421.694	69.6778
421.8595	65.929
422.0251	73.51392
422.1906	74.4295
422.3561	68.28986
422.5216	64.90604
422.6871	60.16665
422.8526	67.17614
423.0181	76.39716
423.1835	73.76466
423.349	74.86404
423.5145	74.86192
423.68	70.49178
423.8454	73.36659
424.0109	75.33813
424.1763	78.02657
424.3418	71.8453
424.5072	76.75572
424.6726	75.68453
424.838	68.98464
425.0035	71.56191
425.1689	74.61401
425.3343	75.34299
425.4997	78.04025
425.6651	80.28831
425.8305	76.59424
425.9959	76.14875
426.1613	72.88092
426.3267	81.28436
426.492	80.0782
426.6574	81.04105
426.8228	72.57064
426.9881	73.55402
427.1534	67.77166
427.3188	63.0443
427.4841	65.36958
427.6495	71.66354
427.8148	76.87952
427.9801	78.26932
428.1454	76.73184
428.3107	73.38099
428.476	73.55962
428.6414	75.52599
428.8066	67.93015
428.9719	69.23584
429.1372	71.56429
429.3025	74.56256
429.4678	73.31477
429.633	68.4473
429.7983	62.49897
429.9636	56.32452
430.1288	54.25272
430.294	59.14062
430.4593	61.68405
430.6245	52.93072
430.7897	48.55016
430.955	56.24815
431.1202	62.1171
431.2854	63.57399
431.4506	71.42754
431.6158	83.84618
431.781	91.21552
431.9462	89.02728
432.1114	84.77272
432.2766	78.66467
432.4417	72.31983
432.6069	73.37151
432.772	76.73254
432.9372	83.60333
433.1024	87.01228
433.2675	88.53831
433.4326	93.12746
433.5977	86.28759
433.7629	77.18285
433.928	70.05026
434.0931	67.90293
434.2582	71.49305
434.4233	78.48882
434.5884	90.07259
434.7535	88.02087
434.9186	95.73075
435.0837	88.18159
435.2488	83.05402
435.4138	81.17641
435.5789	83.82339
435.744	87.91605
435.909	90.25043
436.0741	93.14635
436.2391	101.5234
436.4042	101.4957
436.5692	92.6117
436.7342	92.28773
436.8992	92.38985
437.0643	89.32392
437.2293	83.55275
437.3943	83.86337
437.5593	91.61234
437.7243	86.48472
437.8893	96.50405
438.0542	94.50412
438.2192	89.64011
438.3842	79.66745
438.5491	79.41456
438.7141	87.94839
438.8791	91.92351
439.044	87.62493
439.209	90.95399
439.3739	92.35522
439.5388	98.68426
439.7037	96.795
439.8687	96.58038
440.0336	94.23489
440.1985	92.56565
440.3634	90.93156
440.5283	89.22556
440.6932	91.53522
440.8581	98.65082
441.0229	105.0595
441.1878	104.9267
441.3527	100.5019
441.5175	98.07774
441.6824	101.2805
441.8472	102.5451
442.0121	109.8667
442.1769	103.3903
442.3418	107.4888
442.5066	101.1437
442.6714	107.5721
442.8362	105.9623
443.001	107.6209
443.1659	105.4005
443.3307	101.315
443.4955	98.38561
443.6602	102.7688
443.825	101.6729
443.9898	104.0701
444.1546	107.4894
444.3193	108.103
444.4841	100.6816
444.6488	109.164
444.8136	111.6871
444.9783	112.6464
445.1431	107.9841
445.3078	109.9913
445.4725	105.9072
445.6372	96.56925
445.802	91.7295
445.9667	90.66022
446.1314	103.3298
446.2961	101.7117
446.4608	104.067
446.6255	106.8861
446.7901	106.7451
446.9548	102.8026
447.1195	101.4984
447.2841	108.1184
447.4488	113.0395
447.6134	113.4569
447.7781	119.0745
447.9427	111.7104
448.1074	106.6551
448.272	110.466
448.4366	116.0821
448.6012	112.3621
448.7658	114.2699
448.9305	124.2212
449.095	121.446
449.2596	113.0025
449.4242	111.7841
449.5888	112.1793
449.7534	118.6256
449.9179	119.8834
450.0825	119.3397
450.2471	123.5001
450.4116	125.8314
450.5762	125.148
450.7407	127.1933
450.9052	123.3167
451.0698	123.3628
451.2343	121.0826
451.3988	121.9778
451.5633	117.6202
451.7278	119.4457
451.8923	121.2267
452.0568	126.6023
452.2213	125.8776
452.3858	123.7759
452.5503	120.3886
452.7148	109.6505
452.8792	110.3423
453.0437	109.8842
453.2081	112.3395
453.3726	115.1827
453.537	114.053
453.7015	120.1832
453.8659	129.1317
454.0303	124.3782
454.1947	123.7953
454.3592	122.7148
454.5236	121.8939
454.688	114.5697
454.8524	117.4716
455.0168	118.0954
455.1811	121.1212
455.3455	118.1359
455.5099	115.9865
455.6743	121.3509
455.8386	122.9963
456.003	127.8376
456.1673	133.1194
456.3317	128.5623
456.496	125.9119
456.6603	126.9801
456.8246	127.1864
456.989	130.325
457.1533	130.539
457.3176	119.6803
457.4819	126.7882
457.6462	133.5783
457.8105	130.7315
457.9748	129.6185
458.1391	126.5948
458.3033	122.3137
458.4676	124.364
458.6319	122.5039
458.7961	129.5191
458.9604	127.4209
459.1246	124.1445
459.2888	125.0231
459.4531	122.7128
459.6173	125.692
459.7815	129.4963
459.9457	127.461
460.11	126.8908
460.2741	129.9924
460.4384	122.9619
460.6025	121.0434
460.7667	126.6707
460.9309	127.53
461.0951	129.9436
461.2592	135.9655
461.4234	135.8221
461.5876	129.5754
461.7517	131.4002
461.9159	136.1993
462.08	132.5194
462.2441	130.6671
462.4082	123.8369
462.5724	134.3329
462.7365	135.4068
462.9006	131.9307
463.0647	130.009
463.2288	136.4632
463.3929	137.6272
463.557	128.4444
463.721	131.8427
463.8851	129.5136
464.0492	126.1857
464.2132	131.3126
464.3773	127.9329
464.5414	128.7311
464.7054	124.9128
464.8694	122.795
465.0334	128.127
465.1975	131.9301
465.3615	131.4073
465.5255	133.2828
465.6895	128.0381
465.8535	126.7324
466.0175	131.4204
466.1815	138.3334
466.3455	131.4118
466.5095	129.5968
466.6734	121.4456
466.8374	121.2549
467.0014	125.0306
467.1653	132.8252
467.3293	134.7621
467.4932	133.0197
467.6571	139.4209
467.8211	137.5249
467.985	128.354
468.1489	124.814
468.3128	132.7723
468.4767	133.7312
468.6406	134.4487
468.8045	139.8146
468.9684	131.9484
469.1323	133.7431
469.2962	133.0555
469.46	140.8502
469.6239	145.6706
469.7878	136.3362
469.9516	137.1867
470.1154	132.5723
470.2793	123.6531
470.4431	127.396
470.607	131.8911
470.7708	130.7528
470.9346	133.231
471.0984	134.5658
471.2622	132.2593
471.426	131.7436
471.5898	137.9338
471.7536	140.9423
471.9174	145.0052
472.0811	145.263
472.2449	142.0288
472.4087	140.8738
472.5724	145.6546
472.7362	142.2132
472.8999	138.8101
473.0637	138.1914
473.2274	140.452
473.3911	143.1835
473.5548	147.3277
473.7185	138.9771
473.8822	145.7598
474.0459	146.2128
474.2096	145.6048
474.3733	142.1216
474.537	141.7371
474.7007	143.1062
474.8643	149.2364
475.028	147.0484
475.1917	148.1467
475.3553	139.0356
475.519	140.853
475.6826	134.2669
475.8463	142.5076
476.0099	140.6134
476.1735	139.5891
476.3371	139.9342
476.5007	137.0307
476.6643	137.0223
476.8279	136.212
476.9915	141.0765
477.1551	135.4457
477.3187	147.2494
477.4823	149.8763
477.6458	148.5664
477.8094	146.2703
477.9729	145.2225
478.1365	149.8325
478.3	144.1372
478.4636	141.4552
478.6271	140.4949
478.7906	140.4516
478.9541	137.2328
479.1176	136.14
479.2812	140.845
479.4447	142.5399
479.6082	149.0638
479.7716	142.733
479.9351	137.3663
480.0986	134.9823
480.2621	142.1662
480.4255	141.5023
480.589	143.0287
480.7524	140.0104
480.9159	139.1088
481.0793	142.999
481.2428	139.1847
481.4062	142.6618
481.5696	147.3704
481.733	152.6212
481.8964	147.3083
482.0598	137.5391
482.2232	139.5824
482.3866	134.8752
482.55	143.3436
482.7134	146.5719
482.8768	149.588
483.0401	139.4454
483.2035	140.1898
483.3668	144.5383
483.5302	140.5735
483.6935	149.2541
483.8568	150.8228
484.0202	142.8427
484.1835	142.3724
484.3468	140.7064
484.5101	139.2754
484.6734	142.8846
484.8367	144.051
485	135.7959
485.1633	142.3828
485.3266	139.3847
485.4899	142.426
485.6531	136.1739
485.8164	130.2445
485.9796	118.2052
486.1429	114.553
486.3061	119.0866
486.4694	126.9439
486.6326	132.1043
486.7958	133.5065
486.959	134.3353
487.1223	134.2917
487.2855	133.9404
487.4486	139.2274
487.6118	145.5737
487.775	141.4849
487.9382	146.6408
488.1014	148.4051
488.2646	146.6362
488.4277	148.1066
488.5909	142.6373
488.754	142.6511
488.9171	142.0678
489.0803	140.9882
489.2434	142.9374
489.4066	146.5644
489.5697	146.1655
489.7328	152.4109
489.8959	153.1216
490.059	149.549
490.2221	149.4217
490.3852	149.6062
490.5482	154.36
490.7113	155.7764
490.8744	146.7836
491.0374	141.3019
491.2005	145.7587
491.3636	151.6405
491.5266	151.3674
491.6896	147.7147
491.8527	145.041
492.0157	144.4332
492.1787	134.806
492.3417	135.5999
492.5047	141.2054
492.6677	149.2334
492.8307	152.5809
492.9937	151.9341
493.1567	150.3215
493.3196	148.6221
493.4826	150.4999
493.6456	150.2047
493.8085	143.2833
493.9715	145.6583
494.1344	148.7601
494.2974	147.7568
494.4603	158.1236
494.6232	146.9618
494.7861	152.7959
494.949	153.367
495.1119	153.2339
495.2748	150.5945
495.4377	149.0381
495.6006	143.6949
495.7635	142.448
495.9264	149.6377
496.0892	150.4859
496.2521	155.2212
496.4149	155.3866
496.5778	154.6423
496.7407	147.6389
496.9035	143.4261
497.0663	147.6615
497.2291	150.3593
497.3919	153.0791
497.5547	155.5487
497.7176	151.0962
497.8804	153.4048
498.0432	151.0476
498.2059	140.2487
498.3687	141.9226
498.5315	141.7514
498.6942	145.8215
498.857	155.1516
499.0198	162.4661
499.1825	160.8168
499.3452	150.5027
499.508	153.0258
499.6707	157.2859
499.8334	155.0732
499.9962	151.8788
500.1589	156.822
500.3216	151.0883
500.4843	144.3466
500.6469	143.1199
500.8096	146.6149
500.9723	155.0812
501.135	152.4845
501.2976	147.2425
501.4603	144.8394
501.623	146.3894
501.7856	144.7966
501.9482	150.9888
502.1109	145.217
502.2735	147.746
502.4361	151.9658
502.5987	150.3894
502.7614	146.1061
502.924	153.028
503.0865	159.4382
503.2491	158.0376
503.4117	150.1852
503.5743	153.2868
503.7368	156.5832
503.8994	150.5191
504.062	143.7719
504.2245	140.5165
504.3871	149.0604
504.5496	155.1578
504.7121	152.4415
504.8746	150.2074
505.0372	147.7923
505.1997	152.9914
505.3622	153.5617
505.5247	159.1302
505.6872	163.9381
505.8497	159.8574
506.0121	165.3713
506.1746	161.2655
506.3371	164.8029
506.4995	160.2317
506.662	158.1659
506.8244	153.7443
506.9869	149.1784
507.1493	155.3019
507.3117	159.6478
507.4742	156.7031
507.6366	157.1104
507.799	152.185
507.9614	146.8802
508.1238	146.0927
508.2862	158.2881
508.4485	160.0674
508.6109	158.087
508.7733	160.8595
508.9357	158.9945
509.098	164.4194
509.2604	165.7429
509.4227	169.4285
509.5851	157.6265
509.7474	157.3477
509.9097	156.6065
510.072	156.5702
510.2343	156.8828
510.3966	162.3077
510.5589	158.3687
510.7212	152.6386
510.8835	155.4518
511.0458	157.3566
511.2081	159.7474
511.3703	167.6788
511.5326	163.5941
511.6949	167.4446
511.8571	167.4396
512.0193	164.2819
512.1816	162.0888
512.3438	151.3636
512.506	153.6973
512.6682	152.5168
512.8304	157.0708
512.9926	160.9447
513.1548	154.9651
513.317	157.3615
513.4792	158.3398
513.6414	155.5251
513.8035	154.1478
513.9657	146.1376
514.1279	152.647
514.29	155.0889
514.4521	148.866
514.6143	154.9667
514.7764	157.2453
514.9385	156.7644
515.1006	156.3702
515.2628	149.0463
515.4249	154.63
515.587	157.6321
515.7491	153.318
515.9111	152.9717
516.0732	156.1112
516.2353	156.0005
516.3973	146.5014
516.5594	144.6405
516.7214	135.5784
516.8835	128.442
517.0455	129.3438
517.2076	130.1313
517.3696	131.4774
517.5316	142.4751
517.6937	150.0288
517.8557	153.4224
518.0176	156.8989
518.1796	143.7048
518.3416	132.2026
518.5036	130.8136
518.6656	142.0213
518.8275	157.3085
518.9895	152.4516
519.1514	154.4416
519.3134	154.2401
519.4753	146.7144
519.6373	149.2888
519.7992	156.0306
519.9611	160.2576
520.123	158.7615
520.2849	157.8133
520.4468	160.1852
520.6087	147.3726
520.7706	151.7599
520.9325	156.4648
521.0944	157.782
521.2562	151.1592
521.4181	153.6757
521.58	158.1702
521.7418	160.915
521.9036	159.5356
522.0655	157.5961
522.2273	160.5579
522.3891	157.5701
522.551	153.7506
522.7128	148.4274
522.8746	150.0213
523.0363	150.67
523.1981	160.2571
523.3599	153.1109
523.5217	156.9449
523.6835	160.421
523.8452	161.6829
524.007	171.444
524.1687	161.4799
524.3304	160.8428
524.4922	164.2151
524.6539	163.3057
524.8157	164.3516
524.9774	163.1003
525.1391	161.7595
525.3008	160.0851
525.4625	158.8396
525.6241	158.6335
525.7858	164.4403
525.9475	159.9791
526.1092	164.9948
526.2709	154.7324
526.4325	149.977
526.5942	137.0056
526.7558	142.8634
526.9174	147.2245
527.079	146.9918
527.2407	149.0584
527.4023	151.9705
527.5639	157.2115
527.7255	157.7793
527.8871	161.4723
528.0487	165.7043
528.2103	158.0813
528.3718	153.4924
528.5334	160.0504
528.695	167.7507
528.8565	169.4083
529.0181	173.9364
529.1796	172.7104
529.3412	166.9489
529.5027	169.2442
529.6642	158.8904
529.8257	159.042
529.9872	164.4908
530.1487	167.318
530.3102	172.683
530.4717	168.9671
530.6332	167.3
530.7947	168.4841
530.9562	173.459
531.1176	170.1697
531.2791	164.0901
531.4405	164.7653
531.6019	165.712
531.7634	168.3018
531.9248	168.4533
532.0862	166.3481
532.2477	159.1119
532.4091	154.5009
532.5704	155.0251
532.7319	156.6084
532.8932	150.3112
533.0546	151.196
533.216	161.1382
533.3774	164.6894
533.5388	163.4982
533.7001	169.2996
533.8615	167.3598
534.0228	158.714
534.1841	155.8699
534.3455	162.4121
534.5068	166.3638
534.6681	171.8423
534.8293	168.1529
534.9907	164.9555
535.152	170.1856
535.3132	168.4835
535.4745	163.4548
535.6358	167.5563
535.7971	174.6376
535.9583	175.1981
536.1196	170.1149
536.2808	165.6107
536.4421	162.7711
536.6033	159.497
536.7645	164.5663
536.9258	154.1071
537.087	155.8849
537.2482	154.486
537.4094	159.9542
537.5706	169.8517
537.7318	172.6782
537.8929	165.7402
538.0541	168.5789
538.2153	166.1192
538.3764	156.531
538.5376	160.0486
538.6987	163.2157
538.8599	162.0596
539.021	154.9209
539.1821	157.1616
539.3432	162.4483
539.5043	153.8408
539.6655	160.7117
539.8265	161.7773
539.9876	155.2847
540.1487	157.5629
540.3098	158.661
540.4708	154.016
540.6319	145.5333
540.793	151.6056
540.954	154.1061
541.1151	150.9316
541.2761	158.9039
541.4371	157.95
541.5981	153.5094
541.7592	161.2805
541.9202	169.2062
542.0812	167.4309
542.2422	158.5786
542.4031	157.0541
542.5641	153.6695
542.7251	152.4593
542.886	157.6566
543.0471	154.8633
543.208	157.7012
543.369	153.8804
543.5298	158.1994
543.6908	162.4277
543.8517	167.545
544.0126	162.9988
544.1736	166.1246
544.3345	161.1292
544.4954	162.9005
544.6563	156.6504
544.8171	155.931
544.978	158.446
545.1389	166.8808
545.2997	165.4707
545.4606	155.3488
545.6215	160.0978
545.7823	159.2208
545.9432	160.9809
546.104	161.6865
546.2648	156.4642
546.4256	155.1575
546.5864	161.4744
546.7473	168.7284
546.908	165.4455
547.0688	163.8035
547.2296	163.6904
547.3904	158.9449
547.5511	154.3453
547.7119	158.2692
547.8727	158.4509
548.0334	156.9973
548.1942	163.6116
548.3549	165.0999
548.5156	165.694
548.6763	163.1172
548.837	158.813
548.9977	164.4365
549.1584	163.2549
549.3192	163.8912
549.4798	164.1844
549.6405	162.624
549.8011	164.6996
549.9619	167.4868
550.1225	169.2355
550.2831	163.9969
550.4438	165.6063
550.6044	168.1234
550.765	165.2147
550.9257	166.5699
551.0863	163.1571
551.2469	164.209
551.4075	162.7824
551.5681	164.1867
551.7287	167.6812
551.8893	167.3852
552.0498	164.6212
552.2104	170.627
552.371	161.4846
552.5315	162.9129
552.6921	163.6973
552.8526	158.4519
553.0131	162.4818
553.1736	162.6416
553.3342	162.271
553.4947	166.4067
553.6552	176.0587
553.8157	174.6742
553.9762	168.0338
554.1367	167.2792
554.2971	167.0439
554.4576	161.8027
554.618	161.5101
554.7785	163.3981
554.939	169.2956
555.0994	168.4857
555.2598	164.4257
555.4203	162.463
555.5807	162.9307
555.7411	162.1234
555.9015	164.7379
556.0619	167.1886
556.2223	164.5659
556.3827	168.3809
556.5431	163.6794
556.7034	161.5148
556.8638	164.5518
557.0242	160.6007
557.1845	162.223
557.3448	163.0949
557.5052	161.5201
557.6655	159.5644
557.8259	166.7199
557.9861	167.2818
558.1465	163.5846
558.3068	166.1943
558.467	163.8375
558.6274	161.6805
558.7877	162.4651
558.9479	156.3212
559.1082	156.0122
559.2684	158.3539
559.4287	157.7936
559.5889	162.3339
559.7491	162.1694
559.9094	159.7524
560.0696	158.9059
560.2299	155.761
560.3901	159.7324
560.5502	165.3539
560.7104	165.0015
560.8707	169.5278
561.0308	179.2327
561.191	168.315
561.3511	164.9893
561.5114	167.876
561.6714	164.03
561.8316	158.0394
561.9918	164.6313
562.1519	168.7953
562.312	173.7211
562.4722	175.2146
562.6323	170.76
562.7924	165.96
562.9525	169.3553
563.1125	163.3497
563.2726	166.3433
563.4327	168.8447
563.5928	165.4212
563.7528	160.3427
563.9129	167.147
564.0729	158.4953
564.233	166.6283
564.393	167.6107
564.553	166.7319
564.7131	163.7863
564.873	167.3005
565.0331	161.6387
565.1931	170.8277
565.353	162.1747
565.5131	158.8825
565.673	155.4655
565.833	160.7011
565.9929	158.9418
566.1529	158.0275
566.3129	165.6086
566.4728	167.8281
566.6328	162.0931
566.7927	166.353
566.9526	163.6861
567.1125	164.8958
567.2724	172.902
567.4323	172.3862
567.5922	171.1502
567.7521	164.5809
567.9119	167.9035
568.0718	172.011
568.2317	162.3742
568.3915	163.3616
568.5514	161.2458
568.7112	163.2372
568.871	162.5733
569.0309	167.3529
569.1907	162.3894
569.3505	161.6356
569.5103	169.5829
569.6701	169.7095
569.8299	166.1365
569.9897	168.8322
570.1495	171.2563
570.3092	165.5787
570.469	165.8189
570.6287	165.6812
570.7885	162.0158
570.9482	159.1294
571.108	162.6003
571.2677	163.7351
571.4274	169.406
571.5871	164.7735
571.7468	171.124
571.9066	177.4243
572.0662	175.7235
572.2259	171.3807
572.3856	168.8885
572.5452	171.7598
572.7049	173.5044
572.8646	176.9543
573.0242	173.0615
573.1838	171.4373
573.3435	179.7165
573.5031	181.37
573.6627	175.3496
573.8223	175.69
573.9819	175.6482
574.1415	175.433
574.3011	177.8457
574.4607	177.4072
574.6203	183.2735
574.7798	182.7415
574.9394	170.9512
575.099	175.6081
575.2585	173.9578
575.418	169.8067
575.5776	170.1283
575.7371	178.524
575.8966	175.352
576.0562	175.6835
576.2156	174.1712
576.3751	179.4265
576.5346	180.644
576.6941	180.0076
576.8536	175.9329
577.0131	184.3884
577.1725	183.9953
577.332	182.3607
577.4914	185.0522
577.6508	178.2697
577.8103	180.623
577.9697	185.6089
578.1291	176.5837
578.2885	173.9029
578.4479	177.9818
578.6073	175.0534
578.7667	175.648
578.9261	181.8898
579.0854	168.1049
579.2448	173.3377
579.4042	174.9559
579.5635	179.3101
579.7229	179.4358
579.8822	175.0231
580.0416	180.6897
580.2009	180.1797
580.3602	177.3494
580.5195	182.2175
580.6788	181.775
580.8381	179.2635
580.9974	180.1109
581.1566	187.1432
581.3159	183.5419
581.4752	185.0795
581.6345	183.4703
581.7937	187.1364
581.9529	184.5014
582.1122	188.6654
582.2714	187.7197
582.4306	188.2256
582.5898	186.8806
582.749	184.1595
582.9082	181.4841
583.0674	187.6897
583.2266	188.2987
583.3857	191.5432
583.5449	186.0429
583.7041	191.2578
583.8633	184.9316
584.0224	184.6188
584.1815	194.7749
584.3407	192.8896
584.4998	192.512
584.6589	185.1822
584.818	187.4482
584.9771	193.0667
585.1362	188.0532
585.2953	186.6658
585.4544	191.9749
585.6135	191.7559
585.7725	180.3735
585.9316	180.0364
586.0906	184.0602
586.2497	186.1805
586.4087	182.6829
586.5677	187.682
586.7267	197.8983
586.8858	190.5013
587.0448	189.2424
587.2038	197.0378
587.3628	193.3759
587.5218	184.7696
587.6807	183.1106
587.8397	187.4592
587.9987	186.5228
588.1577	176.4885
588.3166	178.2527
588.4755	176.1326
588.6345	178.4972
588.7934	182.2703
588.9523	180.9967
589.1112	174.4507
589.2701	169.613
589.429	173.9075
589.5879	173.5147
589.7468	171.7535
589.9056	178.7618
590.0645	176.8303
590.2234	181.1102
590.3822	185.0427
590.5411	183.7451
590.6999	186.2309
590.8588	190.4683
591.0176	187.661
591.1764	183.3909
591.3352	185.1382
591.494	189.2313
591.6528	184.9046
591.8116	184.952
591.9703	187.0642
592.1291	191.2067
592.2878	193.0558
592.4467	194.4879
592.6053	193.9723
592.7641	195.1712
592.9229	191.1856
593.0816	185.2842
593.2403	189.8728
593.399	194.0265
593.5577	195.3734
593.7164	197.6357
593.8751	194.866
594.0338	189.241
594.1924	190.4398
594.3511	194.1149
594.5098	188.8687
594.6684	185.6907
594.8271	189.5894
594.9857	191.1034
595.1443	193.4562
595.303	198.2372
595.4615	195.5054
595.6202	192.5104
595.7787	197.838
595.9374	193.5318
596.0959	193.6791
596.2545	195.4076
596.4131	200.4971
596.5717	197.5314
596.7302	203.3882
596.8887	206.7026
597.0473	196.1089
597.2058	198.2213
597.3644	204.0717
597.5229	194.6402
597.6814	195.2852
597.8399	199.6417
597.9984	196.6508
598.1569	194.1704
598.3154	195.2393
598.4738	202.9862
598.6323	200.1671
598.7908	198.3697
598.9492	199.1838
599.1076	201.592
599.2661	194.0743
599.4245	200.3503
599.5829	198.0255
599.7413	199.4987
599.8997	203.2334
600.0581	197.7144
600.2165	199.3925
600.3749	200.4707
600.5333	205.9671
600.6917	207.6635
600.85	202.9324
601.0084	196.8641
601.1667	201.2385
601.325	202.6885
601.4833	203.1234
601.6417	205.223
601.8	198.1239
601.9583	201.4107
602.1166	207.7791
602.2749	205.8534
602.4332	201.6367
602.5914	203.3228
602.7498	200.8472
602.908	210.2583
603.0662	211.0355
603.2245	209.6945
603.3828	214.7546
603.541	213.7489
603.6992	213.876
603.8574	209.8919
604.0156	205.3924
604.1738	209.7393
604.332	208.1643
604.4902	209.9893
604.6484	208.1917
604.8065	207.185
604.9647	215.1348
605.1229	206.7663
605.281	203.6505
605.4391	199.214
605.5973	207.8369
605.7554	209.9381
605.9135	212.9692
606.0717	206.5546
606.2297	205.7337
606.3878	206.3192
606.5459	203.7223
606.704	206.0916
606.8621	211.7235
607.0201	212.9269
607.1782	212.0644
607.3362	209.6121
607.4943	207.4833
607.6523	210.1859
607.8104	211.8818
607.9684	214.4595
608.1264	215.5525
608.2844	205.413
608.4424	207.3934
608.6003	202.0457
608.7584	204.767
608.9163	207.5285
609.0743	207.142
609.2322	211.0891
609.3902	212.8814
609.5482	209.4235
609.7061	210.2313
609.864	210.2421
610.0219	203.6027
610.1798	194.3859
610.3377	198.9868
610.4956	198.2852
610.6535	206.9392
610.8114	204.3044
610.9693	201.4781
611.1271	203.5892
611.285	205.519
611.4429	202.2417
611.6007	207.7888
611.7585	201.9835
611.9164	200.8914
612.0742	209.0114
612.232	203.8329
612.3898	206.8217
612.5476	206.0655
612.7054	206.3916
612.8632	206.3795
613.0209	208.3715
613.1787	207.6326
613.3365	206.4159
613.4942	205.5108
613.652	197.1994
613.8097	192.5728
613.9674	195.7515
614.1252	197.8076
614.2829	199.3558
614.4406	207.8557
614.5983	204.3934
614.756	201.6648
614.9136	198.4962
615.0714	203.8375
615.229	198.4638
615.3867	197.8091
615.5443	205.4142
615.702	202.3798
615.8596	202.4178
616.0172	199.9193
616.1748	193.7482
616.3325	190.576
616.4901	187.96
616.6476	197.8602
616.8052	197.1626
616.9628	198.1638
617.1204	198.4697
617.278	203.34
617.4355	203.9709
617.5931	198.9751
617.7506	196.5703
617.9081	194.6152
618.0657	206.8097
618.2232	207.6903
618.3807	203.8335
618.5382	193.9604
618.6957	196.2967
618.8532	197.5843
619.0107	196.0688
619.1682	196.9708
619.3256	200.001
619.4831	197.4105
619.6406	195.5434
619.798	192.7079
619.9554	200.7038
620.1129	210.832
620.2703	197.8468
620.4277	200.7152
620.5851	201.8329
620.7425	201.4511
620.8998	200.262
621.0573	200.4713
621.2146	190.8202
621.372	195.1612
621.5294	195.6788
621.6867	196.1693
621.8441	193.7215
622.0013	200.5504
622.1587	197.6972
622.316	198.8138
622.4733	206.9558
622.6306	201.68
622.7879	195.7967
622.9452	186.0146
623.1025	186.0897
623.2598	192.6414
623.4171	192.307
623.5743	193.3387
623.7316	198.2742
623.8888	198.2914
624.046	201.2522
624.2032	196.6157
624.3605	197.4065
624.5176	193.7085
624.6749	191.5938
624.8321	193.5651
624.9893	193.1039
625.1464	195.9633
625.3036	192.1901
625.4608	187.7718
625.6179	194.2449
625.7751	193.6282
625.9322	193.4091
626.0894	191.9107
626.2465	190.226
626.4036	190.0741
626.5607	197.0268
626.7178	199.2285
626.8749	198.3557
627.032	202.9634
627.189	198.9261
627.3461	197.4552
627.5032	196.8848
627.6602	190.6469
627.8173	185.2853
627.9743	180.6497
628.1313	188.9792
628.2884	193.5907
628.4454	186.4032
628.6024	191.7641
628.7594	191.7423
628.9164	197.2578
629.0734	191.2157
629.2303	192.3217
629.3873	193.1186
629.5443	193.1976
629.7012	189.826
629.8582	184.4562
630.0151	181.4961
630.172	184.2031
630.3289	185.2651
630.4858	190.1597
630.6428	195.0726
630.7996	192.9857
630.9565	194.3682
631.1134	187.9031
631.2703	185.6829
631.4272	191.956
631.584	190.3927
631.7408	188.8609
631.8977	186.8562
632.0546	191.041
632.2114	183.8964
632.3682	187.5023
632.525	185.9205
632.6818	192.4936
632.8386	195.0565
632.9954	188.1637
633.1522	192.7819
633.3089	193.5234
633.4657	189.3231
633.6224	192.9451
633.7792	186.6221
633.9359	187.3652
634.0927	194.5049
634.2494	189.1697
634.4061	187.5084
634.5628	183.7843
634.7195	184.1256
634.8762	194.6846
635.0329	191.7511
635.1895	194.6645
635.3462	194.7584
635.5029	192.411
635.6595	195.9322
635.8162	188.9778
635.9728	187.0592
636.1295	187.9226
636.2861	188.3811
636.4427	188.5975
636.5992	185.8845
636.7559	190.8451
636.9124	192.3831
637.069	195.8259
637.2256	189.9718
637.3821	195.2661
637.5387	196.4825
637.6953	190.5669
637.8518	190.9943
638.0084	189.702
638.1649	190.611
638.3214	189.67
638.4779	189.7218
638.6344	185.513
638.7909	186.7415
638.9474	185.4054
639.1038	193.4495
639.2603	185.7522
639.4167	181.6115
639.5732	183.9861
639.7297	186.9623
639.8861	187.9942
640.0425	179.2745
640.199	177.8533
640.3553	186.668
640.5118	186.8306
640.6682	188.2104
640.8245	182.7338
640.981	182.0481
641.1373	189.0502
641.2936	182.93
641.45	184.0991
641.6064	184.8344
641.7627	184.9233
641.9191	185.2724
642.0754	182.054
642.2317	178.8946
642.388	180.6889
642.5443	178.3898
642.7006	178.6627
642.8569	178.6652
643.0131	173.8686
643.1694	171.5906
643.3257	178.3892
643.4819	179.8116
643.6382	184.9123
643.7944	183.1225
643.9506	174.2134
644.1069	174.5752
644.2631	173.3034
644.4193	181.7228
644.5754	180.419
644.7316	184.2922
644.8878	180.0579
645.044	176.1877
645.2002	180.7042
645.3563	175.0889
645.5125	172.5136
645.6686	174.3912
645.8248	180.7689
645.9809	176.9321
646.137	172.5184
646.2931	175.7314
646.4492	175.976
646.6053	182.5309
646.7614	179.7417
646.9174	174.9737
647.0735	173.2964
647.2296	172.1919
647.3856	166.0179
647.5417	167.1484
647.6977	166.6219
647.8537	168.2533
648.0098	167.1356
648.1658	165.9947
648.3218	164.3524
648.4777	164.6241
648.6337	167.991
648.7897	174.4433
648.9457	168.3484
649.1016	170.4515
649.2576	170.5823
649.4135	159.5025
649.5695	160.9214
649.7254	158.8502
649.8813	165.9166
650.0372	167.1268
650.1932	169.0644
650.3491	169.1304
650.5049	175.0217
650.6608	177.8594
650.8167	173.5971
650.9725	162.1979
651.1284	173.7421
651.2842	166.2944
651.4401	168.0811
651.5959	162.4723
651.7518	163.7081
651.9076	157.1977
652.0634	161.918
652.2192	170.0051
652.3749	169.448
652.5308	167.9761
652.6865	172.2484
652.8423	166.0633
652.998	164.9141
653.1538	168.6626
653.3096	166.5036
653.4653	171.4166
653.621	171.4158
653.7767	167.8141
653.9324	158.7283
654.0881	163.6874
654.2438	167.4139
654.3995	170.1427
654.5552	165.3175
654.7109	159.5234
654.8665	168.6149
655.0222	163.9279
655.1778	161.3653
655.3334	169.513
655.4891	163.97
655.6447	161.2151
655.8003	156.6025
655.9559	151.7577
656.1115	144.5513
656.2671	127.5332
656.4227	127.552
656.5782	132.5367
656.7338	139.3262
656.8893	153.1825
657.0449	153.241
657.2004	159.4115
657.356	160.9408
657.5115	164.9813
657.667	161.7943
657.8225	162.7716
657.978	167.8204
658.1335	164.7276
658.289	165.5335
658.4445	163.9977
658.5999	168.0731
658.7554	168.2393
658.9108	171.1744
659.0663	170.3891
659.2217	166.0558
659.3771	165.3533
659.5325	163.6334
659.6879	162.8423
659.8433	163.6942
659.9987	167.0649
660.1541	170.2722
660.3095	164.2919
660.4648	162.7691
660.6202	168.0497
660.7756	168.263
660.9309	164.0844
661.0862	167.3883
661.2416	166.0105
661.3969	170.4018
661.5522	169.2512
661.7075	162.6404
661.8628	166.6988
662.0181	166.658
662.1733	164.6803
662.3286	167.5707
662.4839	163.531
662.6391	161.9094
662.7944	161.4932
662.9496	164.4425
663.1048	167.1405
663.26	163.2099
663.4152	157.9597
663.5704	164.9205
663.7256	162.9348
663.8808	165.3789
664.036	163.9695
664.1912	164.1762
664.3463	166.1633
664.5015	164.6405
664.6566	169.7914
664.8118	177.0185
664.9669	168.2295
665.122	167.3115
665.2771	171.7096
665.4322	166.4119
665.5873	162.7104
665.7424	165.8064
665.8975	161.8537
666.0526	163.8583
666.2076	158.5164
666.3627	162.821
666.5177	158.6636
666.6727	165.3909
666.8278	162.8172
666.9828	167.058
667.1378	166.3834
667.2928	169.3402
667.4478	162.7297
667.6028	162.135
667.7578	162.3964
667.9127	162.7793
668.0677	159.4146
668.2226	161.9808
668.3776	165.2666
668.5325	160.6204
668.6874	158.8491
668.8423	165.7255
668.9973	168.3553
669.1522	163.5716
669.3071	164.1029
669.4619	162.4188
669.6168	162.4036
669.7717	161.6812
669.9265	157.0835
670.0814	153.4008
670.2362	156.8154
670.3911	163.7634
670.5459	162.9277
670.7007	158.0393
670.8555	161.0939
671.0103	157.4525
671.1651	152.5418
671.3199	155.0159
671.4747	159.5591
671.6295	159.5664
671.7842	158.2637
671.939	155.306
672.0937	150.7225
672.2484	152.0807
672.4031	161.4177
672.5579	162.1101
672.7126	156.2187
672.8673	160.0245
673.022	159.5773
673.1767	159.2017
673.3314	153.8703
673.486	156.9033
673.6407	158.7489
673.7953	158.3522
673.95	159.3964
674.1046	157.0307
674.2592	153.3475
674.4138	153.7707
674.5684	160.2758
674.723	155.1574
674.8776	160.3259
675.0322	154.0611
675.1868	157.8505
675.3414	156.3405
675.4959	153.1196
675.6505	159.5877
675.805	154.8886
675.9595	148.2791
676.1141	149.0516
676.2686	155.1595
676.4231	160.365
676.5776	156.7479
676.7321	160.366
676.8866	157.2655
677.041	146.103
677.1955	148.0167
677.35	155.72
677.5044	160.3206
677.6589	164.6576
677.8133	164.0849
677.9677	149.8899
678.1221	152.3405
678.2766	152.5155
678.4309	147.6274
678.5853	150.9631
678.7397	154.2127
678.8941	152.4201
679.0485	147.1229
679.2028	145.4821
679.3571	149.2687
679.5115	149.988
679.6658	150.0878
679.8201	147.7871
679.9744	147.499
680.1288	145.9243
680.2831	149.4904
680.4373	150.5347
680.5916	147.1336
680.7459	148.2741
680.9001	140.4362
681.0544	143.8112
681.2087	146.6882
681.3629	145.0827
681.5171	143.1892
681.6713	144.6278
681.8256	146.0754
681.9797	142.9413
682.134	139.7028
682.2881	145.2045
682.4423	144.2862
682.5965	137.6561
682.7507	142.8487
682.9048	142.6722
683.059	147.3414
683.2131	143.6996
683.3672	143.4583
683.5213	142.02
683.6754	139.5827
683.8295	142.8161
683.9836	140.1567
684.1377	138.4312
684.2918	132.6458
684.4459	141.9646
684.5999	137.7585
684.754	136.6271
684.908	139.741
685.062	138.3734
685.2161	145.1936
685.3701	144.8287
685.5241	130.976
685.6781	134.4114
685.8321	142.7139
685.9861	137.1476
686.14	141.9005
686.294	139.6528
686.4479	134.5372
686.6019	124.704
686.7559	115.5921
686.9098	111.6001
687.0637	103.9809
687.2176	102.1653
687.3715	104.3464
687.5254	101.0965
687.6793	103.8449
687.8332	117.3929
687.9871	118.2539
688.1409	128.7224
688.2947	122.9253
688.4486	118.1471
688.6024	117.5547
688.7563	122.5341
688.9101	124.355
689.0639	118.6431
689.2177	125.2361
689.3715	125.2366
689.5253	114.3626
689.6791	122.7719
689.8328	126.2107
689.9866	123.5531
690.1403	120.74
690.2941	116.7593
690.4478	124.1778
690.6015	122.6414
690.7552	126.0272
690.9089	123.0864
691.0626	125.9472
691.2164	131.3932
691.37	124.5645
691.5237	125.4665
691.6774	128.2229
691.831	125.1634
691.9847	123.9679
692.1383	128.1935
692.2919	125.8411
692.4456	131.4947
692.5992	129.9953
692.7527	124.6314
692.9064	126.4362
693.0599	127.431
693.2136	126.2011
693.3671	131.7287
693.5207	131.2367
693.6742	123.208
693.8278	123.2262
693.9813	118.6643
694.1348	124.088
694.2883	128.9118
694.4418	121.0187
694.5953	121.4428
694.7488	127.1693
694.9023	123.2834
695.0558	118.9262
695.2093	124.005
695.3627	126.8609
695.5162	124.3759
695.6696	122.9918
695.8231	121.774
695.9764	122.7831
696.1299	123.7753
696.2833	129.8796
696.4367	135.6286
696.5901	132.9638
696.7435	126.9109
696.8968	127.0019
697.0502	132.0945
697.2036	128.7618
697.3569	123.6095
697.5102	127.2325
697.6635	120.7546
697.8168	116.0426
697.9702	124.2529
698.1235	127.0505
698.2768	130.641
698.4301	130.0456
698.5833	126.7311
698.7366	126.8746
698.8898	121.703
699.0431	120.427
699.1964	119.3138
699.3495	122.0546
699.5028	123.7786
699.656	128.5173
699.8092	125.0831
699.9624	127.5042
700.1156	119.0575
700.2688	120.4065
700.4219	121.5495
700.5751	120.0609
700.7283	119.4871
700.8814	120.3234
701.0345	124.3548
701.1877	117.8375
701.3408	119.4189
701.4939	122.2921
701.647	117.3756
701.8001	121.9704
701.9532	130.1326
702.1063	122.9159
702.2593	118.9949
702.4124	118.9222
702.5654	121.1882
702.7184	119.6589
702.8715	119.2442
703.0245	119.7042
703.1776	121.0986
703.3305	118.1733
703.4835	124.589
703.6365	119.4225
703.7895	121.8855
703.9424	121.6936
704.0954	123.6845
704.2484	122.4455
704.4013	121.9314
704.5543	127.6955
704.7072	123.223
704.8601	128.1433
705.013	119.4023
705.1659	120.3048
705.3188	121.1511
705.4717	121.4341
705.6246	121.9312
705.7774	120.5342
705.9303	121.293
706.0831	129.0595
706.236	127.2458
706.3888	128.3439
706.5416	128.4548
706.6944	128.9206
706.8472	120.2308
707	119.8189
707.1528	124.1643
707.3056	123.9175
707.4583	117.1058
707.6111	121.1437
707.7639	121.9308
707.9166	122.7102
708.0693	126.9687
708.222	121.3172
708.3748	121.1046
708.5275	120.22
708.6802	121.9474
708.8328	120.8878
708.9855	118.6361
709.1382	120.0997
709.2909	130.0386
709.4435	130.7232
709.5962	120.8397
709.7488	124.9638
709.9014	121.4259
710.054	116.9342
710.2067	118.6725
710.3593	126.6176
710.5118	127.4539
710.6644	120.7461
710.817	125.2529
710.9695	128.1033
711.1221	115.3297
711.2747	119.5337
711.4272	120.2352
711.5797	121.5239
711.7322	121.0052
711.8848	122.378
712.0373	116.877
712.1898	120.7258
712.3422	116.8025
712.4948	118.7919
712.6472	115.3231
712.7996	114.703
712.9521	114.7729
713.1046	110.3269
713.257	120.3894
713.4094	120.557
713.5618	116.931
713.7142	111.8638
713.8666	118.9869
714.019	123.5722
714.1714	120.3222
714.3237	121.5118
714.4761	115.4644
714.6285	117.0382
714.7808	113.7349
714.9331	116.022
715.0854	113.3196
715.2378	115.0436
715.3901	121.8882
715.5424	118.5344
715.6947	122.2209
715.8469	115.1605
715.9992	115.8333
716.1515	116.4635
716.3037	112.0178
716.456	106.8499
716.6082	107.7545
716.7604	101.0423
716.9127	99.90367
717.0649	100.7437
717.2171	96.4157
717.3693	98.3769
717.5214	98.78476
717.6736	92.80298
717.8258	97.87663
717.978	94.16833
718.1301	99.93571
718.2822	96.53479
718.4344	97.88523
718.5865	91.68818
718.7386	91.98423
718.8907	91.21946
719.0428	93.68301
719.1949	100.2444
719.3469	92.63033
719.499	93.47159
719.6511	89.94971
719.8031	95.20046
719.9551	94.81615
720.1072	99.7991
720.2592	94.22723
720.4112	96.23897
720.5632	93.8587
720.7152	98.55171
720.8672	95.17175
721.0192	98.49258
721.1711	112.1929
721.3231	115.2182
721.475	116.5286
721.627	117.9173
721.7789	114.4234
721.9308	113.3826
722.0828	111.4367
722.2347	109.8433
722.3866	110.9191
722.5385	103.1472
722.6903	106.0021
722.8422	105.2847
722.9941	101.2096
723.1459	104.0518
723.2977	96.76094
723.4496	90.06116
723.6014	90.59267
723.7532	95.8503
723.905	94.801
724.0568	100.2776
724.2086	92.97932
724.3604	93.37592
724.5121	94.71155
724.6639	100.6826
724.8157	100.0876
724.9674	102.0463
725.1191	97.82106
725.2709	94.02598
725.4226	96.30009
725.5743	96.9921
725.726	97.92805
725.8777	98.90129
726.0294	103.9582
726.181	100.0148
726.3327	100.8211
726.4844	101.4094
726.636	102.4257
726.7877	98.25587
726.9393	100.9175
727.0909	107.0996
727.2425	104.1189
727.3941	99.9275
727.5457	93.39468
727.6973	90.4024
727.8488	92.32395
728.0004	100.7841
728.1519	100.3655
728.3035	101.1225
728.455	107.8192
728.6066	109.1988
728.7581	102.1262
728.9095	95.08865
729.0611	89.56604
729.2126	89.19297
729.364	92.89728
729.5155	95.35105
729.667	102.104
729.8184	100.5498
729.9698	93.93749
730.1213	89.25781
730.2727	89.09689
730.4241	96.24819
730.5756	95.12401
730.7269	99.18646
730.8784	95.61704
731.0297	94.31756
731.1811	95.47089
731.3325	97.55769
731.4838	101.4913
731.6351	99.55933
731.7865	96.57191
731.9378	97.35806
732.0891	102.094
732.2404	107.4066
732.3917	108.6754
732.543	109.277
732.6943	106.6159
732.8456	103.0983
732.9968	101.0135
733.1481	103.8629
733.2993	102.3693
733.4506	98.59943
733.6018	99.70165
733.753	102.7804
733.9042	111.5591
734.0554	107.9937
734.2066	106.7768
734.3578	108.5092
734.509	107.0965
734.6602	103.8498
734.8113	98.54433
734.9624	102.6474
735.1136	106.2229
735.2647	102.5518
735.4158	100.2218
735.5669	99.63577
735.718	106.6552
735.8691	100.9532
736.0201	105.3989
736.1713	106.0011
736.3223	104.7929
736.4733	98.41109
736.6244	100.6812
736.7755	104.306
736.9265	104.521
737.0775	100.864
737.2285	102.0802
737.3795	100.7043
737.5305	105.686
737.6815	106.087
737.8324	102.4415
737.9834	104.5489
738.1343	100.1512
738.2853	98.95077
738.4362	101.8599
738.5871	97.88828
738.738	96.89377
738.8889	100.9911
739.0399	95.00198
739.1907	94.50026
739.3416	103.5289
739.4925	102.4157
739.6433	96.7813
739.7942	100.3309
739.945	97.86108
740.0958	101.8341
740.2467	104.1729
740.3975	106.6332
740.5483	98.6356
740.6991	97.45657
740.8499	100.5345
741.0007	99.41539
741.1514	94.20255
741.3022	96.30625
741.4529	95.7275
741.6036	98.34898
741.7544	98.56656
741.9051	98.32788
742.0558	97.91401
742.2065	95.69432
742.3572	101.2663
742.5079	103.357
742.6586	103.5634
742.8093	100.451
742.9599	99.38682
743.1105	98.90607
743.2612	96.64797
743.4118	96.12722
743.5624	101.8503
743.7131	105.0054
743.8636	106.8865
744.0142	106.4631
744.1648	101.0814
744.3154	101.7648
744.4659	100.3114
744.6165	101.6748
744.767	99.65029
744.9176	101.2498
745.0681	98.85836
745.2186	101.4383
745.3691	96.24454
745.5197	93.36298
745.6702	94.92371
745.8206	92.53319
745.9711	99.26454
746.1215	95.43662
746.272	97.46658
746.4224	100.3144
746.5729	101.3422
746.7233	95.2468
746.8737	98.3484
747.0241	98.81972
747.1745	94.09135
747.3249	95.48831
747.4753	92.58479
747.6257	99.37876
747.776	97.71719
747.9264	98.05219
748.0767	88.6088
748.2271	97.01353
748.3774	102.2557
748.5276	91.70218
748.678	93.57246
748.8282	98.41158
748.9786	96.99747
749.1288	96.54543
749.2791	94.38336
749.4294	89.38641
749.5796	89.87566
749.7299	88.97423
749.8801	94.89555
750.0303	93.73356
750.1805	90.08836
750.3307	91.5976
750.4809	94.97694
750.6311	89.8549
750.7813	91.72321
750.9314	90.48037
751.0816	88.68687
751.2318	87.57283
751.3818	88.37933
751.532	91.37718
751.6821	90.17143
751.8322	90.75275
751.9823	92.88751
752.1324	89.68758
752.2825	91.00301
752.4326	93.31633
752.5826	90.00729
752.7327	91.81223
752.8827	91.12588
753.0327	88.91787
753.1827	84.68831
753.3328	87.53935
753.4828	90.48969
753.6328	93.4841
753.7828	89.96331
753.9327	93.50369
754.0827	90.09372
754.2327	96.81106
754.3826	87.6326
754.5325	87.59978
754.6825	91.13336
754.8324	88.82885
754.9823	90.08646
755.1322	83.79503
755.2821	83.49464
755.432	86.03469
755.5818	81.43108
755.7318	82.12704
755.8816	81.75346
756.0314	83.71254
756.1813	84.95559
756.3311	84.41956
756.4809	86.64843
756.6307	88.70628
756.7805	85.40212
756.9303	84.14198
757.0801	83.29986
757.2299	83.22472
757.3796	82.85758
757.5294	81.7711
757.6791	87.42812
757.8289	85.09827
757.9786	80.08899
758.1283	83.27722
758.278	87.33393
758.4277	83.20716
758.5773	77.70336
758.7271	82.28063
758.8767	79.90084
759.0264	79.74026
759.176	77.49357
759.3256	73.96622
759.4753	64.90015
759.6249	49.46048
759.7745	47.49686
759.9241	41.1452
760.0737	37.90022
760.2233	31.12838
760.3729	31.48348
760.5224	28.90862
760.6719	31.42965
760.8215	27.68672
760.971	28.74104
761.1205	35.30422
761.2701	41.51968
761.4196	42.71555
761.5691	46.17642
761.7186	50.06567
761.868	57.55751
762.0175	59.51656
762.167	56.97179
762.3164	56.66133
762.4659	46.56509
762.6153	41.81849
762.7647	50.51456
762.9141	43.92653
763.0635	46.3873
763.2129	39.43752
763.3623	43.07038
763.5117	43.47913
763.661	40.74595
763.8104	45.10026
763.9597	49.90536
764.1091	46.84038
764.2584	51.17068
764.4077	47.82238
764.557	51.23045
764.7063	52.96469
764.8556	53.86388
765.0049	51.79874
765.1541	56.56092
765.3034	57.19718
765.4526	58.1806
765.6019	58.67066
765.7511	58.56264
765.9003	63.3328
766.0496	63.44818
766.1987	57.22105
766.348	66.56691
766.4971	66.71542
766.6463	59.73044
766.7955	64.73487
766.9446	67.24844
767.0938	64.8064
767.2429	63.48706
767.392	66.93382
767.5411	66.07345
767.6902	65.709
767.8394	66.48881
767.9884	66.76739
768.1375	68.72313
768.2866	71.64734
768.4356	71.8263
768.5847	69.69688
768.7337	71.81115
768.8828	68.85474
769.0317	67.63448
769.1808	64.95831
769.3298	66.48524
769.4788	71.77731
769.6277	67.11305
769.7767	64.81847
769.9257	63.67612
770.0746	71.33047
770.2236	69.63958
770.3725	63.29665
770.5214	66.60335
770.6703	66.80383
770.8193	68.72879
770.9681	69.29381
771.1171	68.65672
771.2659	67.3534
771.4148	69.35258
771.5637	70.27594
771.7125	69.56842
771.8613	68.21465
772.0101	66.52384
772.159	68.63151
772.3078	69.25698
772.4566	63.64606
772.6054	66.77964
772.7542	70.90828
772.903	70.46914
773.0517	68.41541
773.2004	69.16115
773.3492	59.97255
773.4979	66.9268
773.6467	70.51015
773.7953	67.82539
773.944	65.57427
774.0928	63.8472
774.2415	63.131
774.3901	62.5558
774.5388	67.61594
774.6874	68.64632
774.8361	62.56268
774.9847	64.8231
775.1334	63.62906
775.282	67.53456
775.4305	68.63064
775.5792	68.21804
775.7277	70.7305
775.8763	70.63734
776.0249	69.50706
776.1735	65.73823
776.322	64.2774
776.4705	61.71926
776.6191	57.99935
776.7676	62.91924
776.9161	66.4831
777.0646	63.9242
777.2131	62.49878
777.3616	68.02363
777.5101	63.3016
777.6585	58.92544
777.8069	57.21343
777.9554	59.18316
778.1038	63.07145
778.2523	62.22263
778.4007	65.15305
778.5491	65.1822
778.6974	65.70057
778.8459	62.83207
778.9942	61.39679
779.1426	62.87632
779.291	62.49364
779.4393	63.15458
779.5876	63.22701
779.736	63.46114
779.8843	64.5932
780.0326	59.90439
780.1809	53.11517
780.3292	58.83537
780.4775	61.34731
780.6257	58.19536
780.774	55.41289
780.9222	60.68686
781.0704	61.09791
781.2187	62.74797
781.3669	61.30923
781.5151	60.45123
781.6633	59.46078
781.8115	58.20757
781.9597	63.89242
782.1078	60.50387
782.256	62.17304
782.4042	59.50636
782.5523	59.73717
782.7004	63.73285
782.8486	59.15982
782.9967	58.07978
783.1448	51.26624
783.2929	57.74575
783.441	62.25439
783.5891	59.33127
783.7371	57.72989
783.8851	58.33109
784.0332	57.28691
784.1812	53.09569
784.3293	56.96081
784.4773	54.82606
784.6253	57.23615
784.7733	63.23101
784.9213	58.9623
785.0692	58.49947
785.2172	58.49786
785.3652	56.84498
785.5131	57.88988
785.6611	62.01347
785.809	59.85181
785.9569	55.74228
786.1048	60.46789
786.2527	53.82904
786.4006	55.27688
786.5485	59.27349
786.6964	58.55013
786.8442	57.93687
786.9921	58.31343
787.1399	57.52181
787.2877	57.15401
787.4355	55.12799
787.5833	55.40805
787.7311	57.54345
787.8789	61.31134
788.0267	56.13432
788.1745	58.17271
788.3223	51.95134
788.47	52.30294
788.6177	49.96093
788.7654	52.27724
788.9132	51.87214
789.0609	53.53741
789.2086	59.01054
789.3563	52.979
789.504	52.63249
789.6517	56.36536
789.7993	58.2473
789.947	55.74989
790.0946	57.07957
790.2422	57.43417
790.3898	56.65573
790.5375	54.09222
790.6851	55.12072
790.8326	52.92163
790.9802	53.36617
791.1278	55.44385
791.2754	53.3312
791.423	50.38858
791.5705	56.27878
791.718	52.00113
791.8655	49.4754
792.0131	53.96998
792.1606	53.2395
792.308	50.87254
792.4556	49.22656
792.603	50.0482
792.7505	58.39783
792.8979	48.78497
793.0454	52.04659
793.1928	49.11504
793.3403	47.22691
793.4877	52.7473
793.6351	48.20809
793.7825	50.27496
793.9299	55.80299
794.0772	51.29333
794.2246	49.60598
794.3719	47.95801
794.5193	51.54714
794.6666	55.31388
794.814	51.99833
794.9613	48.26904
795.1086	50.99222
795.2559	50.99564
795.4032	52.91268
795.5505	51.98895
795.6978	48.84764
795.845	50.34732
795.9922	50.55061
796.1395	53.90103
796.2867	48.1129
796.4339	48.44806
796.5811	47.25739
796.7283	52.57632
796.8755	50.19963
797.0227	51.64151
797.1699	50.41645
797.317	52.15817
797.4642	57.37411
797.6113	47.05668
797.7584	45.76316
797.9056	46.98204
798.0527	51.20422
798.1998	52.45315
798.3469	51.07267
798.494	51.40285
798.641	49.5606
798.7881	52.08604
798.9351	51.49676
799.0822	48.84477
799.2292	50.02409
799.3762	46.9585
799.5232	48.61204
799.6702	45.31898
799.8172	46.1366
799.9642	49.0778
800.1111	43.50858
800.2581	48.52173
800.4051	50.19544
800.552	50.74092
800.6989	47.56755
800.8458	44.31178
800.9927	46.6005
801.1396	42.36418
801.2866	50.32932
801.4334	47.45787
801.5803	48.66183
801.7272	45.50811
801.874	43.98074
802.0209	44.97888
802.1677	43.33913
802.3145	45.13052
802.4613	44.58497
802.6081	46.42625
802.7549	47.4309
802.9017	42.54656
803.0485	46.27811
803.1952	45.14227
803.342	50.7149
803.4887	47.02404
803.6354	43.60749
803.7822	44.74944
803.9289	48.74923
804.0756	49.96847
804.2223	47.66037
804.369	43.6535
804.5156	44.66138
804.6623	46.98381
804.8089	44.75013
804.9556	44.68879
805.1022	42.41913
805.2488	46.2888
805.3954	46.32979
805.542	44.37922
805.6886	47.91444
805.8352	48.01553
805.9818	44.10321
806.1283	41.58383
806.2749	41.40332
806.4214	42.7753
806.5679	45.89293
806.7145	49.10715
806.861	38.27849
807.0074	40.19951
807.154	45.70016
807.3004	39.96905
807.4469	41.63812
807.5934	44.60498
807.7398	41.01397
807.8862	42.43581
808.0327	43.38079
808.1791	44.90427
808.3255	40.3228
808.4719	42.05651
808.6183	38.01089
808.7647	45.43862
808.9111	44.37111
809.0574	43.31744
809.2037	44.99124
809.3501	48.32579
809.4965	43.87326
809.6428	41.16544
809.7891	44.23714
809.9354	44.12747
810.0817	44.19665
810.2279	41.19544
810.3742	37.59897
810.5204	40.06549
810.6667	38.89037
810.8129	39.64129
810.9592	42.77668
811.1054	38.00628
811.2516	37.41578
811.3978	43.15472
811.5439	41.10723
811.6901	39.44347
811.8363	42.65295
811.9825	38.39729
812.1286	36.95686
812.2748	37.39149
812.4209	41.64982
812.567	40.36745
812.7131	36.9671
812.8592	38.83661
813.0053	34.293
813.1514	37.8567
813.2974	37.92956
813.4435	34.54009
813.5895	35.14447
813.7356	35.53855
813.8816	35.54018
814.0276	34.14128
814.1736	36.51864
814.3196	32.59484
814.4656	31.8206
814.6116	36.29068
814.7576	37.34028
814.9035	36.76118
815.0494	33.63467
815.1954	32.84772
815.3413	31.65577
815.4872	35.66237
815.6331	31.31981
815.779	29.8189
815.9249	30.44203
816.0707	31.79021
816.2166	30.78665
816.3625	25.11974
816.5083	29.95788
816.6542	33.23206
816.8	34.90461
816.9458	34.36486
817.0916	30.631
817.2374	31.33622
817.3832	35.85456
817.5289	35.34923
817.6747	38.40176
817.8204	34.06672
817.9662	25.19891
818.1119	29.25794
818.2576	31.87315
818.4034	34.14342
818.5491	29.13004
818.6948	33.0318
818.8405	31.41154
818.9861	32.99292
819.1318	33.77782
819.2774	30.95749
819.423	37.84742
819.5687	36.22823
819.7143	34.66532
819.8599	32.32911
820.0055	30.92649
820.1511	28.57294
820.2967	33.47039
820.4422	33.49006
820.5878	34.69699
820.7333	36.173
820.8788	32.4761
821.0244	34.1109
821.1699	35.99025
821.3154	34.57017
821.4609	39.63457
821.6064	35.68083
821.7519	32.45222
821.8973	36.95813
822.0428	36.35756
822.1882	34.70203
822.3337	28.38021
822.4791	26.33054
822.6245	27.27065
822.7699	25.33755
822.9153	27.36885
823.0607	24.26775
823.2061	20.40918
823.3514	27.73941
823.4968	31.42543
823.6422	29.46255
823.7875	33.60864
823.9328	34.18333
824.0781	32.71437
824.2234	28.27252
824.3687	33.87875
824.514	34.05578
824.6592	29.35266
824.8045	30.64547
824.9498	36.29784
825.095	34.94544
825.2402	34.94668
825.3854	34.68434
825.5306	32.71196
825.6758	33.13609
825.821	30.00131
825.9662	30.55103
826.1114	31.627
826.2565	35.74529
826.4017	32.85953
826.5468	31.06221
826.692	26.74505
826.837	30.14719
826.9822	31.28119
827.1273	31.70681
827.2723	25.27697
827.4174	25.40499
827.5625	25.0703
827.7075	26.73438
827.8526	29.41504
827.9976	29.72474
828.1426	27.54777
828.2877	31.44285
828.4327	28.63688
828.5776	26.21773
828.7227	22.50736
828.8676	24.56912
829.0126	27.30117
829.1575	28.05037
829.3024	28.22321
829.4474	28.9334
829.5923	27.73138
829.7372	25.91917
829.8821	29.75417
830.027	30.16815
830.1719	28.17709
830.3168	30.34964
830.4616	28.47564
830.6064	27.96032
830.7513	26.74942
830.8961	34.4142
831.041	29.97987
831.1857	32.44167
831.3306	36.37321
831.4753	33.77723
831.6201	28.87272
831.7649	25.04229
831.9096	26.59348
832.0544	28.69139
832.1991	26.60891
832.3438	26.785
832.4885	23.58553
832.6332	31.25787
832.778	33.66579
832.9226	29.2299
833.0673	30.49759
833.2119	33.64246
833.3566	32.14884
833.5012	27.41789
833.6459	29.0934
833.7905	24.57308
833.9351	26.31925
834.0797	29.61183
834.2243	28.25085
834.3688	28.56352
834.5134	32.60818
834.658	32.09579
834.8026	30.06628
834.9471	28.29068
835.0916	27.55982
835.2361	34.33376
835.3806	28.53105
835.5251	32.83601
835.6696	29.72528
835.8141	32.10723
835.9586	31.37058
836.103	29.75994
836.2474	29.78759
836.3918	28.21725
836.5363	26.71412
836.6807	28.91161
836.8251	29.80384
836.9695	30.57311
837.1138	28.64351
837.2582	31.21249
837.4026	27.49208
837.5469	29.07831
837.6913	25.12041
837.8356	28.04852
837.9799	28.08616
838.1242	29.81753
838.2686	26.3823
838.4128	29.61759
838.5571	28.32594
838.7014	27.95842
838.8456	26.82171
838.9899	27.90238
839.1341	30.56452
839.2783	29.82695
839.4225	31.66595
839.5667	27.67716
839.7109	24.5306
839.8551	28.40271
839.9993	31.3234
840.1434	29.87607
840.2876	29.88426
840.4317	28.93564
840.5759	27.87455
840.72	31.00815
840.8641	31.43592
841.0082	26.76969
841.1523	29.49287
841.2963	34.87848
841.4404	28.95619
841.5845	24.23668
841.7285	24.43385
841.8726	29.7271
842.0165	29.98432
842.1606	21.40557
842.3046	29.18066
842.4485	30.40156
842.5925	24.16626
842.7365	30.21471
842.8805	28.65028
843.0244	28.13067
843.1684	29.46112
843.3123	32.69523
843.4562	29.75106
843.6002	30.07697
843.744	29.93307
843.8879	25.04475
844.0318	25.42203
844.1757	28.53828
844.3195	31.67039
844.4634	28.18458
844.6072	25.92583
844.751	28.85976
844.8948	26.2965
845.0386	26.28412
845.1824	24.74336
845.3262	24.85358
845.47	26.11283
845.6138	25.01309
845.7575	28.87571
845.9012	28.78026
846.045	28.85585
846.1887	30.10351
846.3324	26.31355
846.4761	28.65388
846.6198	24.737
846.7635	24.03213
846.9071	25.74479
847.0508	27.64531
847.1944	23.66461
847.3381	24.1368
847.4817	28.48562
847.6253	27.16301
847.7689	29.84875
847.9125	28.91769
848.0561	28.41332
848.1996	24.46408
848.3432	29.13609
848.4868	29.38219
848.6303	28.66532
848.7738	25.14872
848.9174	27.23123
849.0609	28.73181
849.2043	20.70317
849.3478	19.21464
849.4913	22.16791
849.6348	23.0949
849.7782	23.28906
849.9217	18.157
850.0651	22.67117
850.2086	24.79411
850.3519	26.79544
850.4954	26.46192
850.6387	27.22396
850.7821	25.72436
850.9255	21.00307
851.0688	27.05354
851.2122	29.95212
851.3555	31.26807
851.4988	24.85046
851.6422	27.40731
851.7855	28.62833
851.9288	20.26204
852.0721	25.32763
852.2153	20.71321
852.3586	23.5904
852.5018	24.08645
852.6451	26.85908
852.7883	31.44053
852.9315	25.6592
853.0748	26.44726
853.218	24.29902
853.3611	24.42132
853.5043	28.71987
853.6475	22.5829
853.7906	24.23238
853.9338	22.57134
854.0769	22.83478
854.22	18.36094
854.3632	20.85904
854.5063	21.13662
854.6494	22.3974
854.7924	21.29387
854.9355	19.50362
855.0786	23.99973
855.2216	25.66686
855.3647	22.36134
855.5077	25.46981
855.6507	23.97739
855.7937	26.36789
855.9367	23.43289
856.0797	25.11127
856.2227	25.50561
856.3657	32.31065
856.5086	25.22736
856.6516	22.36977
856.7945	28.70552
856.9374	20.43726
857.0803	22.25941
857.2232	25.95074
857.3661	22.29761
857.509	24.35051
857.6519	24.55414
857.7947	21.77518
857.9376	23.6642
858.0804	20.75717
858.2232	20.29423
858.366	23.19244
858.5089	27.31489
858.6516	27.89542
858.7944	23.67544
858.9372	21.13753
859.08	22.56046
859.2227	27.12464
859.3654	24.36848
859.5082	21.64429
859.6509	23.9912
859.7936	22.6599
859.9363	25.9034
860.079	25.50236
860.2217	25.4496
860.3643	22.1547
860.507	25.91491
860.6496	29.78567
860.7922	29.54672
860.9349	21.84092
861.0775	20.67827
861.2201	20.29896
861.3627	23.66885
861.5052	25.84182
861.6478	25.91715
861.7904	22.7288
861.9329	19.79375
862.0755	27.57135
862.218	24.34778
862.3605	23.04539
862.503	22.16481
862.6455	17.32154
862.788	20.58282
862.9305	25.69514
863.0729	21.68696
863.2154	19.97832
863.3578	27.23159
863.5002	19.92342
863.6426	26.36845
863.7851	28.79599
863.9275	21.4437
864.0698	23.71522
864.2122	27.95051
864.3546	26.67026
864.4969	27.68057
864.6393	23.45815
864.7816	21.32186
864.924	26.3556
865.0662	27.36873
865.2086	25.83007
865.3508	20.02382
865.4931	19.22918
865.6354	20.61866
865.7776	19.46616
865.9199	24.99372
866.0621	20.68223
866.2043	20.95986
866.3466	23.32056
866.4888	23.78751
866.6309	23.49854
866.7731	23.90778
866.9153	21.55707
867.0574	24.34906
867.1996	19.48361
867.3417	22.79524
867.4839	22.36664
867.626	20.16602
867.7681	20.69363
867.9102	23.30037
868.0522	19.71767
868.1943	21.64042
868.3364	21.85873
868.4785	19.04952
868.6205	18.0772
868.7625	19.79447
868.9045	15.50371
869.0465	26.73333
869.1885	21.23036
869.3305	22.47901
869.4725	24.08086
869.6144	25.2076
869.7564	17.33212
869.8983	17.6232
870.0403	21.85061
870.1822	21.1428
870.3241	19.01021
870.466	17.34218
870.6079	18.91674
870.7498	23.72955
870.8916	19.2857
871.0335	21.58154
871.1754	20.68852
871.3171	23.60031
871.459	21.33504
871.6008	26.25967
871.7426	23.65381
871.8844	24.37968
872.0262	19.95786
872.1679	20.4299
872.3097	19.61984
872.4514	22.18754
872.5931	17.77082
872.7349	17.00297
872.8766	17.33261
873.0183	25.08445
873.16	21.16023
873.3017	13.95257
873.4434	19.17708
873.585	26.05966
873.7266	24.3534
873.8683	14.8656
874.0099	18.19463
874.1516	17.87948
874.2932	23.44186
874.4348	20.16818
874.5763	21.31701
874.7179	23.94629
874.8594	20.44796
875.001	19.53831
875.1425	19.46034
875.2841	15.95951
875.4256	17.89271
875.5671	20.62095
875.7086	21.24354
875.85	23.78721
875.9915	25.96576
876.133	22.23868
876.2744	22.27478
876.4159	16.33192
876.5573	18.70234
876.6987	18.56287
876.8401	21.93497
876.9815	20.33257
877.1229	21.03844
877.2643	22.43059
877.4056	19.29391
877.547	16.49816
877.6884	20.2769
877.8297	22.59102
877.971	18.40383
878.1123	20.01759
878.2536	20.82118
878.3949	21.99975
878.5362	20.79742
878.6774	21.57486
878.8187	21.13321
878.9599	21.30446
879.1011	21.68569
879.2424	19.11979
879.3836	14.04618
879.5248	19.10424
879.666	19.95425
879.8071	22.33799
879.9483	15.4833
880.0895	10.92701
880.2306	16.67779
880.3718	17.72008
880.5129	11.38223
880.654	17.98304
880.7951	15.63622
880.9362	16.47713
881.0773	19.60534
881.2183	23.20968
881.3594	19.59156
881.5004	20.95864
881.6414	18.64794
881.7825	13.79595
881.9235	17.33029
882.0645	17.27201
882.2054	13.1955
882.3464	9.439641
882.4874	14.31375
882.6284	19.45962
882.7693	17.076
882.9103	17.87519
883.0512	17.61483
883.1921	14.2268
883.333	18.31241
883.4739	22.5398
883.6147	19.29738
883.7556	17.90962
883.8965	18.23544
884.0374	20.4504
884.1782	15.52842
884.319	20.16265
884.4598	19.16549
884.6006	21.45189
884.7414	17.51481
884.8822	14.52035
885.0229	13.36997
885.1637	17.23058
885.3044	20.15072
885.4452	22.00506
885.5859	15.63666
885.7266	17.86941
885.8673	16.15213
886.008	18.32026
886.1487	19.61793
886.2894	14.17045
886.43	18.84002
886.5707	17.87992
886.7113	15.49579
886.8519	16.32785
886.9926	14.17542
887.1331	19.01211
887.2737	19.8458
887.4143	17.66377
887.5549	17.13318
887.6954	16.39268
887.836	14.80695
887.9765	16.17516
888.1171	16.5163
888.2576	15.81811
888.3981	20.37097
888.5386	19.33725
888.679	21.64437
888.8195	21.60154
888.96	18.00318
889.1004	19.92028
889.2408	17.87031
889.3813	16.58652
889.5217	17.08035
889.6621	13.59905
889.8025	10.61343
889.9429	16.04294
890.0833	22.03516
890.2236	22.2947
890.364	21.86909
890.5043	23.16654
890.6446	17.27632
890.7849	11.9845
890.9252	13.62296
891.0655	19.01517
891.2058	18.56921
891.3461	13.60736
891.4863	20.08584
891.6266	18.81413
891.7668	18.01202
891.907	15.64931
892.0472	14.04381
892.1874	16.42464
892.3276	18.96404
892.4678	16.58062
892.608	18.67958
892.7481	17.2458
892.8883	14.46799
893.0284	18.7375
893.1685	15.32344
893.3087	16.0398
893.4487	18.32664
893.5889	15.10751
893.7289	15.75508
893.869	15.13971
894.009	15.1862
894.1491	12.64268
894.2891	16.41649
894.4291	19.41194
894.5692	18.02608
894.7092	17.04131
894.8491	15.16043
894.9891	17.2316
895.1291	19.6639
895.269	16.71385
895.409	11.77711
895.549	14.37835
895.6888	15.9408
895.8288	18.89072
895.9687	13.1509
896.1086	16.63218
896.2484	15.88106
896.3883	13.16503
896.5281	10.68832
896.668	10.41184
896.8079	14.77344
896.9476	11.18178
897.0875	11.372
897.2272	14.35066
897.3671	12.26207
897.5068	15.58669
897.6466	12.18653
897.7864	12.28457
897.9261	10.03388
898.0658	12.36733
898.2056	14.59182
898.3453	16.37484
898.4849	12.38808
898.6246	16.94252
898.7643	12.25168
898.904	14.53958
899.0436	15.72626
899.1833	12.85532
899.3229	10.59674
899.4625	14.48987
899.6021	12.13722
899.7417	13.98983
899.8813	12.91417
900.0209	10.83057
900.1605	12.59223
900.3	12.73081
900.4395	16.44252
900.579	14.91931
900.7186	11.50973
900.8581	11.16736
900.9976	11.94161
901.1371	11.4066
901.2766	14.95508
901.416	12.43749
901.5555	13.07768
901.6949	13.36267
901.8344	10.64824
901.9738	10.8308
902.1132	13.40525
902.2526	14.43972
902.3919	7.869921
902.5313	10.73663
902.6707	10.91572
