SPECTRUM DATA FILE
SpectrumCount:	1
PixelCount:	3648
UserName:	ToughBook User
SampleName:	
LightSource:	
Comments:	
DeviceName:	Qwave
DeviceManufacturer:	Broadcom
DeviceSerialNo:	11311

Name:	last spectrum
Date:	2024-05-02T14:50:41.4925205+02:00
ExposureTime:	0.02
TemporalAvg:	1
IntensityUnit:	normalizedCounts
CCDLoadLevel:	0.05272437
Temperature:	32.58951
DiagramColor:	200
ProcessingSteps:	335

Wavelength [nm]	Intensity1
334.421	16.9649
334.5891	10.69036
334.7573	13.5
334.9254	16.47009
335.0935	13.9666
335.2616	12.78466
335.4297	13.48108
335.5978	14.20976
335.7659	11.65083
335.934	12.40271
336.1021	15.41796
336.2701	13.98182
336.4382	14.90697
336.6063	12.26849
336.7744	12.60223
336.9424	10.06414
337.1105	14.30329
337.2785	20.27093
337.4466	13.16525
337.6146	9.563864
337.7827	11.02048
337.9507	13.73531
338.1187	15.03557
338.2867	13.33429
338.4548	9.182796
338.6228	12.04887
338.7908	16.71331
338.9588	12.42299
339.1268	14.17696
339.2948	13.21197
339.4628	11.12016
339.6308	11.40876
339.7988	10.44485
339.9667	12.02287
340.1347	15.86364
340.3027	15.34754
340.4707	10.9816
340.6386	6.51736
340.8066	14.49998
340.9745	14.83428
341.1425	15.35419
341.3104	12.36897
341.4784	14.68073
341.6463	14.4294
341.8142	16.29518
341.9821	12.04691
342.1501	14.40078
342.318	8.593878
342.4859	9.652977
342.6538	14.60443
342.8217	16.77811
342.9896	16.09107
343.1575	16.32409
343.3254	18.59786
343.4933	20.57287
343.6612	14.45505
343.829	13.70841
343.9969	11.73065
344.1648	9.540843
344.3326	12.13975
344.5005	17.28955
344.6683	22.83077
344.8362	15.74229
345.004	13.14374
345.1719	10.32819
345.3397	9.078074
345.5075	13.27192
345.6754	15.49135
345.8432	21.07375
346.011	16.73481
346.1788	15.59116
346.3466	14.15859
346.5144	11.81772
346.6822	15.61386
346.85	20.80336
347.0178	12.55674
347.1856	16.23139
347.3534	16.92901
347.5211	11.44489
347.6889	14.12363
347.8567	14.49233
348.0244	15.38589
348.1922	12.48028
348.3599	15.16382
348.5277	11.37165
348.6954	14.49706
348.8632	13.8746
349.0309	14.0434
349.1986	12.69772
349.3663	12.89816
349.5341	12.07114
349.7018	14.03206
349.8695	15.96466
350.0372	14.30776
350.2049	17.73813
350.3726	15.88714
350.5403	12.27204
350.7079	11.3943
350.8756	15.8035
351.0433	15.28464
351.211	10.31846
351.3786	17.63116
351.5463	18.36487
351.714	15.68138
351.8816	13.87442
352.0493	14.4784
352.2169	12.22187
352.3846	15.51024
352.5522	15.84569
352.7198	13.3861
352.8875	19.30062
353.0551	20.87274
353.2227	22.23283
353.3903	16.99894
353.5579	12.23878
353.7255	16.02598
353.8931	18.25932
354.0607	14.89584
354.2283	20.64342
354.3958	16.98454
354.5634	17.09223
354.731	12.4842
354.8986	16.59951
355.0661	13.55278
355.2337	21.80383
355.4012	19.89014
355.5688	16.60276
355.7363	16.66018
355.9039	18.53813
356.0714	18.91344
356.239	15.18842
356.4065	14.34971
356.574	20.09707
356.7415	21.50848
356.909	16.97977
357.0765	14.27696
357.244	19.1213
357.4115	13.88502
357.579	17.67885
357.7465	16.34454
357.914	18.23234
358.0815	12.88851
358.249	14.9268
358.4164	16.09524
358.5839	15.33434
358.7513	16.3947
358.9188	16.88081
359.0862	19.22448
359.2537	20.25803
359.4211	17.9517
359.5886	18.50217
359.756	22.27579
359.9234	20.15463
360.0909	19.9303
360.2583	15.67827
360.4257	15.0648
360.5931	17.25165
360.7605	20.72356
360.9279	15.64811
361.0953	16.03059
361.2627	17.43795
361.4301	18.23873
361.5974	19.75623
361.7648	17.91732
361.9322	19.12204
362.0995	21.4998
362.2669	23.43997
362.4343	23.77499
362.6016	21.27858
362.769	20.70388
362.9363	19.8247
363.1036	19.7644
363.271	22.44898
363.4383	15.42702
363.6056	15.19537
363.7729	18.70045
363.9402	22.75992
364.1075	25.15284
364.2748	21.42833
364.4421	20.5197
364.6094	23.37887
364.7767	18.21501
364.944	15.66745
365.1113	18.37042
365.2786	22.67469
365.4458	15.14069
365.6131	25.33895
365.7803	28.78037
365.9476	23.62989
366.1148	24.31516
366.2821	24.28049
366.4493	21.54359
366.6166	23.45995
366.7838	24.88372
366.951	23.8642
367.1182	20.82704
367.2855	26.31492
367.4527	24.39914
367.6199	22.05086
367.7871	23.342
367.9543	23.85715
368.1215	22.63333
368.2886	27.22748
368.4558	22.28118
368.623	21.80305
368.7902	20.23879
368.9573	25.75888
369.1245	24.34049
369.2917	24.61923
369.4588	24.70306
369.6259	25.36922
369.7931	26.25695
369.9602	23.64222
370.1274	24.69495
370.2945	25.86298
370.4616	24.90421
370.6287	20.67823
370.7958	25.56981
370.963	24.12755
371.1301	26.72582
371.2971	23.58899
371.4643	23.53116
371.6313	29.86121
371.7984	26.47442
371.9655	22.14794
372.1326	22.31768
372.2997	16.67089
372.4667	23.03429
372.6338	26.17388
372.8008	19.88735
372.9679	22.44869
373.1349	24.3995
373.3019	23.49766
373.469	20.86568
373.636	23.72388
373.803	20.26243
373.9701	20.9941
374.1371	24.10127
374.3041	22.33426
374.4711	22.74489
374.6381	20.57982
374.8051	25.21876
374.9721	22.8325
375.1391	26.43949
375.3061	29.07155
375.473	25.03393
375.64	28.42328
375.8069	27.16008
375.9739	23.50151
376.1409	28.27346
376.3078	27.72573
376.4748	28.41677
376.6417	31.20521
376.8087	24.73818
376.9756	22.39509
377.1425	22.80846
377.3094	33.14906
377.4763	29.11996
377.6432	28.33772
377.8102	34.05618
377.9771	31.94678
378.144	32.45592
378.3109	34.60125
378.4777	37.12317
378.6446	27.63973
378.8115	28.69355
378.9784	23.62691
379.1452	24.78479
379.3121	26.13749
379.4789	25.0225
379.6458	28.29376
379.8127	24.89566
379.9795	23.81745
380.1463	27.55854
380.3131	27.8205
380.48	25.58655
380.6468	27.98248
380.8136	30.20692
380.9804	29.05436
381.1472	22.91645
381.314	26.50951
381.4808	25.24305
381.6476	23.19584
381.8144	26.86942
381.9812	28.1649
382.148	25.06065
382.3147	22.93867
382.4815	22.73446
382.6483	21.01322
382.815	20.42287
382.9818	21.01844
383.1485	23.65709
383.3153	28.57312
383.482	23.50985
383.6487	21.83938
383.8155	20.36556
383.9822	23.23793
384.1489	27.56758
384.3156	28.51576
384.4823	29.54487
384.649	27.81101
384.8157	24.83848
384.9824	32.16623
385.1491	34.71445
385.3158	31.76615
385.4825	26.82839
385.6491	26.43834
385.8158	28.9975
385.9825	26.51313
386.1491	25.06203
386.3157	30.98166
386.4824	30.07204
386.649	30.5519
386.8157	32.97047
386.9823	24.99315
387.1489	28.30118
387.3156	29.52444
387.4821	31.5834
387.6488	32.44031
387.8154	25.66832
387.982	29.65495
388.1486	25.78261
388.3152	26.5554
388.4818	25.68424
388.6483	31.60785
388.8149	28.99187
388.9815	33.11529
389.148	32.87648
389.3146	34.93859
389.4811	33.37962
389.6477	35.73846
389.8142	38.11129
389.9808	34.71111
390.1473	34.33097
390.3138	33.16856
390.4804	37.27833
390.6469	35.07002
390.8134	33.43325
390.9799	37.28367
391.1464	39.63156
391.3129	44.37243
391.4794	39.01971
391.6459	37.48045
391.8124	32.78078
391.9789	31.71857
392.1453	35.84055
392.3118	35.67923
392.4782	33.4401
392.6447	32.09605
392.8112	29.71732
392.9776	25.87119
393.144	20.22912
393.3105	21.6674
393.4769	19.01369
393.6433	22.88432
393.8098	29.34217
393.9762	29.99217
394.1426	32.71539
394.309	34.89077
394.4754	35.89823
394.6418	38.2804
394.8082	43.0223
394.9746	42.59934
395.141	39.09852
395.3073	44.33584
395.4737	42.97601
395.64	41.64015
395.8064	41.85533
395.9728	39.20004
396.1391	37.52388
396.3055	33.46733
396.4718	32.8084
396.6381	26.85163
396.8045	26.62822
396.9708	22.83461
397.1371	24.4732
397.3034	28.24855
397.4697	39.1557
397.636	40.9716
397.8023	43.52223
397.9686	49.05342
398.1349	46.03792
398.3012	47.67695
398.4675	39.4216
398.6337	42.71014
398.8	48.79566
398.9662	45.27898
399.1325	48.46318
399.2988	50.00817
399.465	48.4513
399.6313	49.52615
399.7975	45.24854
399.9637	52.56102
400.1299	51.04414
400.2961	50.34556
400.4624	46.14771
400.6286	47.64337
400.7948	49.29242
400.961	50.41291
401.1272	52.7373
401.2934	47.68888
401.4595	51.44849
401.6257	49.50825
401.7919	50.614
401.9581	51.7768
402.1242	56.89304
402.2904	55.02722
402.4565	52.49266
402.6227	51.74481
402.7888	51.49877
402.955	51.20509
403.1211	48.75348
403.2872	52.63314
403.4533	53.03637
403.6194	56.59243
403.7856	56.34805
403.9517	57.82849
404.1177	54.72899
404.2838	49.54916
404.4499	48.48674
404.616	49.18159
404.7821	52.88157
404.9482	53.58186
405.1142	53.67749
405.2803	52.79397
405.4464	57.79279
405.6124	54.46708
405.7784	54.33517
405.9445	55.23802
406.1105	55.68463
406.2766	52.94193
406.4426	51.16595
406.6086	52.8762
406.7746	49.78736
406.9406	52.33006
407.1066	56.05705
407.2726	59.55591
407.4386	48.32792
407.6046	55.26151
407.7706	54.58067
407.9366	61.04789
408.1025	61.58481
408.2685	61.285
408.4344	62.02233
408.6004	60.95924
408.7664	67.02155
408.9323	63.0282
409.0983	69.26629
409.2642	62.83665
409.4301	58.05463
409.596	63.71695
409.762	61.10143
409.9279	55.0655
410.0938	49.92773
410.2597	51.31315
410.4256	56.00953
410.5915	54.56813
410.7574	57.84398
410.9232	60.35501
411.0891	64.21423
411.255	62.73569
411.4209	65.2756
411.5867	64.91977
411.7526	63.44388
411.9184	67.45927
412.0843	62.9842
412.2501	63.21268
412.4159	67.78222
412.5818	63.22742
412.7476	64.66489
412.9134	65.52119
413.0792	65.65713
413.245	61.82954
413.4108	64.13754
413.5766	58.36762
413.7424	66.83594
413.9082	75.09183
414.074	73.07181
414.2397	65.42493
414.4055	67.0519
414.5713	61.24978
414.737	61.10757
414.9028	63.30383
415.0685	61.81645
415.2343	65.10468
415.4	70.4012
415.5658	61.78492
415.7315	64.94461
415.8972	70.10515
416.0629	69.28879
416.2286	73.31535
416.3943	75.51852
416.56	67.60708
416.7257	72.68146
416.8914	72.35452
417.0571	68.03493
417.2228	65.65347
417.3884	64.89691
417.5541	59.89402
417.7198	64.57462
417.8854	65.05764
418.0511	67.78461
418.2167	69.16165
418.3824	65.81696
418.548	68.78014
418.7136	64.00559
418.8792	65.97807
419.0449	65.22898
419.2105	67.56431
419.3761	75.15607
419.5417	79.81985
419.7073	68.6122
419.8729	64.24864
420.0385	64.54059
420.204	65.83341
420.3696	70.22536
420.5352	73.58437
420.7007	75.9467
420.8663	82.89819
421.0319	79.02906
421.1974	76.49043
421.3629	77.40987
421.5285	75.28484
421.694	72.23312
421.8595	75.67549
422.0251	79.08865
422.1906	71.23456
422.3561	68.23175
422.5216	63.53629
422.6871	58.79638
422.8526	68.78854
423.0181	77.11806
423.1835	78.00121
423.349	74.90906
423.5145	76.30998
423.68	80.74594
423.8454	77.23989
424.0109	79.33708
424.1763	79.78242
424.3418	82.8278
424.5072	77.91145
424.6726	73.45019
424.838	73.23297
425.0035	69.10851
425.1689	79.3842
425.3343	76.39876
425.4997	78.07348
425.6651	77.40542
425.8305	78.25011
425.9959	75.13577
426.1613	77.03059
426.3267	82.94913
426.492	81.03283
426.6574	76.8289
426.8228	73.93532
426.9881	73.89234
427.1534	68.73721
427.3188	70.97453
427.4841	73.39779
427.6495	74.96409
427.8148	79.16418
427.9801	78.28789
428.1454	77.0575
428.3107	79.27646
428.476	78.51981
428.6414	78.96545
428.8066	75.48061
428.9719	74.85693
429.1372	72.88414
429.3025	74.30251
429.4678	75.02866
429.633	70.243
429.7983	64.1965
429.9636	63.50006
430.1288	64.22495
430.294	65.27786
430.4593	68.66313
430.6245	61.04302
430.7897	57.98578
430.955	59.04013
431.1202	64.22734
431.2854	75.48843
431.4506	76.10046
431.6158	85.49286
431.781	95.01632
431.9462	96.29386
432.1114	88.82089
432.2766	84.5826
432.4417	71.86869
432.6069	74.41858
432.772	75.3783
432.9372	86.34106
433.1024	89.55552
433.2675	84.83262
433.4326	86.36917
433.5977	86.585
433.7629	80.28104
433.928	72.58131
434.0931	61.21418
434.2582	72.44713
434.4233	83.01255
434.5884	90.00635
434.7535	88.80169
434.9186	88.38365
435.0837	91.05325
435.2488	87.94071
435.4138	90.09089
435.5789	89.90414
435.744	88.72063
435.909	94.43442
436.0741	98.61071
436.2391	101.1609
436.4042	102.9896
436.5692	99.91468
436.7342	93.19772
436.8992	96.28338
437.0643	95.40739
437.2293	98.1891
437.3943	89.50771
437.5593	91.04483
437.7243	95.30913
437.8893	97.2361
438.0542	90.95826
438.2192	84.44833
438.3842	85.52641
438.5491	83.23077
438.7141	86.22614
438.8791	94.94789
439.044	95.28181
439.209	98.62663
439.3739	96.52347
439.5388	101.4213
439.7037	104.1992
439.8687	101.4998
440.0336	96.04086
440.1985	97.91438
440.3634	99.40488
440.5283	96.42942
440.6932	94.71313
440.8581	98.35506
441.0229	107.0676
441.1878	107.6647
441.3527	113.2229
441.5175	103.6105
441.6824	103.6021
441.8472	104.8525
442.0121	105.6634
442.1769	109.6159
442.3418	105.139
442.5066	101.264
442.6714	103.1985
442.8362	111.9274
443.001	102.3502
443.1659	103.1885
443.3307	103.9887
443.4955	101.9673
443.6602	104.4219
443.825	113.3809
443.9898	116.749
444.1546	113.3293
444.3193	108.9248
444.4841	110.9532
444.6488	113.1661
444.8136	114.2955
444.9783	110.0423
445.1431	101.8618
445.3078	101.9265
445.4725	105.2632
445.6372	105.7977
445.802	102.36
445.9667	103.9293
446.1314	105.0725
446.2961	108.3307
446.4608	108.6545
446.6255	111.1651
446.7901	113.5564
446.9548	110.6521
447.1195	110.2556
447.2841	114.7064
447.4488	113.5368
447.6134	112.4646
447.7781	117.5277
447.9427	113.7817
448.1074	109.6349
448.272	113.0679
448.4366	117.4949
448.6012	120.1092
448.7658	119.2416
448.9305	111.856
449.095	110.6599
449.2596	107.1841
449.4242	108.0696
449.5888	113.4091
449.7534	115.7141
449.9179	119.0899
450.0825	119.6344
450.2471	113.4618
450.4116	121.3251
450.5762	127.9646
450.7407	121.9354
450.9052	123.0822
451.0698	128.0683
451.2343	119.1567
451.3988	126.2602
451.5633	123.3299
451.7278	119.1007
451.8923	127.5419
452.0568	127.4028
452.2213	122.4626
452.3858	121.4093
452.5503	114.428
452.7148	123.0536
452.8792	117.4867
453.0437	110.8999
453.2081	117.2767
453.3726	123.399
453.537	119.8087
453.7015	118.0325
453.8659	119.7841
454.0303	124.2
454.1947	124.6365
454.3592	125.9866
454.5236	125.6819
454.688	128.3382
454.8524	123.2323
455.0168	124.4903
455.1811	124.7406
455.3455	119.923
455.5099	120.2527
455.6743	125.2235
455.8386	128.0052
456.003	132.2386
456.1673	128.0643
456.3317	121.5149
456.496	124.1732
456.6603	129.115
456.8246	128.2749
456.989	129.6225
457.1533	130.6862
457.3176	137.3187
457.4819	134.5805
457.6462	127.9601
457.8105	131.514
457.9748	131.545
458.1391	123.8023
458.3033	117.0303
458.4676	121.052
458.6319	120.2283
458.7961	126.2216
458.9604	134.8588
459.1246	136.6672
459.2888	131.6142
459.4531	126.8015
459.6173	123.8414
459.7815	120.7549
459.9457	128.3181
460.11	128.6799
460.2741	127.4717
460.4384	130.3693
460.6025	132.7948
460.7667	130.1641
460.9309	130.8126
461.0951	134.2359
461.2592	128.4524
461.4234	129.2369
461.5876	133.5021
461.7517	136.9317
461.9159	134.3593
462.08	131.2742
462.2441	124.8829
462.4082	132.032
462.5724	137.8008
462.7365	137.3963
462.9006	134.8904
463.0647	137.4232
463.2288	139.0036
463.3929	141.0388
463.557	136.4535
463.721	129.8729
463.8851	128.7686
464.0492	127.2567
464.2132	128.4922
464.3773	139.3415
464.5414	128.9513
464.7054	128.1528
464.8694	127.4444
465.0334	131.3625
465.1975	131.7842
465.3615	133.9703
465.5255	132.7667
465.6895	137.3056
465.8535	137.3941
466.0175	141.9072
466.1815	140.3356
466.3455	137.8672
466.5095	133.3593
466.6734	125.3804
466.8374	123.6022
467.0014	125.4246
467.1653	128.6682
467.3293	131.9155
467.4932	133.7071
467.6571	133.3934
467.8211	133.9076
467.985	132.4043
468.1489	130.8452
468.3128	135.346
468.4767	137.8205
468.6406	138.7284
468.8045	142.7038
468.9684	140.6158
469.1323	141.8563
469.2962	138.5145
469.46	136.8694
469.6239	143.3002
469.7878	137.1543
469.9516	135.8835
470.1154	135.4118
470.2793	128.4393
470.4431	130.5439
470.607	133.8785
470.7708	133.526
470.9346	137.5968
471.0984	138.3386
471.2622	134.6693
471.426	135.9433
471.5898	135.9072
471.7536	141.478
471.9174	149.4142
472.0811	142.9071
472.2449	148.5621
472.4087	147.5155
472.5724	141.5723
472.7362	144.5752
472.8999	142.6695
473.0637	135.1895
473.2274	136.7442
473.3911	140.1036
473.5548	140.2046
473.7185	132.436
473.8822	142.6548
474.0459	140.8712
474.2096	142.9135
474.3733	140.1323
474.537	141.9841
474.7007	153.7328
474.8643	149.0662
475.028	147.3037
475.1917	149.2099
475.3553	146.7176
475.519	144.4516
475.6826	143.4723
475.8463	147.1408
476.0099	145.4471
476.1735	147.3052
476.3371	140.474
476.5007	135.538
476.6643	141.234
476.8279	144.6047
476.9915	145.0822
477.1551	148.0819
477.3187	145.8643
477.4823	143.6216
477.6458	150.8302
477.8094	148.6203
477.9729	147.69
478.1365	142.0067
478.3	134.3124
478.4636	134.6741
478.6271	144.0413
478.7906	145.8891
478.9541	138.8492
479.1176	139.9642
479.2812	149.1328
479.4447	150.3182
479.6082	151.1797
479.7716	147.3175
479.9351	145.5877
480.0986	142.3059
480.2621	147.5281
480.4255	147.8248
480.589	152.3668
480.7524	151.7594
480.9159	146.4316
481.0793	148.2734
481.2428	147.5462
481.4062	149.5654
481.5696	150.2973
481.733	149.4057
481.8964	146.575
482.0598	146.7487
482.2232	145.6183
482.3866	146.3566
482.55	143.7522
482.7134	146.2416
482.8768	145.5469
483.0401	147.5664
483.2035	148.4824
483.3668	147.1396
483.5302	150.5591
483.6935	155.4442
483.8568	148.0117
484.0202	144.0034
484.1835	150.3557
484.3468	143.3927
484.5101	142.9972
484.6734	147.0993
484.8367	145.2278
485	144.5584
485.1633	140.6989
485.3266	142.6474
485.4899	144.3657
485.6531	141.4588
485.8164	131.6005
485.9796	122.2698
486.1429	115.2633
486.3061	118.0522
486.4694	122.5532
486.6326	130.5237
486.7958	135.9664
486.959	138.1394
487.1223	131.8094
487.2855	134.5674
487.4486	133.041
487.6118	138.7717
487.775	145.5273
487.9382	154.7247
488.1014	154.4473
488.2646	155.1523
488.4277	152.405
488.5909	147.3387
488.754	138.4162
488.9171	139.1249
489.0803	139.7232
489.2434	138.8625
489.4066	145.7834
489.5697	155.1594
489.7328	159.1151
489.8959	164.6774
490.059	159.9031
490.2221	159.9227
490.3852	151.9771
490.5482	150.7386
490.7113	150.5203
490.8744	155.7076
491.0374	153.2806
491.2005	147.4248
491.3636	150.1379
491.5266	152.4458
491.6896	150.2258
491.8527	146.4242
492.0157	141.896
492.1787	140.6084
492.3417	142.9266
492.5047	147.6361
492.6677	160.2756
492.8307	157.1536
492.9937	156.9153
493.1567	151.7027
493.3196	143.8245
493.4826	149.9069
493.6456	150.3477
493.8085	153.2856
493.9715	144.2704
494.1344	148.9
494.2974	156.6149
494.4603	157.7601
494.6232	155.9066
494.7861	163.7769
494.949	153.7066
495.1119	155.0952
495.2748	151.7449
495.4377	149.8978
495.6006	141.3057
495.7635	144.931
495.9264	153.5218
496.0892	151.9462
496.2521	148.8959
496.4149	155.7283
496.5778	165.0575
496.7407	154.6095
496.9035	155.8122
497.0663	152.4005
497.2291	153.2009
497.3919	152.6421
497.5547	164.2578
497.7176	164.8558
497.8804	155.937
498.0432	148.7102
498.2059	140.8828
498.3687	140.7709
498.5315	151.7916
498.6942	155.7665
498.857	151.6686
499.0198	158.5025
499.1825	157.0668
499.3452	155.4781
499.508	161.2875
499.6707	159.8403
499.8334	156.1856
499.9962	150.5702
500.1589	151.2002
500.3216	152.1788
500.4843	149.7355
500.6469	148.1163
500.8096	153.3264
500.9723	158.168
501.135	151.204
501.2976	147.9701
501.4603	151.9941
501.623	152.2868
501.7856	148.1287
501.9482	144.9882
502.1109	148.8403
502.2735	158.6822
502.4361	164.3806
502.5987	157.5473
502.7614	147.0847
502.924	153.8191
503.0865	153.1356
503.2491	157.6187
503.4117	153.9625
503.5743	157.0594
503.7368	159.0378
503.8994	155.5015
504.062	151.5596
504.2245	144.9432
504.3871	153.4902
504.5496	162.6857
504.7121	165.5027
504.8746	162.8055
505.0372	155.1382
505.1997	159.8976
505.3622	158.6627
505.5247	162.2777
505.6872	163.7001
505.8497	163.1046
506.0121	172.7085
506.1746	169.6433
506.3371	169.3184
506.4995	163.8976
506.662	159.9286
506.8244	163.0753
506.9869	159.0072
507.1493	158.1354
507.3117	161.9093
507.4742	159.3611
507.6366	153.08
507.799	152.5992
507.9614	153.1437
508.1238	157.8449
508.2862	161.9477
508.4485	164.6309
508.6109	161.1732
508.7733	164.3526
508.9357	161.58
509.098	163.7742
509.2604	169.0712
509.4227	169.2802
509.5851	166.3091
509.7474	157.2889
509.9097	158.1404
510.072	158.8063
510.2343	161.9212
510.3966	167.8708
510.5589	171.197
510.7212	165.7326
510.8835	163.4801
511.0458	161.9625
511.2081	162.6249
511.3703	167.3341
511.5326	170.5697
511.6949	166.2549
511.8571	164.4374
512.0193	170.3537
512.1816	166.9251
512.3438	159.8812
512.506	159.2704
512.6682	159.9171
512.8304	158.2381
512.9926	161.2957
513.1548	158.2999
513.317	158.3353
513.4792	157.5625
513.6414	161.1275
513.8035	155.8262
513.9657	156.3755
514.1279	159.9945
514.29	158.0019
514.4521	152.4022
514.6143	156.1313
514.7764	159.859
514.9385	157.9382
515.1006	160.6254
515.2628	165.8719
515.4249	163.6263
515.587	161.2598
515.7491	167.4323
515.9111	167.4942
516.0732	163.1164
516.2353	156.9744
516.3973	156.6776
516.5594	152.965
516.7214	141.8624
516.8835	141.9534
517.0455	144.0537
517.2076	135.0481
517.3696	129.5797
517.5316	145.0693
517.6937	163.571
517.8557	159.6548
518.0176	160.0614
518.1796	152.8425
518.3416	137.7859
518.5036	139.0014
518.6656	144.3688
518.8275	159.9466
518.9895	153.2969
519.1514	156.0863
519.3134	156.7652
519.4753	159.3654
519.6373	152.5159
519.7992	147.8175
519.9611	155.5354
520.123	166.3302
520.2849	166.16
520.4468	161.7123
520.6087	158.7307
520.7706	154.1687
520.9325	165.5391
521.0944	162.1438
521.2562	167.3036
521.4181	170.0853
521.58	163.1598
521.7418	161.9301
521.9036	162.6771
522.0655	169.7298
522.2273	168.4146
522.3891	166.9636
522.551	159.4565
522.7128	155.9592
522.8746	152.4532
523.0363	159.5309
523.1981	156.847
523.3599	156.025
523.5217	164.4331
523.6835	163.2352
523.8452	166.5552
524.007	174.6234
524.1687	170.7205
524.3304	170.2555
524.4922	171.2603
524.6539	169.6905
524.8157	167.3243
524.9774	165.7901
525.1391	165.0171
525.3008	170.7816
525.4625	173.0235
525.6241	173.4549
525.7858	172.7626
525.9475	173.8659
526.1092	165.5183
526.2709	162.5919
526.4325	152.9336
526.5942	151.3994
526.7558	154.8089
526.9174	146.0277
527.079	155.1661
527.2407	161.0357
527.4023	165.4729
527.5639	166.2811
527.7255	162.4021
527.8871	170.1827
528.0487	170.1284
528.2103	167.5977
528.3718	165.0491
528.5334	165.0928
528.695	172.5154
528.8565	175.3272
529.0181	175.6147
529.1796	171.6847
529.3412	170.0004
529.5027	169.0924
529.6642	164.4718
529.8257	164.5274
529.9872	168.9044
530.1487	172.5268
530.3102	175.4635
530.4717	170.6751
530.6332	166.8571
530.7947	172.7454
530.9562	179.3924
531.1176	180.0395
531.2791	180.7452
531.4405	174.8459
531.6019	176.1965
531.7634	176.1364
531.9248	172.5526
532.0862	168.4694
532.2477	173.2285
532.4091	174.103
532.5704	167.2869
532.7319	170.2671
532.8932	160.6109
533.0546	162.2041
533.216	168.3609
533.3774	165.4299
533.5388	165.3459
533.7001	177.0332
533.8615	172.699
534.0228	167.8684
534.1841	166.5095
534.3455	170.3681
534.5068	169.5234
534.6681	160.6377
534.8293	168.5029
534.9907	167.1107
535.152	174.1471
535.3132	173.0575
535.4745	177.5786
535.6358	180.9057
535.7971	177.2007
535.9583	178.7491
536.1196	168.7526
536.2808	167.8713
536.4421	166.3498
536.6033	170.5548
536.7645	169.2598
536.9258	172.8758
537.087	161.296
537.2482	167.4634
537.4094	177.4775
537.5706	177.3814
537.7318	169.262
537.8929	176.3834
538.0541	172.7604
538.2153	174.5539
538.3764	169.4193
538.5376	174.558
538.6987	172.8654
538.8599	173.2274
539.021	169.9156
539.1821	171.0497
539.3432	163.4025
539.5043	161.9479
539.6655	164.6841
539.8265	163.9273
539.9876	164.7897
540.1487	168.3812
540.3098	163.3389
540.4708	158.3814
540.6319	162.1533
540.793	167.4977
540.954	162.6854
541.1151	162.7093
541.2761	162.7655
541.4371	163.0065
541.5981	168.1673
541.7592	164.1245
541.9202	170.1504
542.0812	170.646
542.2422	164.6755
542.4031	158.1897
542.5641	174.6627
542.7251	167.1663
542.886	171.949
543.0471	168.1467
543.208	162.6901
543.369	164.3835
543.5298	172.0562
543.6908	167.2885
543.8517	168.4747
544.0126	174.4335
544.1736	171.5435
544.3345	164.0134
544.4954	164.8077
544.6563	164.3014
544.8171	157.8263
544.978	162.5829
545.1389	164.783
545.2997	164.4446
545.4606	166.5243
545.6215	165.1674
545.7823	162.736
545.9432	172.9176
546.104	172.9521
546.2648	168.0039
546.4256	160.317
546.5864	165.8478
546.7473	171.1586
546.908	171.6396
547.0688	171.0483
547.2296	176.2287
547.3904	171.1916
547.5511	160.9105
547.7119	163.3897
547.8727	169.5257
548.0334	168.0665
548.1942	168.0594
548.3549	174.2446
548.5156	177.8941
548.6763	175.235
548.837	169.7955
548.9977	164.672
549.1584	170.972
549.3192	176.0099
549.4798	178.9075
549.6405	168.5077
549.8011	167.1475
549.9619	175.321
550.1225	175.9944
550.2831	174.1412
550.4438	171.3334
550.6044	162.4829
550.765	164.6886
550.9257	172.4086
551.0863	177.5122
551.2469	176.841
551.4075	169.5135
551.5681	164.5066
551.7287	173.2625
551.8893	169.6587
552.0498	174.6775
552.2104	172.2293
552.371	177.0275
552.5315	179.6409
552.6921	177.2168
552.8526	176.8853
553.0131	167.9091
553.1736	177.1826
553.3342	180.6462
553.4947	172.7182
553.6552	167.3706
553.8157	174.524
553.9762	174.8741
554.1367	178.5421
554.2971	172.3103
554.4576	174.2847
554.618	174.9084
554.7785	173.061
554.939	177.5561
555.0994	186.7607
555.2598	177.0603
555.4203	167.1703
555.5807	168.9258
555.7411	173.0747
555.9015	175.1187
556.0619	173.991
556.2223	166.3082
556.3827	170.9024
556.5431	171.3179
556.7034	169.7477
556.8638	166.9938
557.0242	169.26
557.1845	172.3889
557.3448	168.7511
557.5052	165.5952
557.6655	180.7825
557.8259	173.0992
557.9861	168.636
558.1465	172.0674
558.3068	174.2616
558.467	174.8404
558.6274	174.4847
558.7877	162.524
558.9479	160.6748
559.1082	163.778
559.2684	171.5739
559.4287	173.7274
559.5889	174.3461
559.7491	175.178
559.9094	170.3456
560.0696	162.6698
560.2299	163.247
560.3901	171.758
560.5502	174.761
560.7104	173.5979
560.8707	183.8613
561.0308	182.3974
561.191	180.2369
561.3511	172.5748
561.5114	169.6291
561.6714	168.1028
561.8316	163.2188
561.9918	173.921
562.1519	180.4042
562.312	175.2894
562.4722	170.3441
562.6323	170.2968
562.7924	167.5972
562.9525	172.5948
563.1125	178.4942
563.2726	171.1954
563.4327	175.3778
563.5928	174.7353
563.7528	171.7405
563.9129	169.8844
564.0729	167.7964
564.233	179.28
564.393	175.3874
564.553	176.8989
564.7131	180.0841
564.873	180.7257
565.0331	178.2964
565.1931	177.2878
565.353	169.2289
565.5131	169.9717
565.673	170.7828
565.833	175.8779
565.9929	172.7091
566.1529	171.2886
566.3129	173.0813
566.4728	184.1701
566.6328	179.5672
566.7927	180.4088
566.9526	175.9887
567.1125	175.2489
567.2724	173.9146
567.4323	177.6767
567.5922	178.9665
567.7521	177.7203
567.9119	181.0162
568.0718	184.7232
568.2317	181.0652
568.3915	184.5585
568.5514	178.3596
568.7112	170.3072
568.871	175.7894
569.0309	175.4496
569.1907	170.5641
569.3505	176.8051
569.5103	184.3223
569.6701	181.5766
569.8299	180.7485
569.9897	175.1695
570.1495	179.0176
570.3092	180.2014
570.469	181.024
570.6287	173.3569
570.7885	176.0642
570.9482	177.7386
571.108	164.4395
571.2677	169.3957
571.4274	170.6845
571.5871	176.3631
571.7468	182.7335
571.9066	184.747
572.0662	186.8178
572.2259	189.5075
572.3856	186.194
572.5452	188.4508
572.7049	196.6566
572.8646	186.4578
573.0242	184.7439
573.1838	192.9836
573.3435	190.3964
573.5031	187.7512
573.6627	188.5899
573.8223	191.1671
573.9819	191.9664
574.1415	191.1091
574.3011	192.3959
574.4607	193.0444
574.6203	191.117
574.7798	195.1818
574.9394	189.4901
575.099	193.8031
575.2585	200.7615
575.418	187.453
575.5776	187.7398
575.7371	195.7543
575.8966	187.0544
576.0562	187.1507
576.2156	200.8925
576.3751	192.5423
576.5346	196.3704
576.6941	188.4396
576.8536	194.5274
577.0131	189.3553
577.1725	193.4089
577.332	189.0932
577.4914	191.9695
577.6508	192.2651
577.8103	199.9684
577.9697	195.4509
578.1291	194.7915
578.2885	186.7894
578.4479	190.2075
578.6073	189.4599
578.7667	190.5778
578.9261	193.1051
579.0854	197.1517
579.2448	192.8111
579.4042	196.8246
579.5635	197.7603
579.7229	191.477
579.8822	195.0151
580.0416	201.0155
580.2009	195.1055
580.3602	201.1758
580.5195	202.6863
580.6788	205.6333
580.8381	200.405
580.9974	201.3698
581.1566	203.0442
581.3159	202.9279
581.4752	198.7112
581.6345	197.4852
581.7937	199.68
581.9529	202.393
582.1122	205.1766
582.2714	202.6412
582.4306	204.8633
582.5898	208.6978
582.749	204.9971
582.9082	201.4199
583.0674	209.5096
583.2266	202.4647
583.3857	204.0279
583.5449	201.1149
583.7041	199.7666
583.8633	202.1794
584.0224	212.6154
584.1815	209.7432
584.3407	210.9447
584.4998	205.896
584.6589	204.9535
584.818	214.1125
584.9771	210.6611
585.1362	205.153
585.2953	212.75
585.4544	203.7025
585.6135	203.8826
585.7725	203.1217
585.9316	208.091
586.0906	206.7128
586.2497	207.0621
586.4087	210.6839
586.5677	203.0548
586.7267	205.9631
586.8858	208.3467
587.0448	208.3612
587.2038	215.2522
587.3628	209.786
587.5218	208.7486
587.6807	206.6933
587.8397	216.1767
587.9987	210.9683
588.1577	203.2144
588.3166	204.8717
588.4755	199.7565
588.6345	201.3423
588.7934	200.4184
588.9523	197.0474
589.1112	189.0841
589.2701	191.6299
589.429	191.3398
589.5879	192.8585
589.7468	191.7
589.9056	204.6936
590.0645	204.2818
590.2234	196.5666
590.3822	200.3942
590.5411	209.0839
590.6999	211.3399
590.8588	211.5577
591.0176	208.2492
591.1764	213.6333
591.3352	207.5979
591.494	210.6836
591.6528	204.1453
591.8116	194.5549
591.9703	205.491
592.1291	208.6422
592.2878	211.5956
592.4467	209.0382
592.6053	207.819
592.7641	205.3466
592.9229	215.0428
593.0816	208.6556
593.2403	208.8739
593.399	214.7245
593.5577	211.4897
593.7164	211.2539
593.8751	209.2734
594.0338	204.3421
594.1924	209.2977
594.3511	215.1524
594.5098	217.1293
594.6684	215.3197
594.8271	214.9609
594.9857	212.0195
595.1443	214.7527
595.303	214.8865
595.4615	216.0178
595.6202	215.0645
595.7787	217.5969
595.9374	215.2564
596.0959	221.4175
596.2545	219.1112
596.4131	214.6276
596.5717	218.3526
596.7302	219.5942
596.8887	221.4215
597.0473	219.6093
597.2058	223.581
597.3644	221.658
597.5229	215.4894
597.6814	221.5261
597.8399	226.5827
597.9984	218.1917
598.1569	211.4661
598.3154	215.0153
598.4738	212.4049
598.6323	219.3795
598.7908	223.9016
598.9492	218.2821
599.1076	228.0686
599.2661	226.9371
599.4245	223.253
599.5829	220.9286
599.7413	225.4619
599.8997	223.7697
600.0581	225.8368
600.2165	225.8434
600.3749	224.6564
600.5333	232.2419
600.6917	228.0241
600.85	229.7116
601.0084	228.057
601.1667	231.2664
601.325	230.981
601.4833	231.0243
601.6417	228.077
601.8	218.3972
601.9583	221.875
602.1166	221.7387
602.2749	224.14
602.4332	231.126
602.5914	237.0042
602.7498	235.2798
602.908	224.4552
603.0662	226.2086
603.2245	234.4389
603.3828	229.4965
603.541	237.1633
603.6992	235.0184
603.8574	239.5963
604.0156	234.2464
604.1738	239.7977
604.332	234.0723
604.4902	221.049
604.6484	228.7343
604.8065	232.1873
604.9647	231.1235
605.1229	233.5044
605.281	228.5041
605.4391	224.786
605.5973	230.5929
605.7554	229.7871
605.9135	227.9451
606.0717	228.4573
606.2297	228.8757
606.3878	233.954
606.5459	234.0188
606.704	236.8505
606.8621	238.8616
607.0201	238.1992
607.1782	239.8121
607.3362	240.2607
607.4943	233.6566
607.6523	231.1081
607.8104	238.0484
607.9684	229.2012
608.1264	230.747
608.2844	236.7862
608.4424	237.1127
608.6003	232.4943
608.7584	234.8807
608.9163	229.8914
609.0743	234.053
609.2322	231.5983
609.3902	239.1533
609.5482	235.3474
609.7061	227.9089
609.864	235.6474
610.0219	236.3459
610.1798	229.9967
610.3377	222.1149
610.4956	225.893
610.6535	228.9732
610.8114	232.0291
610.9693	234.7579
611.1271	232.8204
611.285	233.2874
611.4429	239.7984
611.6007	230.7287
611.7585	235.1393
611.9164	235.7642
612.0742	222.9548
612.232	222.9661
612.3898	221.3208
612.5476	227.0091
612.7054	230.7098
612.8632	234.1064
613.0209	227.5602
613.1787	231.7811
613.3365	224.6924
613.4942	213.9307
613.652	220.3561
613.8097	218.1387
613.9674	217.6277
614.1252	220.6912
614.2829	225.1999
614.4406	230.4269
614.5983	229.0497
614.756	233.2955
614.9136	228.0382
615.0714	224.7967
615.229	230.6749
615.3867	224.7393
615.5443	226.3732
615.702	218.4565
615.8596	219.6725
616.0172	218.3622
616.1748	216.6409
616.3325	213.5618
616.4901	213.9041
616.6476	220.2637
616.8052	224.2608
616.9628	218.5873
617.1204	220.1551
617.278	221.8565
617.4355	221.1941
617.5931	227.1157
617.7506	224.7216
617.9081	225.7337
618.0657	227.7791
618.2232	231.0311
618.3807	226.6706
618.5382	224.3265
618.6957	223.393
618.8532	229.1348
619.0107	227.2438
619.1682	220.6972
619.3256	225.7251
619.4831	229.5948
619.6406	225.7403
619.798	229.4181
619.9554	228.5168
620.1129	229.5111
620.2703	232.9214
620.4277	225.9394
620.5851	229.9051
620.7425	229.8349
620.8998	231.7185
621.0573	234.5092
621.2146	231.0856
621.372	228.0992
621.5294	217.9469
621.6867	216.6452
621.8441	220.4158
622.0013	221.0216
622.1587	218.5628
622.316	229.3619
622.4733	224.9551
622.6306	228.6641
622.7879	229.5287
622.9452	219.9337
623.1025	217.7887
623.2598	222.4985
623.4171	224.6098
623.5743	222.273
623.7316	220.3764
623.8888	223.1734
624.046	228.9034
624.2032	223.2624
624.3605	224.7102
624.5176	220.9968
624.6749	218.2807
624.8321	206.8477
624.9893	211.8987
625.1464	226.028
625.3036	218.2707
625.4608	216.5242
625.6179	214.0198
625.7751	218.4346
625.9322	219.2147
626.0894	219.1323
626.2465	216.7419
626.4036	226.2418
626.5607	233.5904
626.7178	223.4177
626.8749	223.4064
627.032	218.0009
627.189	219.6543
627.3461	220.8308
627.5032	222.1289
627.6602	218.3392
627.8173	215.7452
627.9743	213.9205
628.1313	217.0582
628.2884	210.0122
628.4454	216.5442
628.6024	217.3746
628.7594	221.2713
628.9164	222.2859
629.0734	219.1524
629.2303	216.3073
629.3873	214.549
629.5443	215.5009
629.7012	223.2622
629.8582	212.0421
630.0151	203.6102
630.172	205.2162
630.3289	211.7369
630.4858	208.2903
630.6428	205.7788
630.7996	216.6005
630.9565	215.7288
631.1134	218.355
631.2703	220.2561
631.4272	216.4927
631.584	212.2869
631.7408	214.7537
631.8977	211.3673
632.0546	212.2186
632.2114	215.0222
632.3682	216.0585
632.525	213.0926
632.6818	218.8473
632.8386	217.292
632.9954	213.6155
633.1522	213.0135
633.3089	215.5161
633.4657	214.787
633.6224	205.6405
633.7792	207.8844
633.9359	214.7805
634.0927	213.5595
634.2494	213.3573
634.4061	209.2469
634.5628	213.2033
634.7195	213.903
634.8762	213.7803
635.0329	217.213
635.1895	216.2422
635.3462	218.6746
635.5029	221.5951
635.6595	216.1337
635.8162	218.8591
635.9728	214.8058
636.1295	216.0708
636.2861	208.2332
636.4427	206.7988
636.5992	207.6284
636.7559	217.9753
636.9124	217.961
637.069	217.2412
637.2256	209.8113
637.3821	216.9435
637.5387	219.7886
637.6953	208.7591
637.8518	213.3777
638.0084	217.3741
638.1649	213.2142
638.3214	208.2729
638.4779	211.9588
638.6344	215.5462
638.7909	214.3253
638.9474	215.9478
639.1038	216.6054
639.2603	209.3073
639.4167	206.9604
639.5732	208.6481
639.7297	212.5898
639.8861	209.0143
640.0425	201.1662
640.199	200.0318
640.3553	202.9666
640.5118	215.0181
640.6682	208.229
640.8245	203.2543
640.981	202.5415
641.1373	208.7517
641.2936	203.5502
641.45	200.4802
641.6064	201.8113
641.7627	201.6071
641.9191	200.747
642.0754	202.4828
642.2317	200.5257
642.388	201.6478
642.5443	205.0868
642.7006	206.8962
642.8569	199.6028
643.0131	202.0017
643.1694	204.4985
643.3257	205.8355
643.4819	206.1365
643.6382	202.2642
643.7944	199.2627
643.9506	201.421
644.1069	200.6433
644.2631	206.1752
644.4193	201.577
644.5754	201.9748
644.7316	200.8812
644.8878	191.3551
645.044	187.5006
645.2002	192.8306
645.3563	197.4931
645.5125	201.3515
645.6686	199.894
645.8248	198.6322
645.9809	196.9767
646.137	196.8719
646.2931	197.8988
646.4492	195.4583
646.6053	191.2386
646.7614	196.821
646.9174	193.5503
647.0735	188.0961
647.2296	187.7477
647.3856	188.324
647.5417	188.4412
647.6977	189.6089
647.8537	194.7091
648.0098	195.9743
648.1658	187.7953
648.3218	190.438
648.4777	192.1945
648.6337	187.2144
648.7897	190.5059
648.9457	197.7409
649.1016	193.2728
649.2576	182.7529
649.4135	181.4884
649.5695	182.6075
649.7254	181.3691
649.8813	185.2918
650.0372	186.3966
650.1932	188.3338
650.3491	190.6886
650.5049	195.7564
650.6608	196.51
650.8167	196.3227
650.9725	190.0076
651.1284	192.1966
651.2842	193.7791
651.4401	184.8447
651.5959	184.958
651.7518	188.3849
651.9076	186.7328
652.0634	187.2859
652.2192	188.7233
652.3749	194.9345
652.5308	189.1816
652.6865	189.1698
652.8423	191.6235
652.998	193.193
653.1538	191.9782
653.3096	192.3008
653.4653	182.2855
653.621	183.1752
653.7767	192.1063
653.9324	188.4033
654.0881	194.7462
654.2438	191.1419
654.3995	189.0724
654.5552	176.9895
654.7109	187.236
654.8665	187.1213
655.0222	183.2074
655.1778	176.066
655.3334	179.3772
655.4891	181.5627
655.6447	181.0423
655.8003	180.1007
655.9559	169.1158
656.1115	157.8675
656.2671	143.1094
656.4227	148.3535
656.5782	158.2476
656.7338	165.0556
656.8893	164.4925
657.0449	173.8181
657.2004	183.8404
657.356	179.54
657.5115	174.1857
657.667	176.8168
657.8225	184.6285
657.978	188.021
658.1335	192.2266
658.289	186.4169
658.4445	184.5084
658.5999	184.4025
658.7554	186.2474
658.9108	183.5587
659.0663	181.4042
659.2217	190.312
659.3771	184.9625
659.5325	183.4201
659.6879	185.3681
659.8433	183.9614
659.9987	185.6277
660.1541	190.8737
660.3095	190.0884
660.4648	186.0415
660.6202	185.6328
660.7756	181.4125
660.9309	194.8894
661.0862	190.9756
661.2416	191.549
661.3969	192.499
661.5522	186.0254
661.7075	188.1496
661.8628	182.2558
662.0181	181.905
662.1733	182.0714
662.3286	187.0367
662.4839	188.9061
662.6391	189.5185
662.7944	189.1423
662.9496	191.0755
663.1048	188.7887
663.26	181.441
663.4152	182.5307
663.5704	180.0986
663.7256	189.8955
663.8808	190.6015
664.036	182.9202
664.1912	184.3026
664.3463	184.6174
664.5015	182.0173
664.6566	188.2045
664.8118	187.4153
664.9669	192.674
665.122	186.0053
665.2771	184.3542
665.4322	183.4434
665.5873	177.5957
665.7424	186.0609
665.8975	189.8493
666.0526	192.7822
666.2076	181.0208
666.3627	174.7402
666.5177	175.9188
666.6727	181.3159
666.8278	178.6548
666.9828	180.5466
667.1378	183.0034
667.2928	180.9939
667.4478	180.8853
667.6028	184.9165
667.7578	188.9589
667.9127	182.1676
668.0677	177.3632
668.2226	178.9075
668.3776	181.0334
668.5325	180.8134
668.6874	182.3955
668.8423	178.6042
668.9973	184.5095
669.1522	191.2638
669.3071	181.9932
669.4619	180.9685
669.6168	180.26
669.7717	180.8069
669.9265	174.7533
670.0814	189.6356
670.2362	184.5247
670.3911	181.7033
670.5459	181.757
670.7007	181.039
670.8555	183.3777
671.0103	184.0817
671.1651	182.587
671.3199	182.762
671.4747	173.4908
671.6295	179.9549
671.7842	176.9431
671.939	178.908
672.0937	179.497
672.2484	178.6793
672.4031	174.7385
672.5579	179.9276
672.7126	182.4059
672.8673	179.2388
673.022	173.7226
673.1767	176.3574
673.3314	180.7628
673.486	184.1071
673.6407	176.98
673.7953	178.7869
673.95	174.8659
674.1046	177.2657
674.2592	177.0919
674.4138	177.2347
674.5684	176.81
674.723	169.6837
674.8776	170.8684
675.0322	168.7737
675.1868	175.7027
675.3414	178.0216
675.4959	171.4009
675.6505	170.555
675.805	170.1345
675.9595	173.0814
676.1141	171.2171
676.2686	175.5672
676.4231	175.239
676.5776	176.3895
676.7321	175.3438
676.8866	168.9482
677.041	172.3059
677.1955	176.8903
677.35	172.7861
677.5044	172.0981
677.6589	171.2563
677.8133	170.2101
677.9677	172.4047
678.1221	170.3688
678.2766	171.0569
678.4309	170.8003
678.5853	167.2624
678.7397	168.3239
678.8941	167.8706
679.0485	165.7332
679.2028	166.2812
679.3571	164.963
679.5115	166.0744
679.6658	167.3646
679.8201	168.4353
679.9744	168.4012
680.1288	166.2843
680.2831	167.9758
680.4373	168.1288
680.5916	165.2248
680.7459	163.9833
680.9001	162.0903
681.0544	165.0019
681.2087	165.2004
681.3629	167.7747
681.5171	167.1482
681.6713	153.9771
681.8256	159.7006
681.9797	165.3048
682.134	161.6317
682.2881	160.9921
682.4423	165.412
682.5965	157.3752
682.7507	155.2326
682.9048	155.0427
683.059	160.1232
683.2131	159.8769
683.3672	162.5167
683.5213	162.2389
683.6754	166.1389
683.8295	153.571
683.9836	150.1382
684.1377	151.593
684.2918	155.2734
684.4459	154.8656
684.5999	157.5087
684.754	151.3079
684.908	155.7256
685.062	154.7599
685.2161	153.8081
685.3701	155.0416
685.5241	158.1791
685.6781	155.1506
685.8321	153.1625
685.9861	156.4009
686.14	157.1575
686.294	157.1164
686.4479	152.2301
686.6019	143.2924
686.7559	135.9072
686.9098	121.0661
687.0637	112.154
687.2176	112.4416
687.3715	115.6146
687.5254	125.1288
687.6793	125.5678
687.8332	128.1743
687.9871	135.8556
688.1409	145.9288
688.2947	144.3501
688.4486	142.5808
688.6024	137.8792
688.7563	139.7648
688.9101	135.1434
689.0639	130.3301
689.2177	129.3774
689.3715	130.3785
689.5253	133.6654
689.6791	134.4366
689.8328	131.47
689.9866	134.5042
690.1403	137.9904
690.2941	139.8205
690.4478	141.0619
690.6015	138.7276
690.7552	139.3804
690.9089	140.0513
691.0626	136.1979
691.2164	136.8183
691.37	139.8311
691.5237	129.8194
691.6774	132.976
691.831	140.6331
691.9847	139.5922
692.1383	139.8186
692.2919	142.6818
692.4456	141.1536
692.5992	136.9356
692.7527	137.0412
692.9064	134.3536
693.0599	128.3695
693.2136	136.6212
693.3671	140.3412
693.5207	140.35
693.6742	139.1609
693.8278	138.6873
693.9813	136.427
694.1348	133.275
694.2883	134.5249
694.4418	135.4382
694.5953	142.7948
694.7488	143.6667
694.9023	136.0162
695.0558	139.8065
695.2093	138.092
695.3627	139.3544
695.5162	139.8411
695.6696	142.3281
695.8231	138.0667
695.9764	139.4433
696.1299	138.5363
696.2833	139.6167
696.4367	141.3034
696.5901	142.9796
696.7435	144.1385
696.8968	145.5325
697.0502	142.2044
697.2036	134.9171
697.3569	137.6599
697.5102	141.4882
697.6635	139.4286
697.8168	133.0078
697.9702	135.2096
698.1235	134.6562
698.2768	141.399
698.4301	138.4158
698.5833	138.7142
698.7366	136.1181
698.8898	135.933
699.0431	134.6567
699.1964	139.1382
699.3495	137.6972
699.5028	131.8864
699.656	135.6492
699.8092	136.1162
699.9624	136.6703
700.1156	139.8843
700.2688	136.6198
700.4219	131.3746
700.5751	128.6175
700.7283	125.1911
700.8814	136.4178
701.0345	136.5474
701.1877	133.4576
701.3408	132.1072
701.4939	137.4416
701.647	132.9046
701.8001	130.13
701.9532	129.5624
702.1063	135.5702
702.2593	139.365
702.4124	130.2031
702.5654	130.4966
702.7184	136.5856
702.8715	138.1969
703.0245	134.7725
703.1776	132.4528
703.3305	142.2045
703.4835	136.9096
703.6365	135.4916
703.7895	139.2236
703.9424	131.312
704.0954	134.0075
704.2484	142.6686
704.4013	138.3835
704.5543	136.323
704.7072	140.1555
704.8601	138.9299
705.013	141.0546
705.1659	134.8074
705.3188	133.6977
705.4717	137.4262
705.6246	135.5559
705.7774	133.9431
705.9303	138.4338
706.0831	132.5092
706.236	134.3134
706.3888	140.1866
706.5416	141.657
706.6944	136.1694
706.8472	138.8191
707	141.5022
707.1528	137.6372
707.3056	138.0602
707.4583	139.6512
707.6111	143.3225
707.7639	141.6688
707.9166	137.6771
708.0693	137.4488
708.222	134.4367
708.3748	138.626
708.5275	137.3235
708.6802	136.2942
708.8328	141.0818
708.9855	134.3431
709.1382	130.9617
709.2909	133.5938
709.4435	139.0825
709.5962	135.4986
709.7488	140.8617
709.9014	138.1026
710.054	137.7293
710.2067	139.8379
710.3593	138.1738
710.5118	132.4757
710.6644	139.4186
710.817	139.5464
710.9695	134.4937
711.1221	135.7078
711.2747	131.1168
711.4272	136.3057
711.5797	134.4832
711.7322	137.3804
711.8848	137.3011
712.0373	137.8956
712.1898	133.9023
712.3422	128.5074
712.4948	130.9983
712.6472	140.6819
712.7996	137.0919
712.9521	131.3597
713.1046	129.9717
713.257	126.8122
713.4094	130.8253
713.5618	131.9781
713.7142	127.7147
713.8666	130.7117
714.019	127.3321
714.1714	134.5193
714.3237	136.5297
714.4761	132.4607
714.6285	126.0501
714.7808	128.1829
714.9331	121.9822
715.0854	129.748
715.2378	125.8468
715.3901	129.2422
715.5424	141.2029
715.6947	134.5051
715.8469	133.0182
715.9992	126.256
716.1515	123.4345
716.3037	126.3895
716.456	120.4137
716.6082	122.0242
716.7604	118.8744
716.9127	116.4672
717.0649	112.4825
717.2171	111.8612
717.3693	106.6555
717.5214	109.5525
717.6736	108.8613
717.8258	107.17
717.978	107.3811
718.1301	107.5704
718.2822	110.8842
718.4344	107.1714
718.5865	100.5914
718.7386	99.478
718.8907	107.2853
719.0428	110.1935
719.1949	109.5001
719.3469	100.675
719.499	103.8524
719.6511	108.2421
719.8031	109.2303
719.9551	107.1897
720.1072	104.5746
720.2592	100.1947
720.4112	104.3325
720.5632	104.5734
720.7152	99.27373
720.8672	104.8281
721.0192	112.955
721.1711	118.4378
721.3231	119.852
721.475	124.5512
721.627	118.0472
721.7789	119.0438
721.9308	119.8131
722.0828	121.536
722.2347	118.9545
722.3866	121.2298
722.5385	115.2286
722.6903	117.4696
722.8422	117.0422
722.9941	116.6109
723.1459	121.2482
723.2977	109.7671
723.4496	100.9963
723.6014	99.01916
723.7532	109.7094
723.905	111.8446
724.0568	104.2654
724.2086	104.2528
724.3604	107.833
724.5121	105.9299
724.6639	101.911
724.8157	106.7451
724.9674	115.1997
725.1191	109.3691
725.2709	103.1031
725.4226	109.4844
725.5743	107.7085
725.726	113.8806
725.8777	110.9194
726.0294	105.8384
726.181	105.9492
726.3327	111.2857
726.4844	105.2797
726.636	106.991
726.7877	113.3492
726.9393	118.1428
727.0909	112.6248
727.2425	105.8021
727.3941	106.1266
727.5457	100.5789
727.6973	100.5213
727.8488	98.60854
728.0004	101.1066
728.1519	109.878
728.3035	119.4607
728.455	114.1101
728.6066	115.5026
728.7581	115.291
728.9095	106.377
729.0611	103.3899
729.2126	100.5832
729.364	101.3545
729.5155	105.6718
729.667	106.8512
729.8184	110.52
729.9698	110.7778
730.1213	108.2943
730.2727	106.0346
730.4241	106.548
730.5756	105.5294
730.7269	108.3205
730.8784	113.2962
731.0297	110.4529
731.1811	112.2667
731.3325	113.1299
731.4838	109.8416
731.6351	111.7331
731.7865	113.7774
731.9378	108.6932
732.0891	112.8511
732.2404	111.2519
732.3917	112.6108
732.543	113.5884
732.6943	117.5764
732.8456	116.8349
732.9968	117.974
733.1481	118.003
733.2993	118.2679
733.4506	112.8089
733.6018	114.1108
733.753	118.1901
733.9042	119.4145
734.0554	115.1876
734.2066	117.0094
734.3578	112.2716
734.509	112.9237
734.6602	115.631
734.8113	112.7661
734.9624	116.8325
735.1136	111.6361
735.2647	110.3904
735.4158	113.3425
735.5669	113.9452
735.718	113.4203
735.8691	111.7574
736.0201	110.7132
736.1713	117.8837
736.3223	119.1091
736.4733	114.0951
736.6244	116.0976
736.7755	109.5396
736.9265	111.8826
737.0775	113.6142
737.2285	113.9675
737.3795	117.9237
737.5305	111.2137
737.6815	117.3995
737.8324	116.0213
737.9834	113.221
738.1343	111.8406
738.2853	116.7083
738.4362	117.0405
738.5871	105.8228
738.738	106.7732
738.8889	108.7211
739.0399	111.2708
739.1907	110.076
739.3416	110.1902
739.4925	113.1671
739.6433	115.1543
739.7942	113.3431
739.945	106.293
740.0958	111.8168
740.2467	117.8891
740.3975	111.9237
740.5483	114.5846
740.6991	111.9699
740.8499	112.8877
741.0007	110.9622
741.1514	108.3355
741.3022	111.2308
741.4529	107.3168
741.6036	103.1634
741.7544	109.0004
741.9051	105.6159
742.0558	112.2514
742.2065	112.7611
742.3572	110.9658
742.5079	107.3889
742.6586	111.2318
742.8093	113.1175
742.9599	109.7886
743.1105	112.1409
743.2612	108.7165
743.4118	112.8926
743.5624	115.5706
743.7131	114.8222
743.8636	108.2902
744.0142	110.0217
744.1648	108.6184
744.3154	110.0749
744.4659	111.0721
744.6165	102.6771
744.767	108.4055
744.9176	109.8963
745.0681	111.0479
745.2186	115.0328
745.3691	114.4255
745.5197	109.5511
745.6702	106.5983
745.8206	107.2818
745.9711	105.8572
746.1215	107.2384
746.272	109.5696
746.4224	111.4444
746.5729	103.813
746.7233	105.9651
746.8737	109.4473
747.0241	101.1881
747.1745	101.0506
747.3249	105.105
747.4753	109.1795
747.6257	113.7908
747.776	109.7842
747.9264	103.3415
748.0767	100.0751
748.2271	106.2479
748.3774	103.4538
748.5276	105.7479
748.678	109.5969
748.8282	104.0326
748.9786	105.6829
749.1288	106.0924
749.2791	100.6149
749.4294	104.4777
749.5796	101.9282
749.7299	99.66711
749.8801	103.9
750.0303	107.1608
750.1805	104.0237
750.3307	107.4304
750.4809	103.2945
750.6311	98.57781
750.7813	94.81554
750.9314	98.797
751.0816	103.6048
751.2318	104.5224
751.3818	104.0496
751.532	105.0932
751.6821	98.47694
751.8322	97.56946
751.9823	100.0894
752.1324	100.0605
752.2825	101.3996
752.4326	98.86659
752.5826	100.6037
752.7327	100.9118
752.8827	103.3985
753.0327	99.00898
753.1827	97.74148
753.3328	98.23473
753.4828	102.187
753.6328	100.2291
753.7828	98.69628
753.9327	102.0699
754.0827	106.9689
754.2327	103.7619
754.3826	100.9049
754.5325	96.04726
754.6825	98.31901
754.8324	96.18973
754.9823	94.45812
755.1322	93.91116
755.2821	97.24709
755.432	97.69159
755.5818	94.48086
755.7318	92.64361
755.8816	95.81692
756.0314	93.31405
756.1813	88.52672
756.3311	94.80427
756.4809	99.01355
756.6307	92.29073
756.7805	92.42188
756.9303	90.6415
757.0801	91.6725
757.2299	92.68038
757.3796	93.68441
757.5294	94.58913
757.6791	93.67061
757.8289	95.47962
757.9786	88.68722
758.1283	91.7878
758.278	88.75368
758.4277	89.35487
758.5773	84.94119
758.7271	92.60425
758.8767	90.5388
759.0264	87.01297
759.176	86.82564
759.3256	82.61881
759.4753	69.28343
759.6249	56.1174
759.7745	44.73838
759.9241	42.92778
760.0737	38.50653
760.2233	35.69767
760.3729	30.10762
760.5224	30.40688
760.6719	32.82267
760.8215	35.21893
760.971	32.63128
761.1205	37.42001
761.2701	42.11465
761.4196	42.72519
761.5691	53.2275
761.7186	60.28806
761.868	63.42025
762.0175	66.18201
762.167	60.35254
762.3164	57.55723
762.4659	52.63009
762.6153	44.00832
762.7647	45.58575
762.9141	50.6623
763.0635	46.11213
763.2129	51.00306
763.3623	47.14728
763.5117	49.14913
763.661	45.7216
763.8104	51.85394
763.9597	51.79468
764.1091	49.52715
764.2584	51.0896
764.4077	48.92573
764.557	56.79429
764.7063	57.71952
764.8556	59.82305
765.0049	65.92079
765.1541	61.12881
765.3034	64.0556
765.4526	69.37407
765.6019	67.2894
765.7511	64.51307
765.9003	64.23766
766.0496	64.16573
766.1987	62.00361
766.348	67.97616
766.4971	68.73309
766.6463	68.59411
766.7955	70.30704
766.9446	72.60406
767.0938	70.65415
767.2429	74.4604
767.392	73.57729
767.5411	75.29274
767.6902	76.09571
767.8394	72.71807
767.9884	75.58399
768.1375	77.55886
768.2866	74.26615
768.4356	76.51527
768.5847	75.95197
768.7337	72.12473
768.8828	71.05194
769.0317	71.93864
769.1808	75.72743
769.3298	76.14108
769.4788	74.37303
769.6277	76.16836
769.7767	76.46178
769.9257	76.40183
770.0746	80.19172
770.2236	74.5443
770.3725	77.5331
770.5214	78.34965
770.6703	75.82613
770.8193	72.214
770.9681	70.7068
771.1171	79.31924
771.2659	75.05458
771.4148	79.15089
771.5637	74.58183
771.7125	71.47353
771.8613	78.63329
772.0101	76.84345
772.159	69.63037
772.3078	77.83514
772.4566	80.77471
772.6054	76.8432
772.7542	75.08784
772.903	74.84222
773.0517	67.74104
773.2004	75.81036
773.3492	78.33129
773.4979	75.43896
773.6467	72.61732
773.7953	73.57331
773.944	66.78311
774.0928	71.55634
774.2415	74.9824
774.3901	69.40302
774.5388	72.06744
774.6874	77.14521
774.8361	74.09672
774.9847	71.74283
775.1334	64.61578
775.282	68.24776
775.4305	72.87968
775.5792	72.48642
775.7277	76.47311
775.8763	65.82858
776.0249	62.33783
776.1735	70.6957
776.322	72.01119
776.4705	69.18176
776.6191	73.7083
776.7676	72.1504
776.9161	70.85234
777.0646	71.63898
777.2131	70.51313
777.3616	74.46758
777.5101	71.14407
777.6585	70.24308
777.8069	69.88754
777.9554	64.55386
778.1038	67.44503
778.2523	69.75558
778.4007	63.49377
778.5491	65.98878
778.6974	71.86432
778.8459	70.36385
778.9942	69.90337
779.1426	69.02403
779.291	70.23003
779.4393	69.09785
779.5876	70.26463
779.736	69.10444
779.8843	67.28683
780.0326	65.34285
780.1809	70.74821
780.3292	66.7648
780.4775	64.7366
780.6257	67.72696
780.774	68.20786
780.9222	68.83006
781.0704	65.7744
781.2187	70.22285
781.3669	69.6513
781.5151	67.09093
781.6633	64.80878
781.8115	68.12067
781.9597	65.1048
782.1078	64.39341
782.256	59.91575
782.4042	68.74798
782.5523	71.84007
782.7004	69.19425
782.8486	66.61089
782.9967	67.99752
783.1448	64.07319
783.2929	65.20087
783.441	61.07365
783.5891	60.82366
783.7371	64.68228
783.8851	62.59061
784.0332	62.03036
784.1812	70.16351
784.3293	65.56371
784.4773	64.69859
784.6253	65.61312
784.7733	60.78105
784.9213	62.70902
785.0692	64.20221
785.2172	62.03436
785.3652	64.6174
785.5131	62.22787
785.6611	65.65791
785.809	67.67916
785.9569	65.34943
786.1048	62.55306
786.2527	62.77053
786.4006	63.05373
786.5485	60.96155
786.6964	60.63633
786.8442	64.05727
786.9921	65.69871
787.1399	65.68213
787.2877	61.68752
787.4355	62.0066
787.5833	57.67408
787.7311	64.03523
787.8789	59.2608
788.0267	57.14776
788.1745	59.55749
788.3223	62.47938
788.47	68.62894
788.6177	61.65321
788.7654	61.23048
788.9132	64.27612
789.0609	61.52481
789.2086	60.50426
789.3563	64.80682
789.504	59.13572
789.6517	60.5024
789.7993	64.24515
789.947	57.33799
790.0946	59.85286
790.2422	63.14555
790.3898	58.43066
790.5375	63.13919
790.6851	66.33499
790.8326	64.15727
790.9802	55.74105
791.1278	61.25984
791.2754	58.65735
791.423	58.56836
791.5705	59.44903
791.718	56.85166
791.8655	54.11097
792.0131	57.22609
792.1606	58.45904
792.308	59.54309
792.4556	57.50076
792.603	58.98163
792.7505	62.13461
792.8979	58.44953
793.0454	56.88014
793.1928	60.16154
793.3403	57.46992
793.4877	57.27642
793.6351	58.54342
793.7825	60.72061
793.9299	56.99387
794.0772	60.0271
794.2246	59.43152
794.3719	55.24985
794.5193	58.93918
794.6666	56.60699
794.814	58.3035
794.9613	58.29315
795.1086	55.8321
795.2559	53.96046
795.4032	58.92863
795.5505	51.63015
795.6978	53.26587
795.845	54.08635
795.9922	48.31705
796.1395	57.54472
796.2867	51.66085
796.4339	53.8418
796.5811	54.71441
796.7283	51.89296
796.8755	53.65012
797.0227	57.35578
797.1699	54.44331
797.317	51.96892
797.4642	51.88773
797.6113	54.35388
797.7584	54.43612
797.9056	57.01333
798.0527	52.88958
798.1998	55.12161
798.3469	54.69643
798.494	55.2397
798.641	51.43932
798.7881	56.30198
798.9351	52.28599
799.0822	55.13295
799.2292	52.28694
799.3762	56.01315
799.5232	55.32669
799.6702	54.40297
799.8172	54.82118
799.9642	50.67241
800.1111	53.53075
800.2581	54.31392
800.4051	51.9949
800.552	46.23214
800.6989	52.09265
800.8458	52.56293
800.9927	53.56696
801.1396	52.05959
801.2866	52.50676
801.4334	44.61673
801.5803	46.4182
801.7272	52.18863
801.874	57.26211
802.0209	51.94854
802.1677	53.82838
802.3145	47.89893
802.4613	48.52837
802.6081	50.87131
802.7549	51.09134
802.9017	50.63799
803.0485	52.20121
803.1952	49.97964
803.342	48.15717
803.4887	49.89024
803.6354	47.27747
803.7822	52.7527
803.9289	49.54504
804.0756	51.56141
804.2223	50.22673
804.369	47.89333
804.5156	49.78968
804.6623	45.21955
804.8089	44.76157
804.9556	46.95789
805.1022	47.7111
805.2488	51.49715
805.3954	52.53424
805.542	44.09542
805.6886	47.25263
805.8352	52.07507
805.9818	52.61161
806.1283	50.87103
806.2749	50.79195
806.4214	54.90794
806.5679	50.34534
806.7145	49.23109
806.861	48.17569
807.0074	47.25542
807.154	46.19593
807.3004	47.19853
807.4469	45.49662
807.5934	49.46663
807.7398	44.67988
807.8862	43.1316
808.0327	44.7566
808.1791	46.09814
808.3255	48.74594
808.4719	48.80183
808.6183	41.88546
808.7647	48.99632
808.9111	47.55929
809.0574	45.21152
809.2037	46.7007
809.3501	47.15633
809.4965	49.12866
809.6428	42.75243
809.7891	41.6763
809.9354	43.55758
810.0817	49.75409
810.2279	43.77798
810.3742	39.38242
810.5204	40.56838
810.6667	43.48204
810.8129	44.02641
810.9592	44.00112
811.1054	42.49009
811.2516	40.2935
811.3978	42.37413
811.5439	45.86187
811.6901	46.24063
811.8363	42.86082
811.9825	43.72496
812.1286	48.83932
812.2748	43.28103
812.4209	42.0607
812.567	40.00417
812.7131	42.49307
812.8592	43.37936
813.0053	40.73014
813.1514	36.98729
813.2974	38.632
813.4435	39.97955
813.5895	39.32544
813.7356	41.88463
813.8816	43.15614
814.0276	37.20601
814.1736	36.8262
814.3196	30.42416
814.4656	32.34485
814.6116	38.4914
814.7576	33.20049
814.9035	36.18114
815.0494	41.15599
815.1954	38.50025
815.3413	35.12679
815.4872	31.60038
815.6331	33.71533
815.779	35.79827
815.9249	34.80949
816.0707	36.2401
816.2166	36.74632
816.3625	31.19212
816.5083	30.865
816.6542	38.87433
816.8	39.36829
816.9458	36.94213
817.0916	33.59743
817.2374	38.48181
817.3832	33.67515
817.5289	35.35329
817.6747	34.63088
817.8204	36.36751
817.9662	35.64368
818.1119	30.85553
818.2576	33.87681
818.4034	37.82763
818.5491	33.50682
818.6948	34.5299
818.8405	31.43899
818.9861	37.89136
819.1318	32.11338
819.2774	34.44666
819.423	35.47872
819.5687	32.16834
819.7143	33.68136
819.8599	32.24484
820.0055	31.53621
820.1511	37.99521
820.2967	38.03973
820.4422	36.87922
820.5878	36.8018
820.7333	34.42148
820.8788	36.42828
821.0244	36.90441
821.1699	34.03811
821.3154	39.95125
821.4609	35.07468
821.6064	38.46545
821.7519	35.8387
821.8973	34.57031
822.0428	32.70275
822.1882	33.33203
822.3337	31.8439
822.4791	34.44502
822.6245	32.91463
822.7699	29.20496
822.9153	29.36193
823.0607	28.1231
823.2061	32.69829
823.3514	26.27029
823.4968	30.34952
823.6422	35.70256
823.7875	30.4647
823.9328	35.46596
824.0781	38.2374
824.2234	35.88406
824.3687	36.36963
824.514	37.62099
824.6592	34.01942
824.8045	38.1034
824.9498	40.3857
825.095	32.06505
825.2402	32.47425
825.3854	32.51493
825.5306	33.01487
825.6758	31.86103
825.821	29.71867
825.9662	34.10196
826.1114	35.96448
826.2565	35.0737
826.4017	36.83025
826.5468	33.8292
826.692	36.60986
826.837	30.5649
826.9822	31.28043
827.1273	35.76502
827.2723	35.39934
827.4174	32.15725
827.5625	32.02468
827.7075	29.10818
827.8526	34.34369
827.9976	33.08479
828.1426	27.36231
828.2877	31.25148
828.4327	32.8227
828.5776	32.66467
828.7227	29.54253
828.8676	31.70382
829.0126	32.15519
829.1575	25.66848
829.3024	33.27039
829.4474	31.61063
829.5923	29.42353
829.7372	36.29565
829.8821	31.13742
830.027	29.10623
830.1719	32.83805
830.3168	33.31293
830.4616	30.56871
830.6064	29.94032
830.7513	30.69723
830.8961	34.03332
831.041	37.38917
831.1857	33.04715
831.3306	35.20358
831.4753	29.13232
831.6201	24.40346
831.7649	29.71554
831.9096	31.35713
832.0544	26.01735
832.1991	30.26222
832.3438	33.00372
832.4885	33.54716
832.6332	28.02342
832.778	29.92356
832.9226	34.5672
833.0673	28.62926
833.2119	30.39668
833.3566	33.24144
833.5012	32.73598
833.6459	28.20152
833.7905	29.39309
833.9351	29.39383
834.0797	27.26199
834.2243	28.35177
834.3688	29.96135
834.5134	33.90383
834.658	34.66832
834.8026	32.16042
834.9471	34.23975
835.0916	31.80669
835.2361	28.63397
835.3806	32.89851
835.5251	32.94113
835.6696	32.0153
835.8141	37.55394
835.9586	33.65318
836.103	34.40899
836.2474	32.65628
836.3918	32.06193
836.5363	32.63999
836.6807	32.97958
836.8251	34.57191
836.9695	34.24574
837.1138	35.9628
837.2582	31.41684
837.4026	30.07701
837.5469	33.14037
837.6913	31.96561
837.8356	31.53341
837.9799	30.27465
838.1242	34.89138
838.2686	34.544
838.4128	35.60337
838.5571	30.61935
838.7014	31.44442
838.8456	33.29073
838.9899	30.99671
839.1341	32.16137
839.2783	33.20185
839.4225	36.63365
839.5667	30.26122
839.7109	30.71038
839.8551	31.58271
839.9993	27.18007
840.1434	26.13662
840.2876	27.61421
840.4317	26.27787
840.5759	30.25044
840.72	27.94494
840.8641	27.19434
841.0082	27.87654
841.1523	30.30436
841.2963	27.67968
841.4404	28.99061
841.5845	30.43219
841.7285	29.06008
841.8726	31.10659
842.0165	31.95001
842.1606	30.54908
842.3046	32.33067
842.4485	30.90691
842.5925	32.35962
842.7365	31.80101
842.8805	27.37775
843.0244	32.9512
843.1684	32.04304
843.3123	27.23516
843.4562	27.02085
843.6002	28.73525
843.744	30.52069
843.8879	29.84933
844.0318	27.68302
844.1757	29.15222
844.3195	28.03944
844.4634	27.10637
844.6072	26.80724
844.751	24.43781
844.8948	28.94987
845.0386	26.67605
845.1824	32.11887
845.3262	29.77188
845.47	24.74608
845.6138	25.51583
845.7575	29.87337
845.9012	32.82508
846.045	32.11075
846.1887	26.37384
846.3324	26.13192
846.4761	27.58563
846.6198	29.83218
846.7635	28.73512
846.9071	28.49073
847.0508	26.56801
847.1944	27.78197
847.3381	30.2041
847.4817	27.90094
847.6253	34.42048
847.7689	28.68268
847.9125	22.0401
848.0561	26.53667
848.1996	32.19194
848.3432	29.34927
848.4868	27.70364
848.6303	29.17377
848.7738	30.19505
848.9174	33.4401
849.0609	27.56062
849.2043	28.70592
849.3478	30.3651
849.4913	28.80619
849.6348	28.83008
849.7782	27.43679
849.9217	25.06263
850.0651	32.01501
850.2086	24.509
850.3519	28.97318
850.4954	24.51115
850.6387	25.6594
850.7821	28.17285
850.9255	30.06887
851.0688	33.55627
851.2122	30.24972
851.3555	24.41794
851.4988	30.43825
851.6422	29.96593
851.7855	26.68247
851.9288	31.20994
852.0721	25.13567
852.2153	27.07854
852.3586	25.07411
852.5018	27.62337
852.6451	25.59649
852.7883	26.82783
852.9315	28.82398
853.0748	23.89966
853.218	29.72477
853.3611	28.94726
853.5043	29.32174
853.6475	27.8945
853.7906	21.57023
853.9338	27.21114
854.0769	21.07155
854.22	19.75466
854.3632	23.63792
854.5063	23.41201
854.6494	22.50807
854.7924	23.94486
854.9355	25.89982
855.0786	29.10701
855.2216	31.58583
855.3647	30.56686
855.5077	27.03731
855.6507	25.47105
855.7937	26.87093
855.9367	27.87385
856.0797	31.42517
856.2227	28.57153
856.3657	26.49313
856.5086	25.83429
856.6516	25.915
856.7945	30.27957
856.9374	26.46218
857.0803	22.16806
857.2232	20.63465
857.3661	21.31847
857.509	27.09269
857.6519	24.86967
857.7947	23.16339
857.9376	26.43933
858.0804	25.88014
858.2232	28.19276
858.366	27.55614
858.5089	25.95486
858.6516	25.43847
858.7944	23.88348
858.9372	28.01927
859.08	26.10148
859.2227	25.85615
859.3654	28.21506
859.5082	25.9824
859.6509	27.54144
859.7936	26.79998
859.9363	24.648
860.079	23.5477
860.2217	23.40296
860.3643	26.1725
860.507	22.58578
860.6496	24.67177
860.7922	24.32279
860.9349	22.93292
861.0775	26.30437
861.2201	25.35205
861.3627	27.81702
861.5052	27.72264
861.6478	24.75356
861.7904	28.838
861.9329	26.3036
862.0755	32.79383
862.218	24.16805
862.3605	30.60738
862.503	24.03963
862.6455	21.6407
862.788	19.40524
862.9305	21.76959
863.0729	22.38405
863.2154	28.45801
863.3578	23.11041
863.5002	27.33007
863.6426	25.11377
863.7851	21.73316
863.9275	23.52836
864.0698	25.20573
864.2122	24.32665
864.3546	23.62795
864.4969	21.29472
864.6393	29.54774
864.7816	27.23396
864.924	25.38283
865.0662	24.60945
865.2086	23.17498
865.3508	25.27721
865.4931	22.58631
865.6354	20.90978
865.7776	22.12402
865.9199	20.2919
866.0621	25.20297
866.2043	25.89854
866.3466	24.11383
866.4888	20.16575
866.6309	18.76124
866.7731	17.91086
866.9153	22.94598
867.0574	19.32385
867.1996	21.64942
867.3417	25.97495
867.4839	24.85741
867.626	25.93917
867.7681	26.55911
867.9102	24.08766
868.0522	26.05368
868.1943	27.48215
868.3364	23.1574
868.4785	21.43354
868.6205	19.86169
868.7625	24.25467
868.9045	22.64054
869.0465	22.49578
869.1885	24.68455
869.3305	21.48904
869.4725	20.53485
869.6144	21.18257
869.7564	20.82114
869.8983	25.16759
870.0403	17.80035
870.1822	17.46811
870.3241	22.08699
870.466	21.31862
870.6079	21.88773
870.7498	27.69765
870.8916	28.19383
871.0335	22.97831
871.1754	17.72461
871.3171	18.84751
871.459	22.52804
871.6008	26.27036
871.7426	26.33608
871.8844	25.87998
872.0262	17.79055
872.1679	19.04622
872.3097	23.98932
872.4514	24.09151
872.5931	23.06846
872.7349	22.20586
872.8766	18.47048
873.0183	20.84798
873.16	21.27081
873.3017	24.70661
873.4434	24.42596
873.585	20.42785
873.7266	21.86502
873.8683	21.90141
874.0099	21.87305
874.1516	23.51993
874.2932	22.06128
874.4348	25.48229
874.5763	21.42256
874.7179	16.98208
874.8594	19.47242
875.001	26.82643
875.1425	23.98982
875.2841	22.98001
875.4256	22.94591
875.5671	25.15656
875.7086	22.53361
875.85	20.15242
875.9915	22.80235
876.133	25.30237
876.2744	23.16559
876.4159	20.78696
876.5573	22.57367
876.6987	21.84078
876.8401	22.63915
876.9815	20.64404
877.1229	19.94488
877.2643	17.37189
877.4056	19.00898
877.547	19.28317
877.6884	15.94348
877.8297	18.27886
877.971	19.41403
878.1123	22.69487
878.2536	19.05249
878.3949	21.60683
878.5362	20.81309
878.6774	21.49107
878.8187	19.766
878.9599	18.75603
879.1011	24.74778
879.2424	19.03534
879.3836	15.42153
879.5248	20.47801
879.666	17.67888
879.8071	20.86191
879.9483	23.00331
880.0895	22.18815
880.2306	17.06829
880.3718	21.28436
880.5129	23.6841
880.654	16.61603
880.7951	16.54444
880.9362	17.47422
881.0773	19.51159
881.2183	19.36336
881.3594	13.92879
881.5004	16.19213
881.6414	16.36177
881.7825	21.23691
881.9235	20.78592
882.0645	16.68757
882.2054	17.94812
882.3464	18.90633
882.4874	20.25237
882.6284	20.35483
882.7693	17.75972
882.9103	14.81882
883.0512	19.78787
883.1921	21.62657
883.333	16.14132
883.4739	21.76471
883.6147	25.07255
883.7556	22.3621
883.8965	18.84649
884.0374	20.35102
884.1782	20.079
884.319	22.74694
884.4598	24.7886
884.6006	14.58376
884.7414	18.50244
884.8822	17.7767
885.0229	18.78562
885.1637	21.66532
885.3044	16.51713
885.4452	17.19313
885.5859	16.43816
885.7266	19.05769
885.8673	19.40752
886.008	17.33579
886.1487	18.338
886.2894	16.15658
886.43	17.26977
886.5707	17.10892
886.7113	16.21523
886.8519	16.13442
886.9926	19.52507
887.1331	21.28048
887.2737	21.44088
887.4143	23.5998
887.5549	15.75296
887.6954	17.38959
887.836	21.83991
887.9765	16.27335
888.1171	18.70123
888.2576	18.39174
888.3981	22.06672
888.5386	16.40675
888.679	21.05928
888.8195	20.32987
888.96	15.36413
889.1004	20.11585
889.2408	18.75514
889.3813	17.67999
889.5217	23.72895
889.6621	19.93372
889.8025	21.08252
889.9429	19.69302
890.0833	14.06572
890.2236	19.74685
890.364	17.05964
890.5043	15.9933
890.6446	16.00887
890.7849	17.31824
890.9252	20.63782
891.0655	17.43477
891.2058	19.46601
891.3461	20.6256
891.4863	16.81735
891.6266	21.6784
891.7668	15.24847
891.907	17.72303
892.0472	16.40366
892.1874	20.17304
892.3276	17.19274
892.4678	16.97511
892.608	18.69982
892.7481	17.75124
892.8883	18.81799
893.0284	16.77206
893.1685	19.26812
893.3087	14.47007
893.4487	15.27332
893.5889	18.07771
893.7289	18.50138
893.869	15.5304
894.009	13.19613
894.1491	16.70025
894.2891	10.48902
894.4291	12.32873
894.5692	16.36832
894.7092	18.64052
894.8491	18.72248
894.9891	13.88655
895.1291	18.17554
895.269	16.52413
895.409	17.41636
895.549	14.58474
895.6888	14.26239
895.8288	16.42501
895.9687	17.58615
896.1086	15.06407
896.2484	13.81514
896.3883	11.795
896.5281	13.27708
896.668	11.42295
896.8079	8.734591
896.9476	17.01315
897.0875	20.08557
897.2272	16.12427
897.3671	17.9775
897.5068	15.19262
897.6466	16.13621
897.7864	18.00057
897.9261	17.3235
898.0658	14.64547
898.2056	15.88299
898.3453	14.19885
898.4849	14.07821
898.6246	17.25096
898.7643	9.496034
898.904	10.41344
899.0436	13.35948
899.1833	11.27927
899.3229	10.70879
899.4625	16.37322
899.6021	12.74499
899.7417	15.57808
899.8813	16.10067
900.0209	13.52035
900.1605	16.17635
900.3	17.02102
900.4395	16.83994
900.579	13.22261
900.7186	12.20299
900.8581	17.83321
900.9976	16.8195
901.1371	16.87798
901.2766	13.97392
901.416	11.24741
901.5555	17.06817
901.6949	13.0643
901.8344	16.33732
901.9738	11.64669
902.1132	14.52652
902.2526	13.93821
902.3919	11.08909
902.5313	13.36791
902.6707	20.36549
