SPECTRUM DATA FILE
SpectrumCount:	1
PixelCount:	3648
UserName:	ToughBook User
SampleName:	
LightSource:	
Comments:	
DeviceName:	Qwave
DeviceManufacturer:	Broadcom
DeviceSerialNo:	11311

Name:	last spectrum
Date:	2024-05-02T14:50:21.7059922+02:00
ExposureTime:	0.02
TemporalAvg:	1
IntensityUnit:	normalizedCounts
CCDLoadLevel:	0.05713313
Temperature:	32.58951
DiagramColor:	200
ProcessingSteps:	335

Wavelength [nm]	Intensity1
334.421	15.06801
334.5891	19.73167
334.7573	15.03274
334.9254	19.16557
335.0935	20.58978
335.2616	18.73348
335.4297	17.5431
335.5978	19.47173
335.7659	20.22172
335.934	19.15025
336.1021	17.82518
336.2701	18.82543
336.4382	17.9424
336.6063	22.68093
336.7744	16.25131
336.9424	18.74444
337.1105	23.6321
337.2785	19.55079
337.4466	16.36492
337.6146	21.23145
337.7827	22.96646
337.9507	16.80931
338.1187	18.79304
338.2867	23.68941
338.4548	19.92333
338.6228	18.67694
338.7908	20.28736
338.9588	21.94785
339.1268	23.96951
339.2948	19.8739
339.4628	23.33479
339.6308	19.67351
339.7988	20.54482
339.9667	14.05021
340.1347	20.54329
340.3027	21.47191
340.4707	20.35135
340.6386	19.90908
340.8066	21.78823
340.9745	16.4569
341.1425	20.94494
341.3104	17.52277
341.4784	17.25551
341.6463	18.27207
341.8142	17.54639
341.9821	18.33529
342.1501	22.92537
342.318	19.45851
342.4859	20.1413
342.6538	21.15359
342.8217	20.35165
342.9896	21.31665
343.1575	17.63948
343.3254	21.96537
343.4933	23.73696
343.6612	20.11434
343.829	21.61279
343.9969	21.06406
344.1648	14.92917
344.3326	15.06664
344.5005	22.50066
344.6683	21.05354
344.8362	20.128
345.004	16.72063
345.1719	22.75365
345.3397	19.35211
345.5075	20.45905
345.6754	21.4427
345.8432	22.63604
346.011	23.17751
346.1788	22.50136
346.3466	23.34304
346.5144	21.02248
346.6822	22.06425
346.85	22.83506
347.0178	24.19832
347.1856	17.13925
347.3534	21.33964
347.5211	19.45274
347.6889	24.28037
347.8567	19.37698
348.0244	21.5189
348.1922	22.19156
348.3599	25.81544
348.5277	21.42505
348.6954	17.6156
348.8632	18.18065
349.0309	18.24439
349.1986	20.57102
349.3663	21.77864
349.5341	19.87735
349.7018	22.76375
349.8695	21.001
350.0372	24.97724
350.2049	20.31832
350.3726	19.51477
350.5403	18.08202
350.7079	21.88992
350.8756	20.27415
351.0433	23.08502
351.211	22.54774
351.3786	21.71474
351.5463	21.79799
351.714	24.43693
351.8816	23.33285
352.0493	26.56307
352.2169	24.46381
352.3846	22.23979
352.5522	24.96992
352.7198	24.30001
352.8875	21.41419
353.0551	25.92893
353.2227	26.18251
353.3903	24.65045
353.5579	30.38645
353.7255	27.51476
353.8931	28.31297
354.0607	31.91941
354.2283	30.51502
354.3958	26.39699
354.5634	30.01333
354.731	26.4592
354.8986	24.23609
355.0661	23.06155
355.2337	25.51497
355.4012	28.96041
355.5688	24.09121
355.7363	26.80663
355.9039	25.46264
356.0714	31.12277
356.239	24.90214
356.4065	25.96074
356.574	25.31075
356.7415	19.51733
356.909	23.53152
357.0765	21.60354
357.244	21.97072
357.4115	25.83214
357.579	27.68995
357.7465	27.10016
357.914	21.69458
358.0815	22.19469
358.249	21.50772
358.4164	18.67192
358.5839	21.20153
358.7513	22.26525
358.9188	24.40815
359.0862	24.50457
359.2537	24.49146
359.4211	25.87129
359.5886	28.00544
359.756	30.03185
359.9234	27.82083
360.0909	27.74319
360.2583	26.93515
360.4257	27.63169
360.5931	22.44592
360.7605	24.11413
360.9279	18.75759
361.0953	23.2707
361.2627	28.82346
361.4301	27.55167
361.5974	25.82155
361.7648	27.32687
361.9322	23.63908
362.0995	28.37308
362.2669	29.41157
362.4343	27.23536
362.6016	31.86767
362.769	32.99626
362.9363	27.21854
363.1036	28.42787
363.271	25.13452
363.4383	28.86465
363.6056	26.66003
363.7729	28.43088
363.9402	31.33549
364.1075	27.95411
364.2748	27.01268
364.4421	27.96702
364.6094	27.40204
364.7767	27.19143
364.944	34.5575
365.1113	30.18639
365.2786	33.31362
365.4458	30.17629
365.6131	31.24651
365.7803	32.2403
365.9476	28.17746
366.1148	31.38355
366.2821	37.63673
366.4493	38.4667
366.6166	33.21664
366.7838	32.63229
366.951	32.93368
367.1182	28.49171
367.2855	29.54177
367.4527	30.33704
367.6199	33.25938
367.7871	30.17959
367.9543	26.92048
368.1215	25.30549
368.2886	22.02729
368.4558	28.04862
368.623	31.02271
368.7902	29.81136
368.9573	30.7182
369.1245	29.29468
369.2917	32.44463
369.4588	31.98526
369.6259	32.73617
369.7931	35.51217
369.9602	33.2851
370.1274	31.27522
370.2945	32.17616
370.4616	32.02028
370.6287	30.10815
370.7958	27.49495
370.963	25.57901
371.1301	34.2232
371.2971	39.65353
371.4643	34.69345
371.6313	36.01937
371.7984	32.39192
371.9655	31.61224
372.1326	27.79331
372.2997	33.76867
372.4667	31.96
372.6338	30.50348
372.8008	31.7086
372.9679	36.38181
373.1349	35.37999
373.3019	35.13626
373.469	27.39893
373.636	29.42417
373.803	36.67445
373.9701	34.65588
374.1371	34.50733
374.3041	34.74455
374.4711	31.6699
374.6381	33.41542
374.8051	32.02217
374.9721	32.79568
375.1391	35.76443
375.3061	42.59741
375.473	38.55414
375.64	35.16042
375.8069	36.08665
375.9739	35.72859
376.1409	34.3201
376.3078	36.02124
376.4748	36.47496
376.6417	39.41577
376.8087	36.80083
376.9756	33.76767
377.1425	38.87635
377.3094	38.97367
377.4763	42.3982
377.6432	41.6298
377.8102	39.19497
377.9771	40.46844
378.144	41.89531
378.3109	44.54118
378.4777	40.76657
378.6446	35.90134
378.8115	34.45197
378.9784	37.66449
379.1452	36.42199
379.3121	32.61993
379.4789	35.06276
379.6458	35.52634
379.8127	35.31319
379.9795	35.56393
380.1463	38.83663
380.3131	39.52303
380.48	42.71812
380.6468	42.46537
380.8136	39.18507
380.9804	35.31877
381.1472	40.93573
381.314	37.2716
381.4808	37.15685
381.6476	39.09571
381.8144	31.95653
381.9812	31.78925
382.148	33.4778
382.3147	33.92843
382.4815	39.3742
382.6483	36.29633
382.815	35.31561
382.9818	30.137
383.1485	30.901
383.3153	32.35649
383.482	35.60618
383.6487	31.34482
383.8155	33.28761
383.9822	35.03307
384.1489	38.33388
384.3156	38.42987
384.4823	43.62905
384.649	45.98264
384.8157	41.07296
384.9824	45.98523
385.1491	47.14649
385.3158	44.94227
385.4825	41.48888
385.6491	40.50628
385.8158	37.95583
385.9825	34.55153
386.1491	37.96586
386.3157	40.68361
386.4824	43.49064
386.649	42.72247
386.8157	43.29261
386.9823	39.94658
387.1489	37.47687
387.3156	43.21099
387.4821	44.6392
387.6488	41.26065
387.8154	43.69025
387.982	39.5522
388.1486	42.27636
388.3152	40.55404
388.4818	39.54872
388.6483	38.46021
388.8149	47.66963
388.9815	43.32065
389.148	43.85061
389.3146	43.6775
389.4811	44.55781
389.6477	45.38794
389.8142	50.96356
389.9808	47.30054
390.1473	46.19245
390.3138	44.88089
390.4804	43.74848
390.6469	43.23249
390.8134	50.10028
390.9799	51.11694
391.1464	46.86168
391.3129	49.8722
391.4794	48.95358
391.6459	49.9317
391.8124	48.61436
391.9789	47.24672
392.1453	43.37414
392.3118	41.23449
392.4782	44.46492
392.6447	41.52757
392.8112	40.10999
392.9776	33.91481
393.144	30.01715
393.3105	26.33651
393.4769	33.25536
393.6433	41.26561
393.8098	35.11255
393.9762	43.69064
394.1426	39.99404
394.309	45.52036
394.4754	48.56196
394.6418	51.50404
394.8082	51.26954
394.9746	47.69237
395.141	50.22655
395.3073	53.49879
395.4737	57.35652
395.64	55.25585
395.8064	50.32557
395.9728	46.16315
396.1391	44.20982
396.3055	45.32599
396.4718	43.05222
396.6381	38.35508
396.8045	36.61066
396.9708	39.6979
397.1371	41.46155
397.3034	47.12128
397.4697	48.24069
397.636	53.08933
397.8023	54.71717
397.9686	56.06272
398.1349	57.44306
398.3012	56.24081
398.4675	56.75233
398.6337	61.78127
398.8	64.92432
398.9662	68.92828
399.1325	64.50862
399.2988	56.20182
399.465	58.3385
399.6313	63.38723
399.7975	59.29405
399.9637	61.04128
400.1299	68.7733
400.2961	67.40298
400.4624	61.12782
400.6286	60.32499
400.7948	64.32205
400.961	68.06808
401.1272	66.35358
401.2934	65.29355
401.4595	69.76215
401.6257	64.88404
401.7919	64.65871
401.9581	70.01749
402.1242	64.23191
402.2904	67.61095
402.4565	66.85309
402.6227	68.69398
402.7888	68.81978
402.955	69.66959
403.1211	64.422
403.2872	62.16222
403.4533	65.23398
403.6194	67.35948
403.7856	65.04786
403.9517	64.93342
404.1177	61.63478
404.2838	62.41979
404.4499	62.99419
404.616	60.72747
404.7821	62.50061
404.9482	63.29003
405.1142	70.73443
405.2803	72.17455
405.4464	65.33637
405.6124	60.83624
405.7784	65.28604
405.9445	67.0991
406.1105	66.6601
406.2766	73.28506
406.4426	70.0997
406.6086	67.37985
406.7746	68.83736
406.9406	67.37897
407.1066	65.63892
407.2726	70.54257
407.4386	67.91444
407.6046	70.24179
407.7706	68.3811
407.9366	73.35641
408.1025	74.75816
408.2685	79.3083
408.4344	76.74066
408.6004	75.54496
408.7664	79.56446
408.9323	85.90038
409.0983	83.057
409.2642	80.66594
409.4301	77.2005
409.596	74.86792
409.762	73.0112
409.9279	70.95939
410.0938	72.43314
410.2597	70.41357
410.4256	69.92302
410.5915	75.1151
410.7574	78.21886
410.9232	76.76199
411.0891	78.4311
411.255	86.22598
411.4209	89.30093
411.5867	84.2058
411.7526	83.68205
411.9184	86.72107
412.0843	86.12067
412.2501	85.17439
412.4159	81.11761
412.5818	78.10932
412.7476	77.84952
412.9134	75.85606
413.0792	77.73986
413.245	78.34642
413.4108	79.47543
413.5766	81.82255
413.7424	82.81066
413.9082	84.94866
414.074	81.04873
414.2397	79.48282
414.4055	81.76205
414.5713	79.85375
414.737	82.66257
414.9028	86.95799
415.0685	83.06034
415.2343	85.5447
415.4	82.43694
415.5658	78.6442
415.7315	83.25539
415.8972	85.20423
416.0629	84.50397
416.2286	85.58952
416.3943	85.83341
416.56	85.1909
416.7257	87.84274
416.8914	83.97147
417.0571	81.29823
417.2228	73.8027
417.3884	79.92205
417.5541	84.15382
417.7198	80.70157
417.8854	82.99517
418.0511	83.10583
418.2167	82.51675
418.3824	83.76227
418.548	81.74778
418.7136	85.97569
418.8792	89.51442
419.0449	87.5902
419.2105	88.82515
419.3761	85.10647
419.5417	85.26376
419.7073	82.84903
419.8729	84.45738
420.0385	84.5329
420.204	83.55743
420.3696	90.53862
420.5352	92.08718
420.7007	94.33046
420.8663	96.13816
421.0319	90.50172
421.1974	91.51792
421.3629	87.74225
421.5285	95.18728
421.694	89.7114
421.8595	91.01234
422.0251	94.87945
422.1906	91.98243
422.3561	90.2453
422.5216	79.236
422.6871	80.41093
422.8526	85.90997
423.0181	90.31864
423.1835	96.36909
423.349	93.12971
423.5145	90.34011
423.68	92.89428
423.8454	91.54462
424.0109	94.90925
424.1763	95.81413
424.3418	94.28883
424.5072	91.75716
424.6726	95.13704
424.838	93.92367
425.0035	90.77838
425.1689	92.50463
425.3343	95.44413
425.4997	99.29681
425.6651	101.3217
425.8305	102.3714
425.9959	89.2097
426.1613	87.4771
426.3267	95.87564
426.492	94.57275
426.6574	102.5386
426.8228	100.1327
426.9881	90.78413
427.1534	89.40794
427.3188	87.92382
427.4841	94.32411
427.6495	96.26909
427.8148	98.98314
427.9801	97.6475
428.1454	98.60355
428.3107	92.45994
428.476	94.39732
428.6414	97.92529
428.8066	93.76294
428.9719	91.17774
429.1372	93.02852
429.3025	87.91689
429.4678	94.02776
429.633	93.32634
429.7983	85.05478
429.9636	80.75229
430.1288	81.20783
430.294	78.4026
430.4593	80.95261
430.6245	83.04067
430.7897	76.55511
430.955	72.94823
431.1202	74.26447
431.2854	87.00972
431.4506	91.47341
431.6158	100.5306
431.781	107.741
431.9462	112.9441
432.1114	110.2051
432.2766	98.9889
432.4417	94.19221
432.6069	96.14669
432.772	95.40675
432.9372	100.8563
433.1024	102.3923
433.2675	105.3924
433.4326	109.1604
433.5977	109.1926
433.7629	102.2421
433.928	90.27437
434.0931	94.0248
434.2582	97.37083
434.4233	99.19701
434.5884	107.5575
434.7535	110.5565
434.9186	112.6662
435.0837	110.1146
435.2488	102.1154
435.4138	103.9272
435.5789	110.9792
435.744	108.0562
435.909	113.0045
436.0741	113.9646
436.2391	109.4564
436.4042	115.1424
436.5692	115.8505
436.7342	116.6065
436.8992	112.157
437.0643	115.3299
437.2293	112.3894
437.3943	110.3927
437.5593	109.6924
437.7243	118.1671
437.8893	112.2476
438.0542	110.9004
438.2192	108.863
438.3842	98.53056
438.5491	100.5675
438.7141	105.955
438.8791	113.1701
439.044	106.7246
439.209	110.1992
439.3739	118.9066
439.5388	118.6457
439.7037	121.336
439.8687	120.6203
440.0336	117.2595
440.1985	113.9485
440.3634	112.1091
440.5283	106.843
440.6932	113.0475
440.8581	120.5471
441.0229	120.8102
441.1878	116.9279
441.3527	112.0747
441.5175	117.1237
441.6824	115.9584
441.8472	125.0671
442.0121	125.5202
442.1769	127.7791
442.3418	125.2174
442.5066	123.6518
442.6714	128.0027
442.8362	125.939
443.001	127.1615
443.1659	127.8346
443.3307	115.3609
443.4955	122.0233
443.6602	123.3967
443.825	126.2563
443.9898	132.904
444.1546	123.0361
444.3193	118.7988
444.4841	133.3298
444.6488	137.3477
444.8136	128.0069
444.9783	126.6303
445.1431	129.5508
445.3078	130.9017
445.4725	124.2207
445.6372	119.1606
445.802	115.1821
445.9667	117.8449
446.1314	125.2463
446.2961	119.2765
446.4608	124.2136
446.6255	131.1113
446.7901	128.8129
446.9548	128.0317
447.1195	132.7465
447.2841	128.6372
447.4488	134.6119
447.6134	135.804
447.7781	132.3716
447.9427	136.6456
448.1074	127.2755
448.272	127.1719
448.4366	130.6543
448.6012	135.9126
448.7658	135.4863
448.9305	135.2414
449.095	133.7578
449.2596	133.2035
449.4242	134.7405
449.5888	137.9084
449.7534	132.7964
449.9179	133.8088
450.0825	140.5593
450.2471	144.2046
450.4116	144.6475
450.5762	146.4308
450.7407	145.1995
450.9052	140.3361
451.0698	147.5934
451.2343	138.2699
451.3988	138.5777
451.5633	147.2916
451.7278	141.6252
451.8923	144.7226
452.0568	139.6889
452.2213	140.1463
452.3858	142.4366
452.5503	137.9626
452.7148	132.6426
452.8792	129.4557
453.0437	134.5519
453.2081	136.6135
453.3726	140.6506
453.537	140.1916
453.7015	141.2762
453.8659	148.821
454.0303	157.0699
454.1947	152.696
454.3592	145.7716
454.5236	146.7731
454.688	150.0142
454.8524	144.164
455.0168	143.5364
455.1811	147.5457
455.3455	147.0981
455.5099	148.5296
455.6743	147.358
455.8386	150.6048
456.003	147.7099
456.1673	144.294
456.3317	148.8244
456.496	148.8158
456.6603	148.7844
456.8246	152.4817
456.989	150.8971
457.1533	150.2823
457.3176	144.7558
457.4819	157.8647
457.6462	163.1185
457.8105	158.2664
457.9748	149.0568
458.1391	146.1057
458.3033	144.2282
458.4676	139.2315
458.6319	146.7554
458.7961	149.3799
458.9604	150.797
459.1246	149.7778
459.2888	153.8586
459.4531	155.149
459.6173	149.5446
459.7815	143.8992
459.9457	146.8726
460.11	152.2327
460.2741	149.4207
460.4384	150.706
460.6025	154.3984
460.7667	152.7305
460.9309	151.0866
461.0951	150.0946
461.2592	156.3296
461.4234	160.0328
461.5876	155.009
461.7517	153.0942
461.9159	158.9127
462.08	153.1507
462.2441	159.7895
462.4082	157.9758
462.5724	153.4725
462.7365	156.2315
462.9006	150.0657
463.0647	156.4361
463.2288	156.7806
463.3929	157.1178
463.557	153.6335
463.721	154.7521
463.8851	152.7282
464.0492	151.6314
464.2132	154.1302
464.3773	148.7157
464.5414	152.397
464.7054	152.0283
464.8694	145.5302
465.0334	157.6687
465.1975	159.9953
465.3615	163.2589
465.5255	157.5086
465.6895	153.8032
465.8535	151.6384
466.0175	154.0865
466.1815	157.4352
466.3455	153.7557
466.5095	150.0844
466.6734	150.1824
466.8374	148.8896
467.0014	153.7906
467.1653	157.4147
467.3293	153.5062
467.4932	156.0714
467.6571	156.7226
467.8211	158.6612
467.985	154.4923
468.1489	157.1968
468.3128	160.1615
468.4767	155.2483
468.6406	158.0809
468.8045	164.7528
468.9684	159.9578
469.1323	161.6261
469.2962	161.3947
469.46	167.3609
469.6239	164.3729
469.7878	155.1162
469.9516	154.5642
470.1154	158.6797
470.2793	155.3634
470.4431	158.8216
470.607	152.2007
470.7708	152.1978
470.9346	156.7111
471.0984	155.8186
471.2622	163.7145
471.426	160.929
471.5898	163.3185
471.7536	172.6399
471.9174	171.7008
472.0811	174.8261
472.2449	168.5412
472.4087	169.5294
472.5724	167.0295
472.7362	162.8372
472.8999	161.8734
473.0637	157.0509
473.2274	163.2749
473.3911	160.1936
473.5548	161.8283
473.7185	160.3756
473.8822	161.6017
474.0459	166.3296
474.2096	170.3234
474.3733	170.5115
474.537	166.9985
474.7007	172.3591
474.8643	176.3677
475.028	173.7928
475.1917	163.062
475.3553	161.9987
475.519	160.5516
475.6826	157.8497
475.8463	163.7636
476.0099	166.1532
476.1735	163.309
476.3371	158.4096
476.5007	161.3075
476.6643	160.8748
476.8279	163.436
476.9915	170.5034
477.1551	166.5655
477.3187	164.4239
477.4823	169.8628
477.6458	170.2501
477.8094	167.8154
477.9729	168.1629
478.1365	166.5731
478.3	167.2785
478.4636	167.8974
478.6271	167.1835
478.7906	167.3977
478.9541	170.4108
479.1176	170.9703
479.2812	176.5819
479.4447	177.5029
479.6082	177.1302
479.7716	167.9666
479.9351	172.7944
480.0986	174.0998
480.2621	172.5806
480.4255	162.13
480.589	168.2995
480.7524	165.4046
480.9159	166.4429
481.0793	168.6135
481.2428	167.0613
481.4062	162.573
481.5696	171.3445
481.733	169.7425
481.8964	177.8
482.0598	166.0606
482.2232	167.7643
482.3866	167.7208
482.55	171.3822
482.7134	165.9225
482.8768	168.8148
483.0401	173.3919
483.2035	165.6582
483.3668	168.6616
483.5302	169.0215
483.6935	169.3323
483.8568	170.5802
484.0202	166.8708
484.1835	163.5824
484.3468	159.6491
484.5101	167.2167
484.6734	173.9947
484.8367	171.3933
485	167.8887
485.1633	167.0951
485.3266	161.7532
485.4899	157.7875
485.6531	159.5049
485.8164	151.298
485.9796	138.9302
486.1429	137.8969
486.3061	142.5184
486.4694	146.8539
486.6326	156.3234
486.7958	157.7757
486.959	160.1906
487.1223	155.2754
487.2855	153.5108
487.4486	160.1939
487.6118	166.0855
487.775	170.6555
487.9382	181.0026
488.1014	172.4461
488.2646	176.2506
488.4277	171.0883
488.5909	165.2748
488.754	165.0307
488.9171	167.8054
489.0803	157.584
489.2434	160.7618
489.4066	174.0539
489.5697	176.0742
489.7328	175.0379
489.8959	170.7299
490.059	172.0376
490.2221	173.7078
490.3852	174.4218
490.5482	175.6622
490.7113	174.2526
490.8744	174.7709
491.0374	164.5042
491.2005	171.6462
491.3636	175.1023
491.5266	173.0249
491.6896	169.7959
491.8527	167.9707
492.0157	163.6747
492.1787	164.7472
492.3417	161.6117
492.5047	163.246
492.6677	165.0994
492.8307	178.2287
492.9937	178.6017
493.1567	182.5083
493.3196	178.5426
493.4826	171.3628
493.6456	170.9764
493.8085	172.3548
493.9715	168.8595
494.1344	179.0097
494.2974	181.8966
494.4603	184.6914
494.6232	187.0093
494.7861	185.0269
494.949	184.5214
495.1119	179.8859
495.2748	176.9206
495.4377	179.0966
495.6006	170.5684
495.7635	174.1406
495.9264	170.5284
496.0892	176.6348
496.2521	187.4942
496.4149	185.9845
496.5778	181.9621
496.7407	172.0006
496.9035	176.78
497.0663	185.7532
497.2291	182.8702
497.3919	187.2363
497.5547	182.6636
497.7176	184.1143
497.8804	179.9121
498.0432	171.9431
498.2059	171.5786
498.3687	166.0808
498.5315	170.646
498.6942	179.4781
498.857	179.8302
499.0198	179.5778
499.1825	179.4363
499.3452	177.6861
499.508	184.8865
499.6707	180.9653
499.8334	181.2194
499.9962	182.0106
500.1589	177.8959
500.3216	174.2267
500.4843	167.3391
500.6469	164.1583
500.8096	172.4764
500.9723	178.9097
501.135	176.7662
501.2976	166.3806
501.4603	169.8092
501.623	170.1542
501.7856	165.1102
501.9482	170.4096
502.1109	166.7943
502.2735	175.866
502.4361	173.5661
502.5987	174.977
502.7614	183.8903
502.924	180.1118
503.0865	177.5204
503.2491	189.5434
503.4117	180.7449
503.5743	175.717
503.7368	180.0198
503.8994	177.6027
504.062	171.6034
504.2245	171.9174
504.3871	181.4187
504.5496	187.742
504.7121	184.4004
504.8746	174.4045
505.0372	178.5526
505.1997	186.7204
505.3622	189.6428
505.5247	193.5696
505.6872	198.9271
505.8497	188.4164
506.0121	191.3459
506.1746	189.8256
506.3371	191.244
506.4995	186.931
506.662	187.9191
506.8244	186.0602
506.9869	189.0261
507.1493	185.1504
507.3117	186.1108
507.4742	187.2811
507.6366	182.145
507.799	185.6022
507.9614	182.4244
508.1238	183.0908
508.2862	186.1704
508.4485	186.5546
508.6109	183.3417
508.7733	184.8114
508.9357	190.3547
509.098	191.4172
509.2604	189.4602
509.4227	193.0821
509.5851	189.5379
509.7474	184.4646
509.9097	178.5867
510.072	176.5982
510.2343	183.3479
510.3966	188.3348
510.5589	188.1858
510.7212	188.7238
510.8835	183.9057
511.0458	180.1936
511.2081	181.9928
511.3703	193.7375
511.5326	188.0331
511.6949	194.808
511.8571	199.8397
512.0193	192.3573
512.1816	183.1404
512.3438	185.392
512.506	184.1967
512.6682	183.6549
512.8304	183.7541
512.9926	185.202
513.1548	188.8003
513.317	188.5364
513.4792	188.8974
513.6414	183.8322
513.8035	179.4589
513.9657	178.7886
514.1279	179.4275
514.29	185.8676
514.4521	179.2269
514.6143	174.3155
514.7764	186.9126
514.9385	191.5039
515.1006	188.7538
515.2628	186.244
515.4249	185.5125
515.587	185.4749
515.7491	186.1935
515.9111	189.6528
516.0732	191.606
516.2353	181.429
516.3973	178.3626
516.5594	169.5188
516.7214	166.468
516.8835	161.4283
517.0455	161.6766
517.2076	159.675
517.3696	166.5557
517.5316	178.0558
517.6937	183.9473
517.8557	190.4476
518.0176	189.5999
518.1796	179.2004
518.3416	167.1247
518.5036	162.6539
518.6656	167.6908
518.8275	177.1104
518.9895	183.0983
519.1514	189.971
519.3134	177.5908
519.4753	173.7548
519.6373	185.6078
519.7992	186.2979
519.9611	180.2128
520.123	183.6344
520.2849	187.19
520.4468	187.9303
520.6087	178.0131
520.7706	172.6462
520.9325	178.474
521.0944	181.1131
521.2562	189.3537
521.4181	186.3448
521.58	182.0087
521.7418	188.3202
521.9036	189.3024
522.0655	192.0547
522.2273	189.9266
522.3891	187.8662
522.551	184.7602
522.7128	176.909
522.8746	178.0894
523.0363	187.532
523.1981	187.1934
523.3599	187.5462
523.5217	184.546
523.6835	188.9415
523.8452	187.8274
524.007	191.3974
524.1687	196.6665
524.3304	196.3573
524.4922	195.369
524.6539	195.6868
524.8157	192.4501
524.9774	192.7905
525.1391	192.2727
525.3008	184.0666
525.4625	188.7466
525.6241	194.8095
525.7858	193.171
525.9475	188.3488
526.1092	187.4592
526.2709	182.8544
526.4325	178.3141
526.5942	177.4521
526.7558	172.3734
526.9174	172.8619
527.079	179.275
527.2407	183.0838
527.4023	184.7996
527.5639	184.6186
527.7255	191.1591
527.8871	197.7312
528.0487	194.1073
528.2103	195.4529
528.3718	192.3799
528.5334	191.997
528.695	194.2466
528.8565	201.6889
529.0181	204.3385
529.1796	196.6258
529.3412	196.8311
529.5027	198.594
529.6642	194.2101
529.8257	192.0383
529.9872	188.3498
530.1487	196.3658
530.3102	197.0793
530.4717	198.5699
530.6332	198.6068
530.7947	197.3119
530.9562	195.0698
531.1176	204.8716
531.2791	201.9634
531.4405	197.8614
531.6019	191.5573
531.7634	199.7071
531.9248	195.366
532.0862	196.278
532.2477	188.9874
532.4091	187.5938
532.5704	185.9555
532.7319	186.8689
532.8932	178.4296
533.0546	182.5438
533.216	192.911
533.3774	195.2772
533.5388	196.3885
533.7001	192.3134
533.8615	189.7874
534.0228	188.9753
534.1841	197.0515
534.3455	193.9189
534.5068	199.7042
534.6681	202.9096
534.8293	197.7108
534.9907	189.5159
535.152	190.9521
535.3132	193.0836
535.4745	200.7224
535.6358	210.124
535.7971	203.7878
535.9583	204.9306
536.1196	204.9278
536.2808	200.0475
536.4421	199.5772
536.6033	195.0199
536.7645	191.1035
536.9258	190.1632
537.087	183.3342
537.2482	190.2964
537.4094	192.0144
537.5706	196.7817
537.7318	194.2198
537.8929	193.341
538.0541	195.3798
538.2153	194.5676
538.3764	191.875
538.5376	186.0786
538.6987	189.8415
538.8599	193.032
539.021	205.0774
539.1821	199.8398
539.3432	191.8831
539.5043	194.9323
539.6655	190.9843
539.8265	191.319
539.9876	192.5686
540.1487	190.8136
540.3098	186.0729
540.4708	189.2364
540.6319	187.0644
540.793	185.3694
540.954	185.2865
541.1151	195.3321
541.2761	191.8256
541.4371	191.2195
541.5981	189.6502
541.7592	187.2746
541.9202	190.5578
542.0812	193.6009
542.2422	189.1875
542.4031	187.4683
542.5641	185.6625
542.7251	189.9412
542.886	187.2815
543.0471	186.9243
543.208	184.4015
543.369	183.7091
543.5298	184.769
543.6908	187.3724
543.8517	196.8792
544.0126	195.1311
544.1736	197.7671
544.3345	192.3339
544.4954	184.9873
544.6563	183.8785
544.8171	188.1106
544.978	184.6712
545.1389	193.183
545.2997	198.1462
545.4606	192.9883
545.6215	192.9534
545.7823	189.1335
545.9432	192.6286
546.104	193.2563
546.2648	194.101
546.4256	187.424
546.5864	187.7867
546.7473	189.3387
546.908	195.2829
547.0688	197.5685
547.2296	197.3598
547.3904	196.5283
547.5511	186.3429
547.7119	185.1568
547.8727	189.537
548.0334	186.349
548.1942	192.0878
548.3549	192.1409
548.5156	195.6002
548.6763	192.7522
548.837	197.6849
548.9977	201.4777
549.1584	198.4753
549.3192	192.9651
549.4798	194.7197
549.6405	192.5644
549.8011	198.3344
549.9619	194.2414
550.1225	194.4465
550.2831	196.2592
550.4438	201.9535
550.6044	197.6373
550.765	198.7191
550.9257	191.6119
551.0863	193.5461
551.2469	196.8696
551.4075	191.3127
551.5681	188.6667
551.7287	189.0774
551.8893	202.6666
552.0498	202.4802
552.2104	196.2703
552.371	200.1125
552.5315	190.9551
552.6921	195.4849
552.8526	192.6251
553.0131	195.61
553.1736	196.2722
553.3342	193.3776
553.4947	192.0334
553.6552	195.33
553.8157	200.5602
553.9762	195.0425
554.1367	191.2316
554.2971	194.0861
554.4576	197.2892
554.618	196.9675
554.7785	199.4011
554.939	197.0605
555.0994	197.8449
555.2598	195.3902
555.4203	197.4118
555.5807	199.0753
555.7411	197.4635
555.9015	196.9578
556.0619	195.5651
556.2223	196.172
556.3827	195.5092
556.5431	186.9733
556.7034	185.0178
556.8638	188.6865
557.0242	191.9897
557.1845	194.5301
557.3448	191.3929
557.5052	192.5522
557.6655	192.104
557.8259	197.878
557.9861	201.7662
558.1465	200.1635
558.3068	191.9231
558.467	198.2305
558.6274	191.861
558.7877	187.9555
558.9479	186.7013
559.1082	191.3042
559.2684	183.5285
559.4287	187.0849
559.5889	184.7884
559.7491	196.5844
559.9094	191.4495
560.0696	192.8155
560.2299	186.9695
560.3901	198.7131
560.5502	201.1181
560.7104	197.5404
560.8707	203.2651
561.0308	200.7886
561.191	197.5235
561.3511	200.5248
561.5114	192.2596
561.6714	195.1378
561.8316	185.9041
561.9918	184.4514
562.1519	196.8599
562.312	201.9645
562.4722	194.8824
562.6323	196.1294
562.7924	205.2265
562.9525	202.9131
563.1125	204.2932
563.2726	206.0672
563.4327	202.1212
563.5928	199.4572
563.7528	204.1196
563.9129	201.1543
564.0729	196.6306
564.233	199.123
564.393	194.7105
564.553	200.2786
564.7131	199.3006
564.873	196.2667
565.0331	197.384
565.1931	200.3866
565.353	194.1915
565.5131	196.4986
565.673	194.2122
565.833	193.3521
565.9929	192.1147
566.1529	188.5204
566.3129	196.5495
566.4728	198.8014
566.6328	199.6095
566.7927	196.8422
566.9526	197.2847
567.1125	197.8024
567.2724	201.5932
567.4323	202.536
567.5922	204.8757
567.7521	206.8986
567.9119	200.6548
568.0718	197.8574
568.2317	199.2179
568.3915	201.7375
568.5514	198.6931
568.7112	199.0842
568.871	196.6383
569.0309	199.715
569.1907	208.1982
569.3505	201.6839
569.5103	201.0226
569.6701	200.0643
569.8299	203.9789
569.9897	204.4093
570.1495	197.7675
570.3092	198.3779
570.469	201.2166
570.6287	200.5054
570.7885	197.8635
570.9482	194.5883
571.108	197.5881
571.2677	205.1114
571.4274	193.9384
571.5871	203.9417
571.7468	205.1012
571.9066	204.3747
572.0662	204.3708
572.2259	208.5386
572.3856	209.8121
572.5452	209.4333
572.7049	211.7843
572.8646	210.4161
573.0242	207.3149
573.1838	210.7317
573.3435	214.5037
573.5031	214.1213
573.6627	214.4791
573.8223	216.932
573.9819	217.8
574.1415	217.6502
574.3011	215.7437
574.4607	217.6146
574.6203	216.0788
574.7798	220.6961
574.9394	216.403
575.099	212.6389
575.2585	216.9999
575.418	211.8795
575.5776	206.8845
575.7371	205.0096
575.8966	214.0448
576.0562	211.3404
576.2156	210.9082
576.3751	209.4636
576.5346	212.1429
576.6941	209.2385
576.8536	213.6261
577.0131	217.1003
577.1725	212.9674
577.332	208.3273
577.4914	216.4748
577.6508	214.73
577.8103	214.4073
577.9697	216.7081
578.1291	211.5921
578.2885	214.5028
578.4479	214.8466
578.6073	218.9336
578.7667	207.0977
578.9261	213.1612
579.0854	215.1646
579.2448	217.3339
579.4042	216.6671
579.5635	214.1678
579.7229	220.344
579.8822	218.9866
580.0416	216.4554
580.2009	221.8029
580.3602	221.3813
580.5195	211.45
580.6788	215.5943
580.8381	221.6734
580.9974	212.9467
581.1566	213.1387
581.3159	219.7624
581.4752	212.9753
581.6345	214.4244
581.7937	223.4539
581.9529	220.6206
582.1122	229.7534
582.2714	223.7702
582.4306	228.4915
582.5898	232.2414
582.749	229.3496
582.9082	233.6273
583.0674	234.1626
583.2266	227.2001
583.3857	226.6704
583.5449	223.2753
583.7041	221.8317
583.8633	229.2106
584.0224	229.898
584.1815	220.2654
584.3407	225.2508
584.4998	227.0835
584.6589	221.2718
584.818	226.7441
584.9771	237.2536
585.1362	231.9713
585.2953	230.288
585.4544	228.8385
585.6135	230.5405
585.7725	223.696
585.9316	225.2749
586.0906	219.8054
586.2497	225.5608
586.4087	225.0861
586.5677	226.9714
586.7267	231.8444
586.8858	225.6155
587.0448	224.423
587.2038	225.4144
587.3628	227.0218
587.5218	222.3938
587.6807	226.8294
587.8397	227.5441
587.9987	224.6418
588.1577	225.2728
588.3166	226.2265
588.4755	222.6215
588.6345	217.423
588.7934	209.3032
588.9523	209.8364
589.1112	204.5599
589.2701	207.2808
589.429	207.1927
589.5879	214.328
589.7468	208.4756
589.9056	211.0713
590.0645	221.1619
590.2234	223.8641
590.3822	223.9878
590.5411	230.5559
590.6999	235.7873
590.8588	230.788
591.0176	232.1515
591.1764	230.6541
591.3352	233.0602
591.494	226.8809
591.6528	227.2053
591.8116	224.8501
591.9703	219.9771
592.1291	224.6064
592.2878	222.991
592.4467	223.0189
592.6053	232.1098
592.7641	230.4242
592.9229	225.4428
593.0816	228.0824
593.2403	226.7181
593.399	233.6564
593.5577	232.5932
593.7164	240.9473
593.8751	236.7783
594.0338	231.7347
594.1924	224.8195
594.3511	225.7257
594.5098	226.8083
594.6684	233.8026
594.8271	222.7548
594.9857	228.6101
595.1443	234.2023
595.303	228.9963
595.4615	239.995
595.6202	236.6497
595.7787	235.513
595.9374	232.9755
596.0959	234.3061
596.2545	238.0008
596.4131	231.647
596.5717	232.2138
596.7302	238.2699
596.8887	246.9975
597.0473	242.1462
597.2058	241.8751
597.3644	236.9978
597.5229	238.5182
597.6814	232.6322
597.8399	237.9873
597.9984	238.9579
598.1569	240.016
598.3154	237.8725
598.4738	235.7896
598.6323	233.7864
598.7908	234.4508
598.9492	245.7113
599.1076	238.1084
599.2661	238.9381
599.4245	242.1427
599.5829	239.3186
599.7413	242.5602
599.8997	241.5703
600.0581	236.8489
600.2165	238.4305
600.3749	241.0857
600.5333	241.3897
600.6917	245.2645
600.85	240.5399
601.0084	233.3588
601.1667	240.9057
601.325	244.0839
601.4833	247.5948
601.6417	234.2761
601.8	240.3812
601.9583	240.0044
602.1166	246.3776
602.2749	245.5138
602.4332	243.5115
602.5914	247.2078
602.7498	251.2769
602.908	252.4201
603.0662	244.1447
603.2245	245.4861
603.3828	252.4566
603.541	256.8816
603.6992	251.3066
603.8574	252.9351
604.0156	253.3935
604.1738	247.4469
604.332	252.6389
604.4902	248.1623
604.6484	246.9435
604.8065	250.1671
604.9647	242.0442
605.1229	244.384
605.281	248.4163
605.4391	253.7019
605.5973	244.829
605.7554	241.5241
605.9135	245.4133
606.0717	245.2035
606.2297	238.3341
606.3878	243.0965
606.5459	247.6254
606.704	249.6108
606.8621	249.8604
607.0201	251.1102
607.1782	252.5987
607.3362	255.8611
607.4943	264.797
607.6523	261.7473
607.8104	251.5195
607.9684	241.6002
608.1264	244.871
608.2844	250.2587
608.4424	245.0994
608.6003	247.2652
608.7584	241.3305
608.9163	241.9297
609.0743	246.1112
609.2322	250.3409
609.3902	249.4942
609.5482	252.6315
609.7061	259.2238
609.864	250.8331
610.0219	250.426
610.1798	238.9143
610.3377	239.2852
610.4956	244.8716
610.6535	252.9229
610.8114	244.3078
610.9693	245.741
611.1271	251.4513
611.285	255.0218
611.4429	257.0837
611.6007	252.6021
611.7585	255.9938
611.9164	249.3382
612.0742	239.9081
612.232	244.1231
612.3898	238.0211
612.5476	239.3205
612.7054	243.6201
612.8632	245.8305
613.0209	243.4788
613.1787	239.9297
613.3365	244.5856
613.4942	247.7639
613.652	237.8687
613.8097	232.97
613.9674	239.2267
614.1252	241.9942
614.2829	245.795
614.4406	248.9271
614.5983	245.2594
614.756	239.7497
614.9136	247.146
615.0714	243.7966
615.229	243.1965
615.3867	243.9355
615.5443	240.5897
615.702	243.709
615.8596	245.1102
616.0172	236.3298
616.1748	234.1985
616.3325	226.5475
616.4901	235.6185
616.6476	231.1644
616.8052	231.6964
616.9628	230.2875
617.1204	228.4733
617.278	233.0555
617.4355	237.1631
617.5931	243.088
617.7506	240.2882
617.9081	238.9131
618.0657	242.2388
618.2232	245.2823
618.3807	244.5818
618.5382	248.876
618.6957	244.667
618.8532	238.3256
619.0107	241.8887
619.1682	237.1176
619.3256	236.2079
619.4831	239.8868
619.6406	238.7097
619.798	240.5946
619.9554	251.9857
620.1129	249.5006
620.2703	242.1033
620.4277	237.6722
620.5851	237.3825
620.7425	244.8167
620.8998	248.289
621.0573	242.4887
621.2146	239.7582
621.372	241.7036
621.5294	236.7739
621.6867	243.2645
621.8441	234.0065
622.0013	237.4651
622.1587	234.7208
622.316	249.662
622.4733	246.5257
622.6306	239.1015
622.7879	229.8057
622.9452	237.9809
623.1025	234.6747
623.2598	231.7802
623.4171	232.2086
623.5743	238.6744
623.7316	238.6583
623.8888	238.0882
624.046	232.1449
624.2032	237.7661
624.3605	236.4375
624.5176	223.1495
624.6749	237.1068
624.8321	231.4012
624.9893	233.9791
625.1464	238.8381
625.3036	231.4702
625.4608	232.4818
625.6179	235.8903
625.7751	238.7309
625.9322	232.9072
626.0894	224.2363
626.2465	232.2646
626.4036	236.161
626.5607	231.3074
626.7178	244.5772
626.8749	243.1576
627.032	241.8894
627.189	239.4253
627.3461	236.0659
627.5032	231.6557
627.6602	231.7927
627.8173	223.5766
627.9743	220.9572
628.1313	220.4695
628.2884	224.8968
628.4454	230.3441
628.6024	232.5346
628.7594	233.2989
628.9164	229.5156
629.0734	235.086
629.2303	233.4839
629.3873	234.9214
629.5443	236.7419
629.7012	224.5103
629.8582	221.104
630.0151	228.2918
630.172	224.2175
630.3289	226.1485
630.4858	232.0937
630.6428	231.1795
630.7996	230.2647
630.9565	226.9491
631.1134	238.6617
631.2703	229.7263
631.4272	235.9672
631.584	232.7478
631.7408	223.9393
631.8977	221.5243
632.0546	224.1336
632.2114	224.4851
632.3682	225.0218
632.525	231.3104
632.6818	232.6605
632.8386	230.7051
632.9954	230.3406
633.1522	233.0675
633.3089	230.2153
633.4657	230.9355
633.6224	227.1284
633.7792	226.3581
633.9359	225.9608
634.0927	230.7832
634.2494	222.295
634.4061	229.2622
634.5628	226.7001
634.7195	226.2251
634.8762	231.3599
635.0329	233.0603
635.1895	233.6588
635.3462	234.7282
635.5029	235.3122
635.6595	223.9061
635.8162	229.8511
635.9728	229.3138
636.1295	231.1739
636.2861	227.1447
636.4427	229.1365
636.5992	229.7926
636.7559	231.6426
636.9124	229.0902
637.069	226.3226
637.2256	232.9054
637.3821	230.0449
637.5387	230.4241
637.6953	227.9418
637.8518	228.9673
638.0084	222.8406
638.1649	228.0085
638.3214	230.642
638.4779	228.0515
638.6344	226.9362
638.7909	228.5752
638.9474	231.0863
639.1038	225.1449
639.2603	226.1047
639.4167	222.303
639.5732	225.0653
639.7297	225.7516
639.8861	223.1698
640.0425	216.6942
640.199	221.3579
640.3553	220.2942
640.5118	223.3927
640.6682	220.6665
640.8245	217.9623
640.981	220.9987
641.1373	220.688
641.2936	220.4476
641.45	227.8949
641.6064	212.9879
641.7627	217.3313
641.9191	214.5803
642.0754	211.3756
642.2317	222.5906
642.388	219.652
642.5443	219.4326
642.7006	220.8752
642.8569	217.7952
643.0131	222.5043
643.1694	225.2824
643.3257	222.838
643.4819	218.4631
643.6382	217.264
643.7944	222.4626
643.9506	221.8353
644.1069	216.8181
644.2631	214.4175
644.4193	217.1897
644.5754	222.0641
644.7316	220.6891
644.8878	217.0378
645.044	215.5703
645.2002	212.6593
645.3563	205.4672
645.5125	208.5301
645.6686	212.847
645.8248	204.4927
645.9809	201.5395
646.137	207.7104
646.2931	207.8459
646.4492	212.0845
646.6053	210.6531
646.7614	212.1462
646.9174	212.1596
647.0735	206.9109
647.2296	208.3318
647.3856	208.4854
647.5417	206.4094
647.6977	204.9942
647.8537	201.746
648.0098	203.2089
648.1658	202.18
648.3218	202.7384
648.4777	201.0225
648.6337	208.0698
648.7897	212.5706
648.9457	209.9547
649.1016	202.9972
649.2576	198.9468
649.4135	195.1815
649.5695	190.1431
649.7254	193.0916
649.8813	189.1629
650.0372	199.8329
650.1932	207.4444
650.3491	201.8253
650.5049	216.4243
650.6608	210.4116
650.8167	210.1167
650.9725	206.6013
651.1284	205.3116
651.2842	204.3009
651.4401	196.9585
651.5959	195.566
651.7518	201.6762
651.9076	206.0808
652.0634	197.7963
652.2192	206.3954
652.3749	204.9564
652.5308	196.2204
652.6865	198.2873
652.8423	206.3992
652.998	205.9938
653.1538	204.2891
653.3096	203.4168
653.4653	203.9441
653.621	207.4148
653.7767	199.5464
653.9324	200.8176
654.0881	202.7819
654.2438	199.3846
654.3995	201.2778
654.5552	201.2821
654.7109	191.1922
654.8665	198.9213
655.0222	203.1236
655.1778	200.4175
655.3334	199.0934
655.4891	193.8336
655.6447	190.1339
655.8003	194.2451
655.9559	189.0951
656.1115	178.4486
656.2671	161.6983
656.4227	156.9493
656.5782	164.2649
656.7338	175.4158
656.8893	186.4043
657.0449	193.0512
657.2004	194.3787
657.356	191.0728
657.5115	191.1415
657.667	190.2137
657.8225	195.0759
657.978	198.8642
658.1335	196.3563
658.289	196.6741
658.4445	200.5042
658.5999	197.9127
658.7554	199.851
658.9108	195.8838
659.0663	193.2502
659.2217	195.238
659.3771	198.8731
659.5325	195.4436
659.6879	200.1404
659.8433	208.6791
659.9987	197.3352
660.1541	192.534
660.3095	195.1908
660.4648	192.9191
660.6202	202.5624
660.7756	196.1866
660.9309	199.6056
661.0862	200.2148
661.2416	199.7041
661.3969	200.7502
661.5522	204.2138
661.7075	208.2948
661.8628	202.1772
662.0181	206.5085
662.1733	207.719
662.3286	206.5302
662.4839	202.1398
662.6391	200.6835
662.7944	196.0784
662.9496	194.8721
663.1048	195.5199
663.26	195.1203
663.4152	192.6778
663.5704	202.0672
663.7256	198.8845
663.8808	206.4568
664.036	201.8167
664.1912	209.5522
664.3463	204.9561
664.5015	204.6712
664.6566	196.8756
664.8118	200.0876
664.9669	194.1217
665.122	194.878
665.2771	199.7714
665.4322	193.7762
665.5873	197.4823
665.7424	201.4584
665.8975	198.8914
666.0526	191.5036
666.2076	194.2346
666.3627	202.6385
666.5177	194.385
666.6727	194.063
666.8278	197.4503
666.9828	200.8978
667.1378	203.0758
667.2928	196.5755
667.4478	190.0156
667.6028	188.5948
667.7578	187.5852
667.9127	195.481
668.0677	200.3147
668.2226	201.2101
668.3776	199.8364
668.5325	195.7899
668.6874	191.715
668.8423	192.6755
668.9973	196.1396
669.1522	197.2625
669.3071	195.9395
669.4619	192.5826
669.6168	196.706
669.7717	190.4788
669.9265	180.5493
670.0814	188.4598
670.2362	198.8228
670.3911	187.9784
670.5459	186.4923
670.7007	191.7719
670.8555	187.8103
671.0103	191.9915
671.1651	192.3454
671.3199	189.722
671.4747	184.2529
671.6295	186.8511
671.7842	187.5542
671.939	194.174
672.0937	190.6441
672.2484	185.7378
672.4031	186.6441
672.5579	187.7816
672.7126	188.3204
672.8673	182.2419
673.022	194.1379
673.1767	193.8414
673.3314	195.5341
673.486	201.3254
673.6407	183.5802
673.7953	185.38
673.95	189.3135
674.1046	188.8922
674.2592	185.242
674.4138	184.5087
674.5684	181.2647
674.723	187.4611
674.8776	191.0777
675.0322	184.7896
675.1868	187.2612
675.3414	188.1417
675.4959	188.066
675.6505	184.9791
675.805	189.914
675.9595	187.4919
676.1141	186.6051
676.2686	183.2607
676.4231	185.567
676.5776	187.9847
676.7321	189.8793
676.8866	181.7542
677.041	180.9106
677.1955	183.1369
677.35	190.1798
677.5044	181.7716
677.6589	178.0995
677.8133	176.7666
677.9677	177.8878
678.1221	181.553
678.2766	180.4876
678.4309	178.2702
678.5853	179.9572
678.7397	177.3544
678.8941	188.188
679.0485	187.332
679.2028	183.687
679.3571	186.5275
679.5115	181.0335
679.6658	180.2581
679.8201	179.4661
679.9744	179.5611
680.1288	179.4428
680.2831	175.7923
680.4373	177.0377
680.5916	183.1489
680.7459	175.3763
680.9001	175.3707
681.0544	177.3911
681.2087	171.3403
681.3629	170.445
681.5171	172.3974
681.6713	179.5562
681.8256	175.5564
681.9797	176.3195
682.134	173.4615
682.2881	171.7281
682.4423	171.1641
682.5965	169.5894
682.7507	175.6134
682.9048	174.6288
683.059	172.6655
683.2131	175.4152
683.3672	170.667
683.5213	163.7177
683.6754	166.0284
683.8295	172.7298
683.9836	172.4868
684.1377	162.2236
684.2918	161.3351
684.4459	158.9372
684.5999	162.2746
684.754	170.5053
684.908	173.3432
685.062	166.3095
685.2161	165.8645
685.3701	162.4166
685.5241	165.9619
685.6781	161.9459
685.8321	166.5645
685.9861	162.1943
686.14	166.456
686.294	163.5173
686.4479	163.352
686.6019	158.0392
686.7559	142.4303
686.9098	131.1077
687.0637	126.923
687.2176	129.2232
687.3715	131.9815
687.5254	134.7628
687.6793	127.7716
687.8332	132.4895
687.9871	143.3797
688.1409	150.3408
688.2947	155.1906
688.4486	152.1104
688.6024	152.8392
688.7563	146.0942
688.9101	148.6118
689.0639	146.2036
689.2177	143.5151
689.3715	142.8241
689.5253	144.3036
689.6791	143.9608
689.8328	149.9204
689.9866	150.2262
690.1403	152.3979
690.2941	153.1343
690.4478	152.7842
690.6015	148.8461
690.7552	156.6929
690.9089	155.3679
691.0626	155.7166
691.2164	153.9309
691.37	154.0533
691.5237	149.2768
691.6774	151.6338
691.831	154.756
691.9847	159.6747
692.1383	162.6909
692.2919	157.083
692.4456	148.5475
692.5992	155.5024
692.7527	161.682
692.9064	151.3196
693.0599	154.1203
693.2136	147.7971
693.3671	150.315
693.5207	159.7623
693.6742	157.2766
693.8278	152.6305
693.9813	150.2608
694.1348	145.0969
694.2883	153.3819
694.4418	149.9145
694.5953	151.8087
694.7488	147.3265
694.9023	147.4309
695.0558	147.1416
695.2093	149.3752
695.3627	152.7879
695.5162	151.1056
695.6696	144.7958
695.8231	156.2809
695.9764	148.1394
696.1299	146.7296
696.2833	148.9052
696.4367	149.1106
696.5901	149.4952
696.7435	154.7074
696.8968	157.8861
697.0502	153.2754
697.2036	155.9634
697.3569	154.8218
697.5102	153.3122
697.6635	152.8303
697.8168	151.7176
697.9702	148.005
698.1235	148.8165
698.2768	148.6706
698.4301	157.9517
698.5833	149.3905
698.7366	143.5567
698.8898	148.2663
699.0431	148.0626
699.1964	152.8454
699.3495	148.9793
699.5028	150.5693
699.656	152.3707
699.8092	152.2187
699.9624	149.3255
700.1156	149.8827
700.2688	152.6866
700.4219	148.4082
700.5751	139.581
700.7283	142.7082
700.8814	141.3049
701.0345	147.616
701.1877	152.2724
701.3408	143.7706
701.4939	142.1405
701.647	148.8882
701.8001	145.8187
701.9532	152.5749
702.1063	142.9984
702.2593	146.2979
702.4124	145.4322
702.5654	140.5528
702.7184	142.4397
702.8715	148.2396
703.0245	149.892
703.1776	151.9716
703.3305	150.8795
703.4835	150.8556
703.6365	149.6583
703.7895	149.9717
703.9424	147.2572
704.0954	143.5997
704.2484	144.8158
704.4013	155.2076
704.5543	157.6403
704.7072	156.1809
704.8601	152.8014
705.013	149.1611
705.1659	145.6498
705.3188	147.2746
705.4717	152.4914
705.6246	149.3351
705.7774	139.6996
705.9303	144.975
706.0831	146.0878
706.236	146.52
706.3888	146.2314
706.5416	151.7924
706.6944	148.1557
706.8472	146.7186
707	147.9337
707.1528	143.7678
707.3056	150.222
707.4583	151.4367
707.6111	147.8966
707.7639	148.8788
707.9166	144.9926
708.0693	143.0076
708.222	152.5954
708.3748	148.0999
708.5275	142.3931
708.6802	134.6304
708.8328	146.9205
708.9855	151.5782
709.1382	152.9255
709.2909	152.5669
709.4435	153.5736
709.5962	149.5221
709.7488	149.5756
709.9014	143.479
710.054	144.7699
710.2067	146.0913
710.3593	142.3676
710.5118	153.3762
710.6644	152.2973
710.817	143.6439
710.9695	141.0384
711.1221	139.8096
711.2747	146.9536
711.4272	147.3589
711.5797	140.8475
711.7322	144.2277
711.8848	136.9016
712.0373	140.9299
712.1898	144.1969
712.3422	141.0551
712.4948	141.6875
712.6472	142.0482
712.7996	142.7748
712.9521	143.6008
713.1046	144.773
713.257	144.1931
713.4094	139.1622
713.5618	139.5283
713.7142	142.1427
713.8666	137.7794
714.019	140.1079
714.1714	146.1241
714.3237	145.6845
714.4761	142.6068
714.6285	152.0955
714.7808	143.9936
714.9331	140.6759
715.0854	133.6963
715.2378	142.4601
715.3901	144.0758
715.5424	147.1235
715.6947	137.7572
715.8469	141.5199
715.9992	144.9392
716.1515	137.2585
716.3037	135.2787
716.456	129.4086
716.6082	128.5475
716.7604	121.9328
716.9127	124.9774
717.0649	117.3373
717.2171	122.7846
717.3693	120.3671
717.5214	116.705
717.6736	115.0278
717.8258	121.6248
717.978	118.558
718.1301	120.2743
718.2822	115.8905
718.4344	120.7356
718.5865	113.1748
718.7386	113.5995
718.8907	112.4291
719.0428	115.1433
719.1949	113.25
719.3469	117.2237
719.499	112.7816
719.6511	120.1136
719.8031	122.216
719.9551	115.7965
720.1072	114.0602
720.2592	109.569
720.4112	110.4811
720.5632	111.8208
720.7152	114.8481
720.8672	116.3658
721.0192	119.2645
721.1711	122.5407
721.3231	132.0582
721.475	130.1538
721.627	132.4675
721.7789	135.553
721.9308	131.0929
722.0828	124.8254
722.2347	126.9316
722.3866	131.7891
722.5385	125.6804
722.6903	121.9399
722.8422	131.2381
722.9941	131.6834
723.1459	124.8143
723.2977	118.5874
723.4496	114.4448
723.6014	112.8498
723.7532	119.0958
723.905	124.5039
724.0568	116.1243
724.2086	117.7762
724.3604	116.3238
724.5121	116.1058
724.6639	118.1186
724.8157	119.486
724.9674	125.256
725.1191	120.2049
725.2709	111.5593
725.4226	113.9965
725.5743	116.2503
725.726	112.4018
725.8777	114.6484
726.0294	118.9004
726.181	125.1049
726.3327	119.8426
726.4844	114.7229
726.636	111.815
726.7877	122.0135
726.9393	132.1835
727.0909	129.0129
727.2425	118.1618
727.3941	114.652
727.5457	115.0836
727.6973	106.4944
727.8488	109.1684
728.0004	114.7923
728.1519	117.1148
728.3035	122.88
728.455	120.563
728.6066	120.5885
728.7581	119.4031
728.9095	109.7031
729.0611	108.386
729.2126	107.5452
729.364	114.1009
729.5155	119.0125
729.667	116.5772
729.8184	119.5642
729.9698	120.4957
730.1213	121.121
730.2727	111.4105
730.4241	108.8902
730.5756	110.7138
730.7269	118.2005
730.8784	113.2903
731.0297	116.8329
731.1811	118.0436
731.3325	118.406
731.4838	115.1199
731.6351	117.4994
731.7865	122.1711
731.9378	117.2712
732.0891	119.7706
732.2404	123.4507
732.3917	124.128
732.543	121.0042
732.6943	122.5548
732.8456	126.1222
732.9968	125.8052
733.1481	121.2337
733.2993	118.7528
733.4506	122.2874
733.6018	123.885
733.753	123.4728
733.9042	129.3132
734.0554	128.5254
734.2066	123.5779
734.3578	121.6686
734.509	123.9802
734.6602	123.649
734.8113	125.2836
734.9624	119.9532
735.1136	116.2169
735.2647	122.0978
735.4158	127.9004
735.5669	125.4907
735.718	125.2528
735.8691	123.2058
736.0201	121.8803
736.1713	123.2655
736.3223	121.0625
736.4733	121.6303
736.6244	127.7413
736.7755	124.3956
736.9265	116.6693
737.0775	121.2485
737.2285	130.3338
737.3795	130.5804
737.5305	122.5949
737.6815	132.4078
737.8324	127.8995
737.9834	119.4024
738.1343	120.9586
738.2853	118.4669
738.4362	120.066
738.5871	122.0312
738.738	126.1948
738.8889	121.2174
739.0399	119.1877
739.1907	120.5273
739.3416	121.1204
739.4925	121.4594
739.6433	117.9792
739.7942	120.9442
739.945	122.4969
740.0958	123.734
740.2467	125.6057
740.3975	122.856
740.5483	124.2535
740.6991	119.2036
740.8499	116.5999
741.0007	114.9704
741.1514	114.7992
741.3022	114.9524
741.4529	113.8818
741.6036	116.7849
741.7544	114.7853
741.9051	121.009
742.0558	122.4402
742.2065	116.2804
742.3572	110.6695
742.5079	112.766
742.6586	118.5753
742.8093	119.9685
742.9599	119.9603
743.1105	118.4955
743.2612	117.3287
743.4118	114.8477
743.5624	121.3455
743.7131	120.6932
743.8636	121.4725
744.0142	117.9123
744.1648	112.8036
744.3154	109.5822
744.4659	116.3421
744.6165	113.1516
744.767	112.8121
744.9176	117.2447
745.0681	111.3382
745.2186	115.2239
745.3691	118.5428
745.5197	118.261
745.6702	117.8548
745.8206	115.32
745.9711	116.3456
746.1215	113.7057
746.272	116.6334
746.4224	117.921
746.5729	117.7539
746.7233	116.1572
746.8737	113.9469
747.0241	117.7126
747.1745	111.7025
747.3249	111.7592
747.4753	115.8365
747.6257	107.914
747.776	111.4433
747.9264	109.9936
748.0767	112.7987
748.2271	111.2348
748.3774	108.1549
748.5276	107.5082
748.678	111.7529
748.8282	111.5904
748.9786	109.3144
749.1288	110.4138
749.2791	106.2223
749.4294	109.0006
749.5796	115.3371
749.7299	115.2689
749.8801	111.5905
750.0303	110.7037
750.1805	113.6891
750.3307	111.2777
750.4809	115.4406
750.6311	116.1693
750.7813	110.52
750.9314	107.286
751.0816	108.9238
751.2318	105.2079
751.3818	108.6742
751.532	110.3091
751.6821	106.7534
751.8322	104.3587
751.9823	112.8736
752.1324	101.4347
752.2825	104.1567
752.4326	109.2288
752.5826	106.8213
752.7327	108.1119
752.8827	104.184
753.0327	107.6909
753.1827	102.3782
753.3328	101.9868
753.4828	104.754
753.6328	108.2352
753.7828	106.1198
753.9327	108.8092
754.0827	114.2006
754.2327	106.3301
754.3826	107.0329
754.5325	110.0173
754.6825	110.2298
754.8324	107.9693
754.9823	110.7556
755.1322	108.3371
755.2821	107.1179
755.432	108.0434
755.5818	105.0331
755.7318	102.4339
755.8816	98.58356
756.0314	97.75172
756.1813	103.8276
756.3311	100.7209
756.4809	100.1939
756.6307	99.188
756.7805	103.8322
756.9303	102.5336
757.0801	101.8933
757.2299	98.08515
757.3796	99.38372
757.5294	92.71542
757.6791	98.00743
757.8289	99.22778
757.9786	102.6874
758.1283	98.79117
758.278	96.64877
758.4277	92.91071
758.5773	97.306
758.7271	96.36544
758.8767	100.535
759.0264	96.61026
759.176	98.22498
759.3256	84.30411
759.4753	74.73544
759.6249	64.83498
759.7745	53.74205
759.9241	52.03312
760.0737	44.16605
760.2233	42.74029
760.3729	43.38309
760.5224	43.26388
760.6719	41.22783
760.8215	43.04101
760.971	45.23162
761.1205	47.54117
761.2701	50.16157
761.4196	52.75624
761.5691	57.49637
761.7186	62.96778
761.868	74.23081
762.0175	74.31148
762.167	70.35748
762.3164	65.39707
762.4659	59.7703
762.6153	57.16683
762.7647	54.2925
762.9141	54.71137
763.0635	58.44515
763.2129	55.74632
763.3623	58.24573
763.5117	57.78724
763.661	55.03925
763.8104	56.41069
763.9597	48.62645
764.1091	57.46325
764.2584	62.70314
764.4077	63.31113
764.557	65.71473
764.7063	62.67684
764.8556	70.82838
765.0049	66.81409
765.1541	66.49427
765.3034	71.88251
765.4526	71.05323
765.6019	67.98054
765.7511	69.47379
765.9003	70.40685
766.0496	70.84325
766.1987	71.64921
766.348	74.33601
766.4971	70.52032
766.6463	70.68027
766.7955	76.257
766.9446	80.71913
767.0938	81.2444
767.2429	79.99557
767.392	82.07355
767.5411	85.17794
767.6902	81.63132
767.8394	78.94805
767.9884	80.3307
768.1375	83.20416
768.2866	81.40814
768.4356	82.16746
768.5847	85.44741
768.7337	87.55067
768.8828	82.75487
769.0317	81.59377
769.1808	85.38023
769.3298	76.34032
769.4788	77.84691
769.6277	84.30424
769.7767	80.33497
769.9257	79.57851
770.0746	82.87238
770.2236	81.70651
770.3725	84.29237
770.5214	82.71646
770.6703	78.89401
770.8193	84.69269
770.9681	81.91715
771.1171	82.70032
771.2659	86.42002
771.4148	79.54846
771.5637	79.66611
771.7125	74.76951
771.8613	78.93358
772.0101	84.04494
772.159	76.41903
772.3078	78.33337
772.4566	78.18827
772.6054	75.64993
772.7542	74.49226
772.903	80.50442
773.0517	82.12178
773.2004	81.54458
773.3492	75.86455
773.4979	80.66367
773.6467	84.2612
773.7953	80.98537
773.944	76.45638
774.0928	75.30233
774.2415	78.33738
774.3901	74.6405
774.5388	72.85768
774.6874	69.94701
774.8361	77.14861
774.9847	74.30562
775.1334	77.82619
775.282	74.25795
775.4305	73.76653
775.5792	76.03473
775.7277	78.83855
775.8763	79.42542
776.0249	74.56614
776.1735	72.27419
776.322	71.0228
776.4705	76.22913
776.6191	78.4758
776.7676	81.45711
776.9161	76.87503
777.0646	81.99834
777.2131	78.01122
777.3616	77.92489
777.5101	70.2534
777.6585	73.0168
777.8069	74.6357
777.9554	68.40566
778.1038	70.01466
778.2523	75.99177
778.4007	76.35732
778.5491	72.41699
778.6974	75.52484
778.8459	78.46852
778.9942	73.16171
779.1426	72.6795
779.291	75.47345
779.4393	77.01627
779.5876	75.30558
779.736	74.14743
779.8843	75.88825
780.0326	78.51108
780.1809	72.4328
780.3292	72.11456
780.4775	71.47141
780.6257	74.26519
780.774	73.06299
780.9222	76.27074
781.0704	74.5104
781.2187	75.9811
781.3669	72.32449
781.5151	68.67152
781.6633	73.98488
781.8115	78.60535
781.9597	79.18286
782.1078	74.32789
782.256	72.03366
782.4042	74.29874
782.5523	74.31512
782.7004	71.37369
782.8486	74.43504
782.9967	72.06013
783.1448	67.34711
783.2929	71.45192
783.441	71.58834
783.5891	70.93048
783.7371	71.20942
783.8851	71.17787
784.0332	67.74749
784.1812	67.99453
784.3293	66.15636
784.4773	69.72673
784.6253	74.26238
784.7733	75.01238
784.9213	75.67694
785.0692	73.04861
785.2172	71.06391
785.3652	70.804
785.5131	67.62812
785.6611	64.19036
785.809	62.21104
785.9569	67.01185
786.1048	68.13272
786.2527	68.75432
786.4006	67.96144
786.5485	70.00732
786.6964	64.96385
786.8442	67.6959
786.9921	69.43184
787.1399	66.47006
787.2877	74.45537
787.4355	67.98486
787.5833	72.06549
787.7311	66.39024
787.8789	68.00154
788.0267	71.60966
788.1745	73.12609
788.3223	62.18622
788.47	64.79887
788.6177	62.04749
788.7654	65.8485
788.9132	66.34227
789.0609	64.17986
789.2086	64.24349
789.3563	63.03497
789.504	68.59521
789.6517	67.09608
789.7993	61.1053
789.947	64.98719
790.0946	60.53896
790.2422	70.00677
790.3898	72.75316
790.5375	63.63304
790.6851	65.35321
790.8326	66.02483
790.9802	68.0138
791.1278	67.34464
791.2754	64.26694
791.423	64.27724
791.5705	67.52386
791.718	63.45829
791.8655	60.90646
792.0131	60.86835
792.1606	66.03843
792.308	66.23465
792.4556	62.12726
792.603	61.53511
792.7505	66.65181
792.8979	64.55389
793.0454	63.97947
793.1928	54.64901
793.3403	59.34221
793.4877	62.88089
793.6351	60.70688
793.7825	64.74976
793.9299	64.4481
794.0772	65.80683
794.2246	60.51245
794.3719	61.24858
794.5193	61.59602
794.6666	56.70615
794.814	61.25123
794.9613	60.64784
795.1086	62.50751
795.2559	65.82551
795.4032	65.20094
795.5505	58.29979
795.6978	60.53624
795.845	63.32042
795.9922	57.05521
796.1395	56.07563
796.2867	59.21417
796.4339	59.13306
796.5811	54.42271
796.7283	58.46769
796.8755	56.59951
797.0227	62.36188
797.1699	57.58522
797.317	60.21178
797.4642	64.36226
797.6113	62.60943
797.7584	62.30362
797.9056	63.20469
798.0527	59.2711
798.1998	61.6891
798.3469	61.65408
798.494	58.0789
798.641	57.01053
798.7881	61.38459
798.9351	58.54654
799.0822	66.47719
799.2292	63.05432
799.3762	61.31198
799.5232	59.95732
799.6702	55.19259
799.8172	56.79042
799.9642	56.07289
800.1111	57.65632
800.2581	63.05364
800.4051	60.25558
800.552	56.76957
800.6989	61.34562
800.8458	58.85188
800.9927	60.43016
801.1396	56.85873
801.2866	52.50901
801.4334	50.89713
801.5803	56.72031
801.7272	58.17834
801.874	53.53073
802.0209	61.26846
802.1677	52.2649
802.3145	56.71635
802.4613	53.83594
802.6081	52.24988
802.7549	53.55238
802.9017	52.01626
803.0485	58.99186
803.1952	55.98492
803.342	49.93315
803.4887	49.30326
803.6354	55.87089
803.7822	53.24829
803.9289	57.82748
804.0756	52.25317
804.2223	52.79109
804.369	55.08225
804.5156	55.20324
804.6623	53.1924
804.8089	51.17048
804.9556	53.8444
805.1022	47.32305
805.2488	53.5593
805.3954	55.58515
805.542	57.08679
805.6886	48.82993
805.8352	53.16108
805.9818	49.16204
806.1283	53.43801
806.2749	57.02104
806.4214	56.68726
806.5679	56.3602
806.7145	55.24973
806.861	54.60478
807.0074	51.71454
807.154	57.89341
807.3004	55.31868
807.4469	49.54974
807.5934	50.65511
807.7398	50.03299
807.8862	51.84318
808.0327	49.70335
808.1791	54.78163
808.3255	53.59071
808.4719	48.80443
808.6183	49.39398
808.7647	52.55554
808.9111	52.80819
809.0574	50.26034
809.2037	52.9374
809.3501	47.55525
809.4965	47.84671
809.6428	44.23839
809.7891	50.29358
809.9354	48.01361
810.0817	47.68068
810.2279	45.5575
810.3742	45.72182
810.5204	48.91337
810.6667	47.65989
810.8129	53.92945
810.9592	46.87561
811.1054	43.58236
811.2516	47.23364
811.3978	48.21626
811.5439	47.54289
811.6901	48.01838
811.8363	46.01629
811.9825	48.34445
812.1286	44.42715
812.2748	47.50106
812.4209	48.44324
812.567	44.91436
812.7131	43.973
812.8592	42.00444
813.0053	45.17735
813.1514	40.84454
813.2974	42.09359
813.4435	41.7621
813.5895	42.59143
813.7356	44.55451
813.8816	41.87661
814.0276	42.05008
814.1736	44.94553
814.3196	41.71404
814.4656	38.78877
814.6116	41.25995
814.7576	44.17602
814.9035	44.88707
815.0494	42.25015
815.1954	42.36449
815.3413	38.00927
815.4872	38.55426
815.6331	39.98375
815.779	40.57085
815.9249	40.07437
816.0707	41.59699
816.2166	39.12928
816.3625	38.33327
816.5083	35.52591
816.6542	39.87027
816.8	41.3544
816.9458	36.74834
817.0916	35.78178
817.2374	41.94732
817.3832	44.67681
817.5289	43.1903
817.6747	41.0971
817.8204	39.45412
817.9662	34.75471
818.1119	35.12697
818.2576	37.85091
818.4034	38.72644
818.5491	41.38189
818.6948	36.72638
818.8405	37.12173
818.9861	33.0305
819.1318	36.9694
819.2774	38.00858
819.423	36.77012
819.5687	38.71656
819.7143	36.36755
819.8599	31.25977
820.0055	35.00583
820.1511	40.8712
820.2967	38.6404
820.4422	42.82751
820.5878	45.00611
820.7333	43.30454
820.8788	32.67955
821.0244	38.39186
821.1699	40.88202
821.3154	41.93929
821.4609	40.24665
821.6064	38.96434
821.7519	36.04132
821.8973	44.19238
822.0428	38.66117
822.1882	39.97193
822.3337	40.93746
822.4791	40.27795
822.6245	36.87812
822.7699	34.95013
822.9153	29.66417
823.0607	30.30671
823.2061	31.61448
823.3514	33.59603
823.4968	31.83835
823.6422	38.86747
823.7875	36.77517
823.9328	36.84734
824.0781	35.77685
824.2234	32.43332
824.3687	36.17402
824.514	34.85626
824.6592	40.16111
824.8045	38.00782
824.9498	39.09781
825.095	38.9174
825.2402	37.73754
825.3854	44.81133
825.5306	38.46574
825.6758	37.67917
825.821	37.60408
825.9662	38.44594
826.1114	38.7336
826.2565	42.28312
826.4017	42.96333
826.5468	37.58632
826.692	36.61481
826.837	42.79962
826.9822	41.64954
827.1273	37.84279
827.2723	39.8612
827.4174	36.32325
827.5625	37.57738
827.7075	34.15297
827.8526	36.52281
827.9976	34.3717
828.1426	36.56136
828.2877	36.01462
828.4327	41.06855
828.5776	38.01637
828.7227	33.60831
828.8676	34.67952
829.0126	30.08048
829.1575	35.67486
829.3024	35.65198
829.4474	34.87569
829.5923	38.61768
829.7372	35.21341
829.8821	36.8776
830.027	37.0098
830.1719	36.10692
830.3168	35.19627
830.4616	32.94501
830.6064	33.20336
830.7513	30.50527
830.8961	33.64342
831.041	30.3905
831.1857	35.41468
831.3306	32.05115
831.4753	42.60271
831.6201	40.20298
831.7649	36.85942
831.9096	33.14403
832.0544	33.03782
832.1991	28.68657
832.3438	31.82407
832.4885	33.05919
832.6332	31.87068
832.778	33.67185
832.9226	32.99476
833.0673	36.02963
833.2119	31.58573
833.3566	40.9349
833.5012	35.59521
833.6459	35.00546
833.7905	34.81744
833.9351	35.91606
834.0797	36.54432
834.2243	33.87812
834.3688	35.481
834.5134	31.04897
834.658	29.74094
834.8026	34.5373
834.9471	36.3166
835.0916	36.4414
835.2361	36.22711
835.3806	35.57284
835.5251	36.91023
835.6696	28.94851
835.8141	34.49802
835.9586	37.01454
836.103	38.26666
836.2474	37.60133
836.3918	36.21036
836.5363	31.06339
836.6807	34.96502
836.8251	33.09074
836.9695	34.74583
837.1138	37.15391
837.2582	35.46893
837.4026	31.56373
837.5469	33.14522
837.6913	36.52595
837.8356	35.40112
837.9799	34.14754
838.1242	37.27579
838.2686	38.41901
838.4128	35.1097
838.5571	33.00877
838.7014	33.63201
838.8456	35.08471
838.9899	37.45195
839.1341	36.03657
839.2783	37.0629
839.4225	37.03318
839.5667	35.02468
839.7109	31.60886
839.8551	33.47227
839.9993	32.33709
840.1434	34.83935
840.2876	35.81143
840.4317	31.41234
840.5759	32.2314
840.72	33.28664
840.8641	31.64996
841.0082	34.3042
841.1523	33.07248
841.2963	28.57292
841.4404	31.95285
841.5845	33.9775
841.7285	31.82388
841.8726	30.81677
842.0165	31.36598
842.1606	35.66206
842.3046	38.42422
842.4485	35.42986
842.5925	31.18201
842.7365	33.18142
842.8805	35.25216
843.0244	33.35145
843.1684	32.44004
843.3123	36.46315
843.4562	34.88002
843.6002	30.79656
843.744	32.7773
843.8879	34.64997
844.0318	30.24369
844.1757	32.11217
844.3195	32.08899
844.4634	36.46399
844.6072	29.9656
844.751	28.67558
844.8948	28.56223
845.0386	33.06134
845.1824	32.81032
845.3262	31.44414
845.47	33.18922
845.6138	34.65569
845.7575	39.81388
845.9012	30.47004
846.045	30.34325
846.1887	36.69479
846.3324	30.74487
846.4761	27.78578
846.6198	33.26087
846.7635	35.18321
846.9071	32.597
847.0508	32.72704
847.1944	32.97202
847.3381	31.67693
847.4817	33.59365
847.6253	32.36567
847.7689	27.9997
847.9125	33.06567
848.0561	35.12793
848.1996	33.57867
848.3432	32.42226
848.4868	32.93435
848.6303	30.95008
848.7738	32.45945
848.9174	29.40978
849.0609	35.53868
849.2043	37.69069
849.3478	31.94446
849.4913	33.25312
849.6348	31.60021
849.7782	26.55534
849.9217	30.29362
850.0651	27.20359
850.2086	32.7495
850.3519	31.72571
850.4954	28.83466
850.6387	25.46957
850.7821	27.88461
850.9255	30.36775
851.0688	28.15567
851.2122	27.30744
851.3555	25.50224
851.4988	28.78023
851.6422	27.4284
851.7855	24.92672
851.9288	27.98855
852.0721	31.21856
852.2153	29.82534
852.3586	30.27749
852.5018	28.31698
852.6451	29.33494
852.7883	28.30829
852.9315	24.58543
853.0748	30.7009
853.218	26.57986
853.3611	31.21458
853.5043	27.6542
853.6475	29.57493
853.7906	27.2051
853.9338	26.1327
854.0769	25.11903
854.22	26.16683
854.3632	23.44615
854.5063	24.99347
854.6494	24.87644
854.7924	29.26713
854.9355	27.87541
855.0786	25.76743
855.2216	28.13708
855.3647	32.24997
855.5077	30.5991
855.6507	29.4186
855.7937	30.32294
855.9367	30.14497
856.0797	27.77778
856.2227	27.00046
856.3657	26.39997
856.5086	31.96346
856.6516	31.94433
856.7945	33.72799
856.9374	29.51757
857.0803	24.04529
857.2232	27.23808
857.3661	29.75152
857.509	33.26714
857.6519	27.61717
857.7947	26.80591
857.9376	28.80375
858.0804	28.6445
858.2232	30.8609
858.366	27.26505
858.5089	27.83534
858.6516	30.37134
858.7944	28.51294
858.9372	25.86341
859.08	28.46242
859.2227	24.09295
859.3654	26.94342
859.5082	33.94602
859.6509	28.33075
859.7936	26.50911
859.9363	27.10887
860.079	23.55263
860.2217	26.34924
860.3643	31.77743
860.507	27.40139
860.6496	29.59727
860.7922	29.2566
860.9349	30.44412
861.0775	27.89007
861.2201	25.85176
861.3627	28.31466
861.5052	29.69967
861.6478	27.61735
861.7904	28.84336
861.9329	26.3098
862.0755	28.07419
862.218	26.82242
862.3605	25.89895
862.503	24.04589
862.6455	28.03741
862.788	27.36325
862.9305	27.8619
863.0729	25.43518
863.2154	28.26592
863.3578	31.27064
863.5002	27.92466
863.6426	23.25062
863.7851	26.95329
863.9275	29.15583
864.0698	28.67029
864.2122	28.66709
864.3546	24.61855
864.4969	27.09651
864.6393	24.7399
864.7816	28.5159
864.924	29.22874
865.0662	27.47022
865.2086	25.15326
865.3508	25.28197
865.4931	25.95771
865.6354	22.7985
865.7776	24.29654
865.9199	23.4417
866.0621	26.58697
866.2043	24.91894
866.3466	20.27027
866.4888	20.95868
866.6309	22.61028
866.7731	21.75796
866.9153	26.20353
867.0574	31.82184
867.1996	25.9032
867.3417	24.1009
867.4839	26.25019
867.626	26.14294
867.7681	24.7779
867.9102	23.00461
868.0522	26.45463
868.1943	23.93056
868.3364	28.41335
868.4785	29.56797
868.6205	24.93568
868.7625	24.26065
868.9045	23.53974
869.0465	25.86439
869.1885	19.55461
869.3305	23.56564
869.4725	23.1096
869.6144	25.93159
869.7564	24.2891
869.8983	23.9844
870.0403	23.25602
870.1822	25.70191
870.3241	25.16949
870.466	26.58225
870.6079	28.94695
870.7498	25.62334
870.8916	25.62562
871.0335	25.25675
871.1754	20.30914
871.3171	22.22702
871.459	29.09398
871.6008	25.48312
871.7426	21.58157
871.8844	23.11379
872.0262	26.22947
872.1679	21.52805
872.3097	23.40115
872.4514	27.56661
872.5931	26.25843
872.7349	26.48137
872.8766	22.04
873.0183	20.06632
873.16	25.4193
873.3017	25.89593
873.4434	27.0033
873.585	25.17925
873.7266	24.15132
873.8683	23.68752
874.0099	21.18592
874.1516	22.43814
874.2932	22.46203
874.4348	26.27794
874.5763	23.10673
874.7179	26.90916
874.8594	18.88943
875.001	23.29203
875.1425	25.96904
875.2841	23.378
875.4256	23.44211
875.5671	23.78252
875.7086	17.30313
875.85	19.26933
875.9915	26.36865
876.133	23.23478
876.2744	21.09945
876.4159	20.69443
876.5573	23.86452
876.6987	21.74736
876.8401	21.15847
876.9815	19.95684
877.1229	27.50914
877.2643	27.6101
877.4056	23.6794
877.547	26.30643
877.6884	20.19955
877.8297	22.12861
877.971	25.63907
878.1123	24.77517
878.2536	20.63967
878.3949	23.18744
878.5362	19.4401
878.6774	26.12246
878.8187	20.85594
878.9599	21.02756
879.1011	22.78353
879.2424	18.05752
879.3836	22.04698
879.5248	23.448
879.666	26.88711
879.8071	22.54718
879.9483	21.92263
880.0895	22.39052
880.2306	22.70226
880.3718	18.42193
880.5129	20.51611
880.654	24.54618
880.7951	22.78829
880.9362	26.17974
881.0773	19.12333
881.2183	22.73263
881.3594	27.95442
881.5004	22.66918
881.6414	23.83573
881.7825	23.52063
881.9235	21.78215
882.0645	18.27558
882.2054	22.59813
882.3464	22.36524
882.4874	21.64287
882.6284	21.44813
882.7693	24.0054
882.9103	25.9972
883.0512	24.73002
883.1921	21.92813
883.333	21.3716
883.4739	22.56045
883.6147	23.58834
883.7556	22.07102
883.8965	19.93755
884.0374	21.93291
884.1782	16.9325
884.319	14.88317
884.4598	19.38558
884.6006	20.28035
884.7414	20.86877
884.8822	24.26121
885.0229	24.59462
885.1637	20.78477
885.3044	22.0405
885.4452	21.52759
885.5859	21.87308
885.7266	21.62913
885.8673	17.43714
886.008	21.10244
886.1487	21.91743
886.2894	19.03637
886.43	23.51327
886.5707	18.10475
886.7113	18.30423
886.8519	19.30617
886.9926	18.93859
887.1331	13.88668
887.2737	21.05138
887.4143	23.90397
887.5549	22.19518
887.6954	23.2294
887.836	26.79213
887.9765	24.68599
888.1171	22.0826
888.2576	24.63885
888.3981	18.10679
888.5386	18.38008
888.679	20.08423
888.8195	18.47265
888.96	22.93848
889.1004	23.26727
889.2408	23.20634
889.3813	20.15627
889.5217	16.80909
889.6621	20.92604
889.8025	24.24614
889.9429	19.70001
890.0833	18.01347
890.2236	25.06074
890.364	22.28577
890.5043	18.6582
890.6446	17.69187
890.7849	23.53572
890.9252	26.77272
891.0655	22.86916
891.2058	21.6467
891.3461	21.71837
891.4863	21.76729
891.6266	20.60018
891.7668	19.80382
891.907	22.45537
892.0472	23.79197
892.1874	22.34036
892.3276	23.31388
892.4678	27.21936
892.608	21.85687
892.7481	21.00401
892.8883	18.8237
893.0284	19.338
893.1685	17.69882
893.3087	20.48626
893.4487	17.25924
893.5889	17.88739
893.7289	14.16401
893.869	15.53952
894.009	21.23306
894.1491	17.10288
894.2891	21.34587
894.4291	20.11351
894.5692	15.09108
894.7092	14.89542
894.8491	16.7508
894.9891	21.48352
895.1291	17.6913
895.269	19.97366
895.409	17.02795
895.549	17.84876
895.6888	18.02432
895.8288	20.86943
895.9687	20.55532
896.1086	18.03125
896.2484	19.94523
896.3883	19.96796
896.5281	19.50106
896.668	19.14225
896.8079	15.67393
896.9476	17.71083
897.0875	14.65515
897.2272	14.45506
897.3671	11.68039
897.5068	16.08414
897.6466	16.24182
897.7864	19.18726
897.9261	16.24637
898.0658	14.8466
898.2056	12.13926
898.3453	17.76122
898.4849	24.75106
898.6246	17.06072
898.7643	18.85605
898.904	14.26053
899.0436	14.75054
899.1833	16.21935
899.3229	15.65907
899.4625	18.95458
899.6021	16.52284
899.7417	19.05263
899.8813	18.69197
900.0209	17.80254
900.1605	15.58545
900.3	10.35232
900.4395	18.54415
900.579	20.79826
900.7186	11.31515
900.8581	12.27805
900.9976	21.20214
901.1371	16.38684
901.2766	16.17316
901.416	15.13676
901.5555	16.37653
901.6949	17.04716
901.8344	14.84952
901.9738	20.12466
902.1132	20.12242
902.2526	19.83342
902.3919	17.39748
902.5313	17.47155
902.6707	17.66333
