SPECTRUM DATA FILE
SpectrumCount:	1
PixelCount:	3648
UserName:	ToughBook User
SampleName:	
LightSource:	
Comments:	
DeviceName:	Qwave
DeviceManufacturer:	Broadcom
DeviceSerialNo:	11311

Name:	last spectrum
Date:	2024-05-02T15:01:46.3645208+02:00
ExposureTime:	0.02
TemporalAvg:	1
IntensityUnit:	normalizedCounts
CCDLoadLevel:	0.5111907
Temperature:	29.65942
DiagramColor:	200
ProcessingSteps:	335

Wavelength [nm]	Intensity1
334.421	129.9744
334.5891	137.299
334.7573	134.1342
334.9254	136.2683
335.0935	139.1243
335.2616	139.9163
335.4297	144.923
335.5978	147.023
335.7659	122.1245
335.934	111.6132
336.1021	109.7462
336.2701	109.5689
336.4382	116.2829
336.6063	124.9936
336.7744	113.6879
336.9424	108.4986
337.1105	101.6206
337.2785	108.3878
337.4466	123.8353
337.6146	133.1682
337.7827	126.2033
337.9507	123.9251
338.1187	127.7109
338.2867	134.1275
338.4548	135.1573
338.6228	147.9175
338.7908	143.9341
338.9588	142.6532
339.1268	141.4356
339.2948	129.8256
339.4628	129.847
339.6308	149.7634
339.7988	157.65
339.9667	165.0093
340.1347	161.5497
340.3027	155.0817
340.4707	143.8933
340.6386	147.7312
340.8066	147.8257
340.9745	151.3015
341.1425	143.8048
341.3104	147.0584
341.4784	145.4154
341.6463	147.6295
341.8142	166.6244
341.9821	173.529
342.1501	167.051
342.318	163.365
342.4859	160.2245
342.6538	167.0561
342.8217	171.6308
342.9896	169.9394
343.1575	177.2688
343.3254	168.6532
343.4933	157.9619
343.6612	159.1092
343.829	144.9819
343.9969	128.1732
344.1648	118.9698
344.3326	123.8029
344.5005	131.9322
344.6683	146.879
344.8362	160.1974
345.004	171.4553
345.1719	163.4536
345.3397	165.9566
345.5075	171.2398
345.6754	163.8154
345.8432	155.9384
346.011	148.9053
346.1788	151.3862
346.3466	156.1891
346.5144	174.9919
346.6822	172.6763
346.85	170.1356
347.0178	183.3933
347.1856	170.8498
347.3534	163.9585
347.5211	150.6466
347.6889	151.8738
347.8567	159.6741
348.0244	170.1927
348.1922	173.2794
348.3599	173.2725
348.5277	168.1292
348.6954	170.66
348.8632	173.5554
349.0309	157.5205
349.1986	159.1777
349.3663	161.7565
349.5341	162.7269
349.7018	173.8111
349.8695	184.6343
350.0372	206.7383
350.2049	215.2056
350.3726	216.9136
350.5403	216.707
350.7079	206.7188
350.8756	205.2737
351.0433	192.1251
351.211	188.8788
351.3786	184.9712
351.5463	187.993
351.714	204.5386
351.8816	212.8578
352.0493	203.9593
352.2169	184.6239
352.3846	171.9963
352.5522	174.335
352.7198	181.8755
352.8875	203.3102
353.0551	219.3343
353.2227	213.5995
353.3903	217.6574
353.5579	229.6102
353.7255	226.5114
353.8931	229.2479
354.0607	228.4191
354.2283	228.2192
354.3958	240.577
354.5634	242.2213
354.731	233.8789
354.8986	235.1832
355.0661	239.4273
355.2337	227.2391
355.4012	220.1906
355.5688	220.2862
355.7363	221.4055
355.9039	221.4434
356.0714	227.1486
356.239	212.1191
356.4065	208.3599
356.574	184.7479
356.7415	177.1022
356.909	165.5681
357.0765	173.354
357.244	181.7762
357.4115	193.1029
357.579	202.2966
357.7465	201.9028
357.914	175.7539
358.0815	155.9204
358.249	148.0499
358.4164	147.7459
358.5839	154.1266
358.7513	165.5925
358.9188	181.8219
359.0862	219.257
359.2537	237.7359
359.4211	253.6674
359.5886	266.0251
359.756	271.2744
359.9234	274.6018
360.0909	264.2383
360.2583	243.217
360.4257	233.4798
360.5931	215.8755
360.7605	213.091
360.9279	209.2561
361.0953	216.409
361.2627	231.8658
361.4301	239.1015
361.5974	232.7546
361.7648	217.4458
361.9322	208.9125
362.0995	217.7981
362.2669	240.0494
362.4343	276.5621
362.6016	287.9245
362.769	300.0391
362.9363	284.1349
363.1036	251.3522
363.271	229.6735
363.4383	242.5295
363.6056	262.7236
363.7729	277.2976
363.9402	285.9526
364.1075	292.1542
364.2748	279.2645
364.4421	261.2943
364.6094	251.3593
364.7767	245.9467
364.944	259.4749
365.1113	280.844
365.2786	302.8136
365.4458	322.0925
365.6131	333.7556
365.7803	337.0918
365.9476	346.0687
366.1148	344.2068
366.2821	331.885
366.4493	321.091
366.6166	321.0125
366.7838	325.8045
366.951	327.124
367.1182	325.5038
367.2855	336.9455
367.4527	340.5107
367.6199	329.676
367.7871	310.924
367.9543	293.9355
368.1215	292.938
368.2886	309.8531
368.4558	316.3229
368.623	304.5655
368.7902	308.8969
368.9573	325.6249
369.1245	346.6694
369.2917	355.8329
369.4588	365.3114
369.6259	366.1749
369.7931	371.5534
369.9602	385.8947
370.1274	390.4381
370.2945	365.7281
370.4616	330.2083
370.6287	300.3257
370.7958	300.1396
370.963	321.6963
371.1301	368.7449
371.2971	397.8645
371.4643	417.9416
371.6313	403.9112
371.7984	360.7763
371.9655	311.8237
372.1326	282.8935
372.2997	300.2457
372.4667	349.3245
372.6338	368.4868
372.8008	365.5283
372.9679	351.3336
373.1349	331.961
373.3019	294.1529
373.469	256.3519
373.636	249.6607
373.803	272.633
373.9701	337.6435
374.1371	359.0931
374.3041	337.4267
374.4711	299.6108
374.6381	270.6003
374.8051	263.029
374.9721	274.9956
375.1391	314.7291
375.3061	374.4064
375.473	413.8674
375.64	399.982
375.8069	369.4697
375.9739	347.0563
376.1409	356.0417
376.3078	360.6591
376.4748	363.7377
376.6417	365.0025
376.8087	373.5468
376.9756	382.5898
377.1425	401.1966
377.3094	425.876
377.4763	450.9851
377.6432	474.3915
377.8102	482.5285
377.9771	488.1168
378.144	509.2791
378.3109	497.196
378.4777	483.3431
378.6446	451.1962
378.8115	420.0371
378.9784	403.7113
379.1452	403.6014
379.3121	392.8058
379.4789	375.0894
379.6458	359.8438
379.8127	350.4919
379.9795	378.862
380.1463	419.3897
380.3131	462.2001
380.48	484.1906
380.6468	483.1715
380.8136	482.6572
380.9804	485.3108
381.1472	487.411
381.314	441.9643
381.4808	399.1353
381.6476	373.9891
381.8144	371.3922
381.9812	360.0039
382.148	347.4896
382.3147	338.8284
382.4815	322.5919
382.6483	302.046
382.815	286.2965
382.9818	280.8243
383.1485	286.2704
383.3153	278.359
383.482	275.5978
383.6487	282.0509
383.8155	286.5468
383.9822	296.8169
384.1489	343.2511
384.3156	393.9842
384.4823	434.7585
384.649	458.0552
384.8157	468.9651
384.9824	455.7082
385.1491	453.4212
385.3158	447.1313
385.4825	425.8539
385.6491	400.6639
385.8158	374.8072
385.9825	360.2442
386.1491	386.041
386.3157	444.8505
386.4824	473.1887
386.649	472.8145
386.8157	449.4513
386.9823	413.9213
387.1489	388.5298
387.3156	413.4169
387.4821	454.6252
387.6488	467.4416
387.8154	441.1872
387.982	424.0913
388.1486	422.0743
388.3152	428.1236
388.4818	423.9217
388.6483	415.748
388.8149	410.2653
388.9815	431.4874
389.148	489.8735
389.3146	527.1501
389.4811	547.0327
389.6477	555.4631
389.8142	561.9161
389.9808	559.2538
390.1473	544.3035
390.3138	527.0757
390.4804	516.3023
390.6469	526.7415
390.8134	567.1316
390.9799	597.4143
391.1464	629.6485
391.3129	635.0436
391.4794	627.5253
391.6459	610.8654
391.8124	596.4299
391.9789	566.4787
392.1453	522.5309
392.3118	514.5389
392.4782	506.9333
392.6447	461.3499
392.8112	385.7482
392.9776	307.7547
393.144	234.3126
393.3105	196.9998
393.4769	199.175
393.6433	245.6001
393.8098	319.256
393.9762	402.9689
394.1426	448.4433
394.309	469.0532
394.4754	512.5377
394.6418	561.8505
394.8082	612.7004
394.9746	648.9097
395.141	662.9866
395.3073	672.9387
395.4737	667.5295
395.64	654.572
395.8064	661.0529
395.9728	618.8026
396.1391	545.965
396.3055	468.6164
396.4718	403.4141
396.6381	323.6935
396.8045	260.097
396.9708	250.8512
397.1371	303.4925
397.3034	395.8954
397.4697	501.9062
397.636	588.2966
397.8023	673.8135
397.9686	736.2076
398.1349	767.4449
398.3012	766.479
398.4675	767.8932
398.6337	784.4749
398.8	824.3305
398.9662	839.294
399.1325	855.9487
399.2988	853.7325
399.465	857.199
399.6313	846.3564
399.7975	843.1391
399.9637	869.7432
400.1299	894.7554
400.2961	899.51
400.4624	869.2012
400.6286	841.4637
400.7948	858.6909
400.961	902.3167
401.1272	927.9814
401.2934	950.9015
401.4595	963.3169
401.6257	949.5153
401.7919	940.3612
401.9581	954.4036
402.1242	974.4656
402.2904	970.7133
402.4565	964.7547
402.6227	964.4054
402.7888	970.1154
402.955	955.6744
403.1211	900.1172
403.2872	852.5781
403.4533	861.4377
403.6194	933.7844
403.7856	1005.91
403.9517	1027.429
404.1177	1012.503
404.2838	958.5
404.4499	882.5076
404.616	838.7011
404.7821	878.3212
404.9482	972.8102
405.1142	1030.917
405.2803	1019.572
405.4464	988.1914
405.6124	953.4466
405.7784	945.3595
405.9445	950.971
406.1105	950.7593
406.2766	933.8632
406.4426	898.1714
406.6086	911.4376
406.7746	975.3945
406.9406	1014.909
407.1066	1006.467
407.2726	1000.14
407.4386	984.6841
407.6046	973.5161
407.7706	954.0442
407.9366	980.3603
408.1025	1050.407
408.2685	1088.897
408.4344	1082.74
408.6004	1092.236
408.7664	1124.49
408.9323	1155.984
409.0983	1172.822
409.2642	1140.554
409.4301	1108.189
409.596	1068.096
409.762	1016.423
409.9279	958.8193
410.0938	893.8467
410.2597	859.667
410.4256	920.5959
410.5915	1007.586
410.7574	1073.663
410.9232	1101.32
411.0891	1097.425
411.255	1122.337
411.4209	1165.048
411.5867	1190.551
411.7526	1196.877
411.9184	1176.658
412.0843	1163.835
412.2501	1154.001
412.4159	1160.786
412.5818	1170.345
412.7476	1153.541
412.9134	1137.228
413.0792	1113.123
413.245	1076.892
413.4108	1075.602
413.5766	1141.201
413.7424	1208.393
413.9082	1259.582
414.074	1233.031
414.2397	1177.479
414.4055	1126.268
414.5713	1122.74
414.737	1177.312
414.9028	1200.533
415.0685	1204.046
415.2343	1188.711
415.4	1154.512
415.5658	1128.091
415.7315	1126.742
415.8972	1181.403
416.0629	1233.856
416.2286	1261.642
416.3943	1273.441
416.56	1272.867
416.7257	1238.957
416.8914	1224.655
417.0571	1205.009
417.2228	1152.751
417.3884	1118.636
417.5541	1125.784
417.7198	1164.691
417.8854	1204.053
418.0511	1211.718
418.2167	1201.591
418.3824	1216.775
418.548	1204.717
418.7136	1185.319
418.8792	1192.182
419.0449	1222.092
419.2105	1287.629
419.3761	1317.352
419.5417	1267.93
419.7073	1206.536
419.8729	1160.201
420.0385	1141.383
420.204	1166.593
420.3696	1231.895
420.5352	1285.283
420.7007	1352.019
420.8663	1377.108
421.0319	1396.97
421.1974	1396.822
421.3629	1385.576
421.5285	1351.295
421.694	1317.369
421.8595	1341.819
422.0251	1392.67
422.1906	1398.163
422.3561	1322.722
422.5216	1176.554
422.6871	1075.713
422.8526	1131.624
423.0181	1278.683
423.1835	1377.14
423.349	1366.097
423.5145	1295.23
423.68	1254.444
423.8454	1258.652
424.0109	1289.284
424.1763	1347.372
424.3418	1369.218
424.5072	1380.973
424.6726	1356.608
424.838	1299.596
425.0035	1243.092
425.1689	1277.153
425.3343	1309.811
425.4997	1317.76
425.6651	1337.961
425.8305	1324.53
425.9959	1278.101
426.1613	1244.83
426.3267	1316.412
426.492	1417.467
426.6574	1426.284
426.8228	1379.577
426.9881	1266.681
427.1534	1167.213
427.3188	1136.451
427.4841	1180.16
427.6495	1296.926
427.8148	1355.854
427.9801	1364.892
428.1454	1338.183
428.3107	1319.748
428.476	1305.09
428.6414	1288.967
428.8066	1229.367
428.9719	1182.067
429.1372	1203.887
429.3025	1241.007
429.4678	1265.42
429.633	1225.284
429.7983	1100.172
429.9636	997.2981
430.1288	940.3006
430.294	935.8073
430.4593	965.2397
430.6245	944.2562
430.7897	906.5375
430.955	906.6332
431.1202	944.1962
431.2854	1073.371
431.4506	1235.924
431.6158	1424.673
431.781	1560.335
431.9462	1611.229
432.1114	1551.6
432.2766	1422.862
432.4417	1254.518
432.6069	1187.519
432.772	1296.909
432.9372	1456.787
433.1024	1573.461
433.2675	1579.618
433.4326	1578.636
433.5977	1518.984
433.7629	1366.37
433.928	1218.707
434.0931	1133.407
434.2582	1202.734
434.4233	1341.662
434.5884	1475.871
434.7535	1550.745
434.9186	1596.971
435.0837	1540.3
435.2488	1463.874
435.4138	1461.361
435.5789	1527.603
435.744	1586.272
435.909	1594.245
436.0741	1629.065
436.2391	1659.096
436.4042	1713.562
436.5692	1710.609
436.7342	1673.762
436.8992	1636.879
437.0643	1606.089
437.2293	1590.043
437.3943	1547.846
437.5593	1520.658
437.7243	1556.644
437.8893	1618.414
438.0542	1599.525
438.2192	1465.891
438.3842	1314.755
438.5491	1282.393
438.7141	1386.16
438.8791	1501.323
439.044	1536.452
439.209	1548.185
439.3739	1585.731
439.5388	1630.731
439.7037	1650.305
439.8687	1669.905
440.0336	1658.112
440.1985	1606.464
440.3634	1527.824
440.5283	1491.367
440.6932	1519.56
440.8581	1600.926
441.0229	1707.024
441.1878	1766.771
441.3527	1761.989
441.5175	1689.073
441.6824	1656.999
441.8472	1718.922
442.0121	1805.788
442.1769	1798.321
442.3418	1778.698
442.5066	1761.538
442.6714	1779.744
442.8362	1799.785
443.001	1785.101
443.1659	1793.871
443.3307	1753.067
443.4955	1715.575
443.6602	1718.84
443.825	1799.624
443.9898	1860.469
444.1546	1809.775
444.3193	1758.61
444.4841	1791.743
444.6488	1838.552
444.8136	1885.28
444.9783	1874.913
445.1431	1861.087
445.3078	1820.174
445.4725	1747.294
445.6372	1677.95
445.802	1646.436
445.9667	1665.374
446.1314	1701.417
446.2961	1727.896
446.4608	1777.682
446.6255	1837.989
446.7901	1832.878
446.9548	1845.65
447.1195	1879.823
447.2841	1919.529
447.4488	1989.866
447.6134	2016.694
447.7781	2009.352
447.9427	1947.388
448.1074	1863.953
448.272	1833.237
448.4366	1908.239
448.6012	2012.47
448.7658	2030.274
448.9305	1952.476
449.095	1926.423
449.2596	1938.822
449.4242	1956.073
449.5888	1970.39
449.7534	1997.061
449.9179	2025.074
450.0825	2063.329
450.2471	2076.473
450.4116	2130.663
450.5762	2169.383
450.7407	2178.864
450.9052	2167.671
451.0698	2157.162
451.2343	2127.245
451.3988	2098.008
451.5633	2067.236
451.7278	2063.465
451.8923	2083.742
452.0568	2111.052
452.2213	2096.71
452.3858	2073.251
452.5503	1987.501
452.7148	1917.295
452.8792	1870.642
453.0437	1867.947
453.2081	1901.046
453.3726	1895.274
453.537	1913.579
453.7015	1992.154
453.8659	2082.955
454.0303	2120.946
454.1947	2087.947
454.3592	2081.439
454.5236	2084.456
454.688	2057.559
454.8524	1988.672
455.0168	1984.36
455.1811	1968.175
455.3455	1968.896
455.5099	1994.607
455.6743	2027.898
455.8386	2072.182
456.003	2122.614
456.1673	2165.376
456.3317	2144.773
456.496	2083.321
456.6603	2076.539
456.8246	2105.814
456.989	2123.803
457.1533	2117.102
457.3176	2115.932
457.4819	2131.359
457.6462	2145.425
457.8105	2116.582
457.9748	2070.236
458.1391	2018.074
458.3033	2004.658
458.4676	1995.985
458.6319	2007.503
458.7961	2039.609
458.9604	2106.374
459.1246	2116.893
459.2888	2072.265
459.4531	2039.814
459.6173	2033.995
459.7815	2029.81
459.9457	2062.175
460.11	2046.523
460.2741	2058.701
460.4384	2071.106
460.6025	2097.867
460.7667	2132.746
460.9309	2175.188
461.0951	2169.004
461.2592	2150.184
461.4234	2143.947
461.5876	2127.872
461.7517	2150.292
461.9159	2161.971
462.08	2163.921
462.2441	2177.771
462.4082	2197.487
462.5724	2181.76
462.7365	2195.107
462.9006	2185.177
463.0647	2196.521
463.2288	2190.739
463.3929	2175.421
463.557	2167.687
463.721	2129.824
463.8851	2116.132
464.0492	2119.207
464.2132	2155.616
464.3773	2174.002
464.5414	2136.097
464.7054	2080.023
464.8694	2045.761
465.0334	2084.871
465.1975	2144.83
465.3615	2159.241
465.5255	2149.869
465.6895	2151.428
465.8535	2198.16
466.0175	2275.352
466.1815	2255.698
466.3455	2185.26
466.5095	2123.263
466.6734	2036.06
466.8374	2002.652
467.0014	2035.443
467.1653	2136.255
467.3293	2186.02
467.4932	2216.26
467.6571	2242.484
467.8211	2218.527
467.985	2165.921
468.1489	2148.735
468.3128	2185.922
468.4767	2225.29
468.6406	2241.688
468.8045	2239.608
468.9684	2235.349
469.1323	2216.139
469.2962	2213.029
469.46	2231.034
469.6239	2252.454
469.7878	2238.745
469.9516	2184.761
470.1154	2116.1
470.2793	2092.068
470.4431	2098.762
470.607	2120.661
470.7708	2151.315
470.9346	2138.216
471.0984	2175.309
471.2622	2214.319
471.426	2207.564
471.5898	2219.395
471.7536	2271.994
471.9174	2315.592
472.0811	2346.215
472.2449	2350.95
472.4087	2338.998
472.5724	2321.299
472.7362	2264.874
472.8999	2180.743
473.0637	2139.183
473.2274	2169.297
473.3911	2200.459
473.5548	2215.104
473.7185	2225.176
473.8822	2220.511
474.0459	2249.086
474.2096	2276.024
474.3733	2288.717
474.537	2306.642
474.7007	2303.54
474.8643	2289.629
475.028	2311.151
475.1917	2281.964
475.3553	2228.449
475.519	2206.652
475.6826	2193.186
475.8463	2221.801
476.0099	2246.528
476.1735	2223.746
476.3371	2171.633
476.5007	2102.756
476.6643	2116.538
476.8279	2175.131
476.9915	2216.926
477.1551	2237.99
477.3187	2251.864
477.4823	2262.936
477.6458	2312.316
477.8094	2331.574
477.9729	2312.058
478.1365	2295.26
478.3	2270.81
478.4636	2247.512
478.6271	2218.352
478.7906	2178.898
478.9541	2181.291
479.1176	2218.265
479.2812	2274.654
479.4447	2328.44
479.6082	2332.247
479.7716	2314.211
479.9351	2264.221
480.0986	2240.912
480.2621	2267.87
480.4255	2269.218
480.589	2264.159
480.7524	2223.022
480.9159	2228.154
481.0793	2242.091
481.2428	2259.007
481.4062	2291.738
481.5696	2338.302
481.733	2349.312
481.8964	2337.594
482.0598	2324.273
482.2232	2273.876
482.3866	2236.057
482.55	2243.061
482.7134	2259.154
482.8768	2275.467
483.0401	2266.65
483.2035	2260.21
483.3668	2267.635
483.5302	2268.926
483.6935	2273.444
483.8568	2269.304
484.0202	2212.471
484.1835	2181.265
484.3468	2210.618
484.5101	2242.133
484.6734	2254.97
484.8367	2265.219
485	2248.163
485.1633	2228.804
485.3266	2217.014
485.4899	2146.607
485.6531	2051.776
485.8164	1958.506
485.9796	1774.538
486.1429	1619.211
486.3061	1626.381
486.4694	1783.176
486.6326	1972.099
486.7958	2061.755
486.959	2076.432
487.1223	2031.986
487.2855	1998.08
487.4486	2047.211
487.6118	2128.45
487.775	2169.97
487.9382	2204.921
488.1014	2239.59
488.2646	2245.143
488.4277	2213.889
488.5909	2148.469
488.754	2088.893
488.9171	2055.544
489.0803	2035.419
489.2434	2067.079
489.4066	2178.615
489.5697	2297.362
489.7328	2340.922
489.8959	2334.329
490.059	2295.047
490.2221	2272.389
490.3852	2263.624
490.5482	2256.021
490.7113	2249.927
490.8744	2223.756
491.0374	2146.734
491.2005	2150.421
491.3636	2200.325
491.5266	2247.512
491.6896	2213.266
491.8527	2078.979
492.0157	1961.378
492.1787	1948.202
492.3417	2026.748
492.5047	2115.461
492.6677	2183.542
492.8307	2233.142
492.9937	2273.036
493.1567	2270.577
493.3196	2220.427
493.4826	2172.352
493.6456	2143.509
493.8085	2101.32
493.9715	2102.508
494.1344	2153.286
494.2974	2246.303
494.4603	2281.741
494.6232	2273.728
494.7861	2289.875
494.949	2283.592
495.1119	2291.574
495.2748	2293.87
495.4377	2257.57
495.6006	2181.101
495.7635	2088.095
495.9264	2099.625
496.0892	2189.57
496.2521	2297.77
496.4149	2300.808
496.5778	2265.5
496.7407	2231.202
496.9035	2220.705
497.0663	2227.884
497.2291	2263.773
497.3919	2286.977
497.5547	2333.75
497.7176	2297.56
497.8804	2255.952
498.0432	2193.059
498.2059	2095.151
498.3687	2019.66
498.5315	2032.993
498.6942	2121.867
498.857	2236.048
499.0198	2263.239
499.1825	2242.048
499.3452	2236.396
499.508	2237.714
499.6707	2259.371
499.8334	2253.273
499.9962	2203.035
500.1589	2162.721
500.3216	2129.103
500.4843	2109.495
500.6469	2091.047
500.8096	2119.578
500.9723	2180.784
501.135	2189.985
501.2976	2137.329
501.4603	2103.816
501.623	2088.663
501.7856	2086.062
501.9482	2098.819
502.1109	2128.663
502.2735	2167.63
502.4361	2186.487
502.5987	2189.701
502.7614	2187.981
502.924	2216.639
503.0865	2258.643
503.2491	2289.991
503.4117	2289.421
503.5743	2231.933
503.7368	2163.102
503.8994	2094.709
504.062	2046.659
504.2245	2033.997
504.3871	2121.935
504.5496	2252.297
504.7121	2324.003
504.8746	2276.636
505.0372	2205.074
505.1997	2198.449
505.3622	2245.698
505.5247	2294.239
505.6872	2317.999
505.8497	2326.517
506.0121	2364.939
506.1746	2370.512
506.3371	2339.962
506.4995	2294.695
506.662	2243.418
506.8244	2235.307
506.9869	2247.039
507.1493	2245.627
507.3117	2238.289
507.4742	2246.808
507.6366	2239.222
507.799	2211.479
507.9614	2139.64
508.1238	2093.979
508.2862	2091.039
508.4485	2162.049
508.6109	2233.372
508.7733	2259.117
508.9357	2284.209
509.098	2296.677
509.2604	2307.021
509.4227	2309.226
509.5851	2264.661
509.7474	2181.738
509.9097	2120.754
510.072	2120.823
510.2343	2186.312
510.3966	2235.087
510.5589	2214.468
510.7212	2176.688
510.8835	2149.57
511.0458	2134.951
511.2081	2170.359
511.3703	2220.931
511.5326	2244.802
511.6949	2263.957
511.8571	2265.891
512.0193	2264.273
512.1816	2182.352
512.3438	2113.371
512.506	2079.807
512.6682	2070.014
512.8304	2075.498
512.9926	2106.335
513.1548	2122.407
513.317	2110.162
513.4792	2122.966
513.6414	2099.838
513.8035	2056.371
513.9657	2007.183
514.1279	1987.124
514.29	1988.018
514.4521	2028.311
514.6143	2043.994
514.7764	2056.801
514.9385	2037.729
515.1006	2066.323
515.2628	2071.931
515.4249	2062.632
515.587	2068.801
515.7491	2093.224
515.9111	2108.329
516.0732	2106.533
516.2353	2063.202
516.3973	1990.474
516.5594	1862.043
516.7214	1722.153
516.8835	1644.324
517.0455	1646.644
517.2076	1638.247
517.3696	1674.981
517.5316	1779.142
517.6937	1962.619
517.8557	2063.503
518.0176	2043.724
518.1796	1895.324
518.3416	1704.84
518.5036	1662.657
518.6656	1775.266
518.8275	1930.484
518.9895	2010.314
519.1514	1983.482
519.3134	1962.049
519.4753	1946.564
519.6373	1962.898
519.7992	2020.892
519.9611	2054.915
520.123	2084.22
520.2849	2067.827
520.4468	2041.52
520.6087	1990.929
520.7706	1957.647
520.9325	1988.82
521.0944	2046.661
521.2562	2108.727
521.4181	2117.289
521.58	2072.237
521.7418	2036.634
521.9036	2078.798
522.0655	2127.015
522.2273	2154.937
522.3891	2111.115
522.551	2011.037
522.7128	1940.523
522.8746	1948.178
523.0363	2006.829
523.1981	2050.298
523.3599	2025.078
523.5217	2031.156
523.6835	2080.333
523.8452	2136.614
524.007	2161.15
524.1687	2183.324
524.3304	2194.272
524.4922	2192.04
524.6539	2170.589
524.8157	2141.868
524.9774	2121.073
525.1391	2118.396
525.3008	2129.537
525.4625	2118.186
525.6241	2134.584
525.7858	2186.036
525.9475	2209.814
526.1092	2153.311
526.2709	2037.489
526.4325	1925.827
526.5942	1863.999
526.7558	1836.635
526.9174	1828.143
527.079	1848.258
527.2407	1902.142
527.4023	1987.123
527.5639	2032.518
527.7255	2076.136
527.8871	2135.99
528.0487	2138.989
528.2103	2093.375
528.3718	2061.717
528.5334	2095.95
528.695	2154.893
528.8565	2209.385
529.0181	2223.328
529.1796	2224.19
529.3412	2204.238
529.5027	2188.426
529.6642	2103.453
529.8257	2047.127
529.9872	2039.841
530.1487	2085.701
530.3102	2107.558
530.4717	2144.768
530.6332	2170.008
530.7947	2165.282
530.9562	2175.203
531.1176	2180.509
531.2791	2190.416
531.4405	2153.196
531.6019	2125.492
531.7634	2096.396
531.9248	2097.783
532.0862	2110.648
532.2477	2075.497
532.4091	2009.834
532.5704	1964.455
532.7319	1911.166
532.8932	1874.199
533.0546	1896.127
533.216	1990.365
533.3774	2053.92
533.5388	2088.344
533.7001	2089.169
533.8615	2039.527
534.0228	1993.28
534.1841	1962.864
534.3455	1987.785
534.5068	2015.24
534.6681	2014.883
534.8293	1998.97
534.9907	1992.212
535.152	2009.159
535.3132	2037.568
535.4745	2085.382
535.6358	2115.116
535.7971	2116.491
535.9583	2105.702
536.1196	2078.253
536.2808	2034.269
536.4421	1987.91
536.6033	1964.292
536.7645	1927.331
536.9258	1895.134
537.087	1866.857
537.2482	1852.664
537.4094	1907.079
537.5706	1981.568
537.7318	2013.524
537.8929	1989.799
538.0541	1985.973
538.2153	1961.677
538.3764	1942.938
538.5376	1958.652
538.6987	1974.72
538.8599	1971.634
539.021	1949.461
539.1821	1913.779
539.3432	1894.411
539.5043	1887.047
539.6655	1854.598
539.8265	1847.881
539.9876	1859.076
540.1487	1878.289
540.3098	1848.887
540.4708	1811.251
540.6319	1778.362
540.793	1778.611
540.954	1812.377
541.1151	1834.146
541.2761	1855.036
541.4371	1875.702
541.5981	1884.3
541.7592	1890.793
541.9202	1897.158
542.0812	1913.086
542.2422	1884.931
542.4031	1858.09
542.5641	1867.022
542.7251	1880.724
542.886	1884.351
543.0471	1869.452
543.208	1844.2
543.369	1859.135
543.5298	1861.25
543.6908	1851.143
543.8517	1900.805
544.0126	1943.897
544.1736	1962.965
544.3345	1932.534
544.4954	1876.425
544.6563	1843.36
544.8171	1830.05
544.978	1886.662
545.1389	1939.791
545.2997	1932.269
545.4606	1894.239
545.6215	1854.952
545.7823	1863.86
545.9432	1916.473
546.104	1915.513
546.2648	1888.275
546.4256	1871.124
546.5864	1861.707
546.7473	1893.702
546.908	1912.629
547.0688	1905.553
547.2296	1895.696
547.3904	1879.879
547.5511	1834.071
547.7119	1788.611
547.8727	1807.038
548.0334	1820.681
548.1942	1858.941
548.3549	1874.713
548.5156	1893.867
548.6763	1912.016
548.837	1882.278
548.9977	1882.158
549.1584	1892.469
549.3192	1898.441
549.4798	1894.128
549.6405	1887.835
549.8011	1885.737
549.9619	1886.009
550.1225	1872.271
550.2831	1866.374
550.4438	1853.996
550.6044	1844.38
550.765	1852.94
550.9257	1868.272
551.0863	1867.115
551.2469	1851.954
551.4075	1834.459
551.5681	1841.37
551.7287	1869.969
551.8893	1894.342
552.0498	1894.399
552.2104	1890.989
552.371	1878.761
552.5315	1852.557
552.6921	1803.368
552.8526	1775.797
553.0131	1783.279
553.1736	1823.901
553.3342	1837.87
553.4947	1821.795
553.6552	1821.834
553.8157	1834.79
553.9762	1836.684
554.1367	1829.222
554.2971	1815.068
554.4576	1823.664
554.618	1806.426
554.7785	1839.419
554.939	1849.89
555.0994	1847.955
555.2598	1844.55
555.4203	1820.18
555.5807	1787.431
555.7411	1788.253
555.9015	1788.062
556.0619	1786.856
556.2223	1777.497
556.3827	1752.13
556.5431	1730.195
556.7034	1729.397
556.8638	1717.724
557.0242	1703.214
557.1845	1718.388
557.3448	1698.404
557.5052	1699.01
557.6655	1719.429
557.8259	1728.144
557.9861	1739.183
558.1465	1734.16
558.3068	1726.394
558.467	1710.685
558.6274	1665.191
558.7877	1616.74
558.9479	1589.529
559.1082	1623.18
559.2684	1643.29
559.4287	1644.635
559.5889	1655.203
559.7491	1651.021
559.9094	1649.135
560.0696	1619.878
560.2299	1614.02
560.3901	1633.247
560.5502	1660.376
560.7104	1701.493
560.8707	1733.038
561.0308	1727.41
561.191	1712.946
561.3511	1686.244
561.5114	1626.697
561.6714	1599.191
561.8316	1596.744
561.9918	1637.692
562.1519	1662.808
562.312	1659.446
562.4722	1635.731
562.6323	1622.599
562.7924	1634.819
562.9525	1677.58
563.1125	1693.967
563.2726	1666.646
563.4327	1654.736
563.5928	1645.663
563.7528	1617.974
563.9129	1620.357
564.0729	1626.539
564.233	1616.846
564.393	1619.031
564.553	1616.747
564.7131	1622.746
564.873	1632.818
565.0331	1628.615
565.1931	1624.362
565.353	1615.239
565.5131	1589.02
565.673	1565.129
565.833	1544.623
565.9929	1539.712
566.1529	1539.924
566.3129	1550.499
566.4728	1560.639
566.6328	1594.053
566.7927	1591.265
566.9526	1604.028
567.1125	1607.568
567.2724	1611.445
567.4323	1606.195
567.5922	1627.961
567.7521	1618.619
567.9119	1599.393
568.0718	1596.377
568.2317	1562.601
568.3915	1561.523
568.5514	1545.803
568.7112	1538.861
568.871	1525.653
569.0309	1552.147
569.1907	1566.901
569.3505	1562.191
569.5103	1572.885
569.6701	1575.591
569.8299	1570.875
569.9897	1558.405
570.1495	1537.578
570.3092	1537.745
570.469	1534.887
570.6287	1525.728
570.7885	1497.02
570.9482	1450.644
571.108	1451.32
571.2677	1468.069
571.4274	1489.08
571.5871	1526.846
571.7468	1553.629
571.9066	1555.114
572.0662	1558.146
572.2259	1563.823
572.3856	1584.323
572.5452	1591.798
572.7049	1559.947
572.8646	1555.998
573.0242	1571.239
573.1838	1548.286
573.3435	1539.111
573.5031	1553.5
573.6627	1563.269
573.8223	1555.22
573.9819	1551.475
574.1415	1541.907
574.3011	1530.657
574.4607	1533.539
574.6203	1533.453
574.7798	1539.528
574.9394	1525.345
575.099	1504.384
575.2585	1474.962
575.418	1459.958
575.5776	1477.163
575.7371	1477.584
575.8966	1492.577
576.0562	1498.972
576.2156	1493.659
576.3751	1474.374
576.5346	1500.069
576.6941	1517.168
576.8536	1505.549
577.0131	1512.795
577.1725	1515.206
577.332	1511.714
577.4914	1503.405
577.6508	1486.831
577.8103	1469.677
577.9697	1474.319
578.1291	1455.95
578.2885	1420.263
578.4479	1409.956
578.6073	1423.94
578.7667	1437.864
578.9261	1439.56
579.0854	1444.165
579.2448	1444.146
579.4042	1440.153
579.5635	1439.195
579.7229	1432.834
579.8822	1444.743
580.0416	1456.37
580.2009	1462.735
580.3602	1453.573
580.5195	1438.113
580.6788	1426.113
580.8381	1420.365
580.9974	1435.066
581.1566	1446.695
581.3159	1431.899
581.4752	1413.452
581.6345	1427.41
581.7937	1421.586
581.9529	1430.368
582.1122	1418.646
582.2714	1410.905
582.4306	1426.718
582.5898	1422.015
582.749	1418.592
582.9082	1423.132
583.0674	1414.41
583.2266	1395.82
583.3857	1395.237
583.5449	1402.094
583.7041	1402.421
583.8633	1393.459
584.0224	1397.537
584.1815	1394.855
584.3407	1412.664
584.4998	1399.733
584.6589	1385.982
584.818	1363.974
584.9771	1364.453
585.1362	1363.444
585.2953	1362.941
585.4544	1351.543
585.6135	1319.744
585.7725	1308.103
585.9316	1310.492
586.0906	1324.635
586.2497	1328.992
586.4087	1335.537
586.5677	1328.121
586.7267	1331.935
586.8858	1323.917
587.0448	1342.135
587.2038	1335.404
587.3628	1324.142
587.5218	1336.821
587.6807	1308.856
587.8397	1304.335
587.9987	1296.668
588.1577	1290.91
588.3166	1284.529
588.4755	1269.257
588.6345	1244.099
588.7934	1209.034
588.9523	1158.023
589.1112	1124.176
589.2701	1116.487
589.429	1133.87
589.5879	1142.406
589.7468	1131.612
589.9056	1146.664
590.0645	1181.937
590.2234	1218.261
590.3822	1230.874
590.5411	1241.087
590.6999	1234.942
590.8588	1242.194
591.0176	1232.838
591.1764	1228.049
591.3352	1229.84
591.494	1211.932
591.6528	1208.089
591.8116	1209.678
591.9703	1210.816
592.1291	1204.225
592.2878	1208.848
592.4467	1215.717
592.6053	1205.072
592.7641	1212.499
592.9229	1207.989
593.0816	1198.587
593.2403	1203.427
593.399	1223.508
593.5577	1228.946
593.7164	1231.3
593.8751	1231.596
594.0338	1221.96
594.1924	1202.433
594.3511	1186.375
594.5098	1179.394
594.6684	1181.782
594.8271	1187.817
594.9857	1166.167
595.1443	1173.154
595.303	1204.953
595.4615	1200.645
595.6202	1195.03
595.7787	1190.789
595.9374	1190.623
596.0959	1200.111
596.2545	1212.362
596.4131	1222.687
596.5717	1192.747
596.7302	1195.008
596.8887	1192.844
597.0473	1197.418
597.2058	1214.044
597.3644	1200.948
597.5229	1187.864
597.6814	1190.752
597.8399	1177.317
597.9984	1177.072
598.1569	1188.624
598.3154	1190.606
598.4738	1197.638
598.6323	1182.57
598.7908	1173.944
598.9492	1187
599.1076	1198.948
599.2661	1210.438
599.4245	1206.79
599.5829	1192.405
599.7413	1189.984
599.8997	1185.777
600.0581	1185.286
600.2165	1182.254
600.3749	1179.862
600.5333	1175.589
600.6917	1160.332
600.85	1165.452
601.0084	1168.065
601.1667	1165.755
601.325	1182.731
601.4833	1196.329
601.6417	1164.324
601.8	1147.885
601.9583	1146.231
602.1166	1143.859
602.2749	1141.515
602.4332	1154.799
602.5914	1161.004
602.7498	1167.173
602.908	1180.128
603.0662	1183.704
603.2245	1190.261
603.3828	1193.158
603.541	1200.954
603.6992	1191.44
603.8574	1194.7
604.0156	1178.554
604.1738	1170.317
604.332	1185.234
604.4902	1180.519
604.6484	1189.473
604.8065	1186.427
604.9647	1183.315
605.1229	1172.411
605.281	1175.375
605.4391	1162.568
605.5973	1160.976
605.7554	1167.88
605.9135	1161.867
606.0717	1166.542
606.2297	1170.808
606.3878	1162.591
606.5459	1154.838
606.704	1156.786
606.8621	1174.972
607.0201	1186.335
607.1782	1185.161
607.3362	1185.893
607.4943	1180.58
607.6523	1171.245
607.8104	1168.756
607.9684	1148.06
608.1264	1143.466
608.2844	1126.146
608.4424	1118.44
608.6003	1119.37
608.7584	1116.676
608.9163	1116.869
609.0743	1124.627
609.2322	1112.96
609.3902	1114.845
609.5482	1107.837
609.7061	1110.435
609.864	1121.472
610.0219	1107.363
610.1798	1093.936
610.3377	1068.706
610.4956	1065.965
610.6535	1089.616
610.8114	1102.215
610.9693	1110.487
611.1271	1113.237
611.285	1102.331
611.4429	1108.472
611.6007	1102.465
611.7585	1096.546
611.9164	1101.743
612.0742	1083.219
612.232	1052.24
612.3898	1059.878
612.5476	1057.608
612.7054	1066.054
612.8632	1076.132
613.0209	1081.134
613.1787	1082.283
613.3365	1068.833
613.4942	1061.321
613.652	1040.921
613.8097	1016.401
613.9674	1014.323
614.1252	1027.206
614.2829	1040.396
614.4406	1043.636
614.5983	1042.988
614.756	1051.926
614.9136	1055.551
615.0714	1049.617
615.229	1051.146
615.3867	1036.32
615.5443	1021.242
615.702	1019.772
615.8596	1022.979
616.0172	1009.037
616.1748	973.8188
616.3325	959.0259
616.4901	969.3435
616.6476	990.7352
616.8052	993.2667
616.9628	988.2218
617.1204	990.1161
617.278	1013.376
617.4355	1012.589
617.5931	1006.417
617.7506	1011.815
617.9081	1011.555
618.0657	1027.236
618.2232	1019.553
618.3807	1022.652
618.5382	1019.92
618.6957	1027.01
618.8532	1014.194
619.0107	989.2468
619.1682	981.8857
619.3256	988.4284
619.4831	1005.738
619.6406	1022.173
619.798	1026.123
619.9554	1014.372
620.1129	1012.268
620.2703	1000.803
620.4277	1005.43
620.5851	1010.669
620.7425	1001.747
620.8998	1013.086
621.0573	1012.265
621.2146	997.051
621.372	984.9791
621.5294	966.0796
621.6867	970.6483
621.8441	975.0267
622.0013	978.8433
622.1587	979.0005
622.316	983.8155
622.4733	983.2821
622.6306	986.9404
622.7879	987.5204
622.9452	969.5559
623.1025	950.4097
623.2598	952.5976
623.4171	953.1879
623.5743	962.0228
623.7316	966.0367
623.8888	961.0391
624.046	951.317
624.2032	945.4774
624.3605	941.3984
624.5176	937.3813
624.6749	933.0051
624.8321	936.0125
624.9893	940.2416
625.1464	945.254
625.3036	933.955
625.4608	926.6346
625.6179	917.8646
625.7751	934.5257
625.9322	934.9318
626.0894	934.1378
626.2465	941.2692
626.4036	947.6685
626.5607	949.3771
626.7178	956.5477
626.8749	960.7147
627.032	951.6138
627.189	935.1705
627.3461	942.3406
627.5032	930.5796
627.6602	915.3666
627.8173	894.7231
627.9743	863.5074
628.1313	876.8706
628.2884	897.6047
628.4454	903.6501
628.6024	914.5679
628.7594	917.7116
628.9164	915.5826
629.0734	915.892
629.2303	914.038
629.3873	907.3554
629.5443	904.8365
629.7012	907.1465
629.8582	892.3328
630.0151	895.1555
630.172	876.9036
630.3289	881.1506
630.4858	899.4428
630.6428	907.3593
630.7996	920.5759
630.9565	920.7784
631.1134	908.0771
631.2703	907.0776
631.4272	905.884
631.584	882.2357
631.7408	869.9509
631.8977	858.488
632.0546	879.6042
632.2114	895.4868
632.3682	890.8165
632.525	892.4184
632.6818	901.4969
632.8386	896.0278
632.9954	901.5342
633.1522	915.7356
633.3089	910.2195
633.4657	885.8292
633.6224	871.8177
633.7792	868.4417
633.9359	878.9824
634.0927	883.2917
634.2494	885.4727
634.4061	891.427
634.5628	884.8154
634.7195	887.6407
634.8762	889.142
635.0329	893.9797
635.1895	896.3027
635.3462	902.0574
635.5029	890.766
635.6595	869.721
635.8162	864.2717
635.9728	851.6141
636.1295	848.8254
636.2861	858.5123
636.4427	865.0645
636.5992	879.9689
636.7559	877.795
636.9124	888.3488
637.069	880.4982
637.2256	871.6215
637.3821	888.4815
637.5387	887.3631
637.6953	884.2429
637.8518	878.5523
638.0084	864.7581
638.1649	870.0941
638.3214	874.0675
638.4779	877.7273
638.6344	871.0649
638.7909	865.5258
638.9474	876.4169
639.1038	876.6607
639.2603	858.7078
639.4167	852.6851
639.5732	840.7479
639.7297	842.2746
639.8861	831.0812
640.0425	822.9227
640.199	820.7495
640.3553	842.1075
640.5118	841.6977
640.6682	826.5173
640.8245	825.4354
640.981	814.9824
641.1373	817.2466
641.2936	836.3965
641.45	822.2478
641.6064	818.1915
641.7627	818.2562
641.9191	809.34
642.0754	805.6115
642.2317	812.1614
642.388	813.993
642.5443	807.8941
642.7006	825.1242
642.8569	831.0153
643.0131	826.6471
643.1694	811.7352
643.3257	793.3035
643.4819	802.0469
643.6382	818.5507
643.7944	797.4053
643.9506	796.9118
644.1069	794.7597
644.2631	803.8672
644.4193	803.8986
644.5754	805.3041
644.7316	803.5787
644.8878	795.7711
645.044	768.3551
645.2002	777.8701
645.3563	790.2271
645.5125	785.2902
645.6686	780.968
645.8248	774.6649
645.9809	766.0791
646.137	758.5422
646.2931	751.8627
646.4492	754.927
646.6053	750.4838
646.7614	765.1356
646.9174	764.222
647.0735	755.5322
647.2296	743.0886
647.3856	734.9688
647.5417	738.5452
647.6977	745.2143
647.8537	744.8606
648.0098	732.2346
648.1658	734.1804
648.3218	732.322
648.4777	731.2646
648.6337	739.6442
648.7897	751.199
648.9457	747.2698
649.1016	737.5358
649.2576	722.7919
649.4135	696.5681
649.5695	677.2706
649.7254	674.9439
649.8813	693.7996
650.0372	715.591
650.1932	732.3518
650.3491	745.9367
650.5049	744.6666
650.6608	746.6332
650.8167	749.739
650.9725	753.2009
651.1284	735.0417
651.2842	733.9902
651.4401	725.4827
651.5959	708.7986
651.7518	693.498
651.9076	708.3849
652.0634	712.3765
652.2192	716.3276
652.3749	720.8101
652.5308	723.7352
652.6865	732.8043
652.8423	738.9858
652.998	738.3204
653.1538	728.9893
653.3096	725.8183
653.4653	727.2197
653.621	717.0161
653.7767	728.3699
653.9324	720.4345
654.0881	718.1284
654.2438	713.8965
654.3995	707.9561
654.5552	700.4509
654.7109	692.2469
654.8665	703.9614
655.0222	698.9473
655.1778	691.2645
655.3334	686.1508
655.4891	671.7864
655.6447	674.6152
655.8003	659.6125
655.9559	629.022
656.1115	581.8008
656.2671	520.5876
656.4227	508.6736
656.5782	551.4212
656.7338	601.7034
656.8893	641.4329
657.0449	659.3276
657.2004	661.5284
657.356	670.3983
657.5115	670.4875
657.667	683.5684
657.8225	693.1895
657.978	700.3228
658.1335	703.9717
658.289	701.5212
658.4445	706.8446
658.5999	706.1991
658.7554	698.1431
658.9108	700.0878
659.0663	705.3371
659.2217	696.3748
659.3771	688.1592
659.5325	683.7334
659.6879	692.4106
659.8433	694.4988
659.9987	703.2852
660.1541	707.7607
660.3095	708.7639
660.4648	712.6225
660.6202	711.8275
660.7756	700.0811
660.9309	696.7386
661.0862	701.5468
661.2416	699.3692
661.3969	708.4916
661.5522	713.1472
661.7075	706.4839
661.8628	718.425
662.0181	720.631
662.1733	720.7982
662.3286	715.259
662.4839	707.9333
662.6391	708.0629
662.7944	710.8194
662.9496	709.9225
663.1048	701.3085
663.26	690.4497
663.4152	693.6001
663.5704	687.2689
663.7256	702.6828
663.8808	710.0004
664.036	711.7333
664.1912	704.3173
664.3463	691.9368
664.5015	690.3604
664.6566	695.5546
664.8118	697.0185
664.9669	707.4046
665.122	703.6742
665.2771	697.9323
665.4322	698.7079
665.5873	692.2778
665.7424	697.8196
665.8975	706.1365
666.0526	700.8215
666.2076	690.5897
666.3627	674.3856
666.5177	680.2538
666.6727	680.1486
666.8278	678.0269
666.9828	682.4108
667.1378	693.3196
667.2928	693.4377
667.4478	685.5797
667.6028	676.8896
667.7578	674.5154
667.9127	676.8074
668.0677	688.0938
668.2226	690.9946
668.3776	687.7534
668.5325	687.1677
668.6874	683.8596
668.8423	677.8987
668.9973	684.7011
669.1522	682.4688
669.3071	686.8706
669.4619	672.6113
669.6168	676.658
669.7717	663.1579
669.9265	665.6213
670.0814	669.6578
670.2362	662.3956
670.3911	664.3243
670.5459	671.6011
670.7007	669.2531
670.8555	669.6865
671.0103	660.6952
671.1651	662.9269
671.3199	666.4944
671.4747	655.9168
671.6295	653.4464
671.7842	644.5917
671.939	648.8195
672.0937	655.0502
672.2484	648.002
672.4031	656.8143
672.5579	652.8234
672.7126	645.1638
672.8673	654.3327
673.022	658.0485
673.1767	658.6323
673.3314	660.4112
673.486	660.3548
673.6407	653.3206
673.7953	649.0936
673.95	646.006
674.1046	648.235
674.2592	634.7007
674.4138	626.4985
674.5684	633.1841
674.723	636.4847
674.8776	629.5914
675.0322	633.259
675.1868	627.7711
675.3414	627.2779
675.4959	630.9735
675.6505	628.3735
675.805	616.413
675.9595	624.6719
676.1141	629.1981
676.2686	621.1883
676.4231	626.3437
676.5776	625.0507
676.7321	617.7992
676.8866	621.2923
677.041	619.6851
677.1955	603.8295
677.35	608.3043
677.5044	601.8256
677.6589	610.4592
677.8133	615.8439
677.9677	610.7504
678.1221	601.2285
678.2766	599.5852
678.4309	592.173
678.5853	603.9699
678.7397	595.778
678.8941	594.4464
679.0485	586.6736
679.2028	594.8248
679.3571	585.148
679.5115	582.1946
679.6658	585.992
679.8201	586.0634
679.9744	578.5171
680.1288	585.9808
680.2831	588.267
680.4373	576.1843
680.5916	570.4237
680.7459	569.1565
680.9001	582.3638
681.0544	583.9564
681.2087	569.1259
681.3629	564.609
681.5171	568.6196
681.6713	564.4329
681.8256	564.0318
681.9797	563.1134
682.134	563.9515
682.2881	562.9803
682.4423	563.3958
682.5965	566.1192
682.7507	557.9879
682.9048	550.6641
683.059	539.8493
683.2131	547.6353
683.3672	549.9858
683.5213	534.9312
683.6754	543.962
683.8295	534.4306
683.9836	523.114
684.1377	519.4818
684.2918	516.9734
684.4459	524.0078
684.5999	523.331
684.754	523.8598
684.908	534.8356
685.062	543.8766
685.2161	529.3578
685.3701	530.3828
685.5241	518.9028
685.6781	512.9919
685.8321	506.0599
685.9861	517.7989
686.14	518.183
686.294	513.3349
686.4479	500.8985
686.6019	472.1345
686.7559	427.77
686.9098	374.934
687.0637	347.3503
687.2176	337.9152
687.3715	347.5247
687.5254	356.4126
687.6793	377.253
687.8332	412.7531
687.9871	418.8233
688.1409	437.193
688.2947	451.9237
688.4486	451.7967
688.6024	442.7138
688.7563	439.2032
688.9101	410.6006
689.0639	422.2839
689.2177	417.7339
689.3715	421.0513
689.5253	420.6281
689.6791	418.6751
689.8328	427.9789
689.9866	427.2306
690.1403	426.5531
690.2941	425.8914
690.4478	430.2723
690.6015	439.7613
690.7552	442.9597
690.9089	444.2084
691.0626	438.1426
691.2164	441.4433
691.37	446.5385
691.5237	445.2591
691.6774	445.5757
691.831	442.1429
691.9847	445.8212
692.1383	451.1938
692.2919	437.1839
692.4456	439.5214
692.5992	447.0583
692.7527	435.5911
692.9064	432.3288
693.0599	439.8424
693.2136	437.1364
693.3671	444.8858
693.5207	439.4975
693.6742	445.6503
693.8278	439.6657
693.9813	422.1214
694.1348	422.3655
694.2883	421.8539
694.4418	427.0889
694.5953	428.4167
694.7488	429.9644
694.9023	438.4513
695.0558	438.6845
695.2093	434.0951
695.3627	429.0827
695.5162	427.2285
695.6696	424.8839
695.8231	430.0894
695.9764	428.1643
696.1299	428.7076
696.2833	431.4346
696.4367	439.04
696.5901	445.1285
696.7435	452.84
696.8968	452.8841
697.0502	446.4723
697.2036	453.1429
697.3569	449.2274
697.5102	452.9336
697.6635	441.9512
697.8168	435.4394
697.9702	439.8775
698.1235	423.6682
698.2768	435.312
698.4301	445.4539
698.5833	438.3058
698.7366	421.5288
698.8898	416.104
699.0431	423.7842
699.1964	424.9843
699.3495	422.8896
699.5028	430.117
699.656	431.3989
699.8092	423.0706
699.9624	420.0959
700.1156	418.3497
700.2688	420.2144
700.4219	415.1583
700.5751	415.1019
700.7283	413.3548
700.8814	409.3604
701.0345	428.3103
701.1877	422.6698
701.3408	419.5464
701.4939	416.5383
701.647	412.8704
701.8001	402.3919
701.9532	402.7314
702.1063	408.6955
702.2593	418.6643
702.4124	408.5864
702.5654	411.8722
702.7184	410.9349
702.8715	411.1496
703.0245	415.1341
703.1776	419.0602
703.3305	437.6248
703.4835	431.8288
703.6365	428.2743
703.7895	420.987
703.9424	415.0298
704.0954	406.8086
704.2484	424.4363
704.4013	440.5635
704.5543	434.9929
704.7072	430.7494
704.8601	433.7914
705.013	418.5224
705.1659	425.1623
705.3188	416.7158
705.4717	422.1889
705.6246	415.3385
705.7774	420.6548
705.9303	423.735
706.0831	423.0568
706.236	419.2465
706.3888	417.4034
706.5416	411.5854
706.6944	416.9553
706.8472	417.6993
707	428.1631
707.1528	423.6394
707.3056	418.2424
707.4583	426.3273
707.6111	431.6281
707.7639	429.5
707.9166	410.1036
708.0693	408.2094
708.222	419.3828
708.3748	418.5008
708.5275	419.0604
708.6802	412.9391
708.8328	413.5627
708.9855	413.5198
709.1382	406.682
709.2909	411.046
709.4435	423.3993
709.5962	413.8514
709.7488	414.1319
709.9014	410.7057
710.054	409.1774
710.2067	412.6434
710.3593	408.1855
710.5118	417.3362
710.6644	412.2991
710.817	412.4548
710.9695	407.1962
711.1221	403.6302
711.2747	400.0275
711.4272	407.752
711.5797	404.9944
711.7322	407.0117
711.8848	394.3452
712.0373	399.3925
712.1898	389.9459
712.3422	397.3277
712.4948	404.1178
712.6472	398.7127
712.7996	401.098
712.9521	391.2759
713.1046	392.7183
713.257	398.3733
713.4094	394.5479
713.5618	394.8462
713.7142	396.7411
713.8666	400.7145
714.019	393.0289
714.1714	397.1249
714.3237	393.2985
714.4761	392.5233
714.6285	382.6942
714.7808	373.2364
714.9331	373.0313
715.0854	377.0167
715.2378	371.1246
715.3901	374.3073
715.5424	368.7899
715.6947	382.2065
715.8469	382.6561
715.9992	369.5576
716.1515	365.938
716.3037	365.5984
716.456	358.772
716.6082	343.4406
716.7604	328.5387
716.9127	312.908
717.0649	308.9781
717.2171	306.0872
717.3693	294.682
717.5214	300.4602
717.6736	290.4818
717.8258	291.6031
717.978	291.7165
718.1301	300.6789
718.2822	290.1784
718.4344	281.0903
718.5865	265.1326
718.7386	265.5368
718.8907	273.8125
719.0428	285.2151
719.1949	285.6125
719.3469	274.0569
719.499	272.1566
719.6511	285.0045
719.8031	287.4537
719.9551	277.9738
720.1072	270.5296
720.2592	271.1213
720.4112	275.0809
720.5632	270.5257
720.7152	281.4129
720.8672	288.8026
721.0192	307.556
721.1711	322.5619
721.3231	332.6874
721.475	344.2568
721.627	332.8021
721.7789	330.0134
721.9308	332.9651
722.0828	336.2381
722.2347	338.6667
722.3866	338.1619
722.5385	330.5309
722.6903	326.748
722.8422	334.8153
722.9941	330.4186
723.1459	318.9117
723.2977	296.5063
723.4496	272.8212
723.6014	280.162
723.7532	297.6996
723.905	296.5764
724.0568	286.4374
724.2086	290.4124
724.3604	292.2941
724.5121	288.2046
724.6639	293.8854
724.8157	294.8353
724.9674	302.3818
725.1191	292.5335
725.2709	282.8744
725.4226	271.3683
725.5743	290.442
725.726	295.8246
725.8777	296.278
726.0294	295.0184
726.181	292.7213
726.3327	283.4747
726.4844	273.2637
726.636	286.7201
726.7877	296.5804
726.9393	309.1024
727.0909	308.2061
727.2425	300.114
727.3941	285.1464
727.5457	276.0912
727.6973	267.2386
727.8488	271.1439
728.0004	279.6822
728.1519	296.9486
728.3035	303.7354
728.455	312.2281
728.6066	312.1775
728.7581	301.2367
728.9095	281.2637
729.0611	271.3181
729.2126	273.7567
729.364	277.4449
729.5155	290.6483
729.667	307.2967
729.8184	303.6956
729.9698	305.4249
730.1213	298.9096
730.2727	282.5539
730.4241	274.5309
730.5756	277.5604
730.7269	285.7504
730.8784	291.4695
731.0297	282.4997
731.1811	280.379
731.3325	296.2529
731.4838	304.2547
731.6351	289.3343
731.7865	291.7451
731.9378	289.7827
732.0891	296.2034
732.2404	314.838
732.3917	318.3357
732.543	311.5132
732.6943	318.3458
732.8456	311.395
732.9968	309.4007
733.1481	316.0763
733.2993	312.4185
733.4506	318.219
733.6018	308.0284
733.753	321.196
733.9042	326.0612
734.0554	322.9876
734.2066	329.0628
734.3578	323.2285
734.509	316.0998
734.6602	322.7463
734.8113	319.432
734.9624	314.2032
735.1136	319.5402
735.2647	313.7162
735.4158	305.9716
735.5669	309.7977
735.718	314.076
735.8691	313.7698
736.0201	316.8837
736.1713	309.9262
736.3223	313.8735
736.4733	310.5336
736.6244	303.7506
736.7755	316.0822
736.9265	312.117
737.0775	307.2291
737.2285	309.3388
737.3795	312.4069
737.5305	323.5215
737.6815	326.583
737.8324	320.1507
737.9834	318.3616
738.1343	319.1891
738.2853	318.9523
738.4362	316.7289
738.5871	307.3986
738.738	294.7221
738.8889	288.8632
739.0399	296.0561
739.1907	299.7441
739.3416	304.1545
739.4925	307.3416
739.6433	304.2374
739.7942	307.7152
739.945	312.6671
740.0958	311.9336
740.2467	313.8982
740.3975	311.5237
740.5483	314.839
740.6991	305.2526
740.8499	306.5285
741.0007	306.5949
741.1514	306.4204
741.3022	309.6951
741.4529	301.7101
741.6036	304.7597
741.7544	303.7274
741.9051	311.3793
742.0558	303.8828
742.2065	301.1664
742.3572	297.8692
742.5079	295.2441
742.6586	299.3885
742.8093	301.3426
742.9599	305.242
743.1105	310.7312
743.2612	313.2633
743.4118	309.7283
743.5624	303.4755
743.7131	303.6715
743.8636	301.3619
744.0142	304.9909
744.1648	295.4483
744.3154	300.2079
744.4659	289.5528
744.6165	292.4392
744.767	294.9411
744.9176	293.3339
745.0681	300.5593
745.2186	295.8699
745.3691	299.6808
745.5197	300.9314
745.6702	299.9371
745.8206	305.7495
745.9711	301.0501
746.1215	297.4836
746.272	293.9469
746.4224	289.6742
746.5729	292.0903
746.7233	299.9474
746.8737	301.4924
747.0241	291.5204
747.1745	295.7007
747.3249	296.2871
747.4753	290.892
747.6257	289.381
747.776	293.5146
747.9264	293.8728
748.0767	282.8282
748.2271	290.0775
748.3774	291.4344
748.5276	290.572
748.678	287.2549
748.8282	286.265
748.9786	289.085
749.1288	289.6902
749.2791	280.3734
749.4294	274.4228
749.5796	275.6409
749.7299	274.5624
749.8801	280.39
750.0303	280.164
750.1805	281.1367
750.3307	281.7553
750.4809	284.4399
750.6311	282.4556
750.7813	280.1234
750.9314	265.5089
751.0816	273.8462
751.2318	268.3781
751.3818	268.6643
751.532	271.2202
751.6821	272.7216
751.8322	265.1345
751.9823	266.7842
752.1324	262.5016
752.2825	263.9616
752.4326	264.2493
752.5826	265.1807
752.7327	261.2916
752.8827	267.0492
753.0327	263.4659
753.1827	267.445
753.3328	262.5898
753.4828	256.6456
753.6328	266.1088
753.7828	259.7639
753.9327	264.9742
754.0827	263.4149
754.2327	259.7557
754.3826	255.1421
754.5325	262.7726
754.6825	258.9537
754.8324	256.4047
754.9823	260.1848
755.1322	255.0966
755.2821	257.1189
755.432	252.3146
755.5818	250.6408
755.7318	249.2863
755.8816	247.2443
756.0314	245.9541
756.1813	253.3745
756.3311	253.1523
756.4809	249.7195
756.6307	247.523
756.7805	247.4262
756.9303	249.0489
757.0801	240.7537
757.2299	243.4927
757.3796	245.0474
757.5294	243.5847
757.6791	243.0114
757.8289	246.3945
757.9786	245.5702
758.1283	242.1832
758.278	238.7982
758.4277	235.4005
758.5773	231.7463
758.7271	230.0656
758.8767	232.2226
759.0264	230.89
759.176	225.4855
759.3256	200.1124
759.4753	158.6118
759.6249	127.1282
759.7745	93.68899
759.9241	80.91085
760.0737	66.42928
760.2233	56.3841
760.3729	49.57467
760.5224	49.47066
760.6719	43.69282
760.8215	42.78321
760.971	49.96738
761.1205	63.39783
761.2701	76.88799
761.4196	85.82684
761.5691	97.51184
761.7186	127.3909
761.868	150.2084
762.0175	156.912
762.167	142.8277
762.3164	127.0031
762.4659	114.3122
762.6153	103.126
762.7647	102.8503
762.9141	97.57056
763.0635	91.2447
763.2129	89.39623
763.3623	96.89297
763.5117	100.2588
763.661	105.302
763.8104	107.8774
763.9597	111.2132
764.1091	111.7786
764.2584	118.5077
764.4077	115.6353
764.557	121.3146
764.7063	131.2183
764.8556	132.4144
765.0049	136.6493
765.1541	140.7314
765.3034	142.0786
765.4526	146.6102
765.6019	150.824
765.7511	153.3918
765.9003	159.7312
766.0496	149.1526
766.1987	155.7919
766.348	166.241
766.4971	170.5229
766.6463	165.2395
766.7955	179.4168
766.9446	179.1434
767.0938	174.5601
767.2429	177.8653
767.392	185.788
767.5411	192.8657
767.6902	193.0004
767.8394	181.5605
767.9884	183.1782
768.1375	189.393
768.2866	188.0148
768.4356	188.7966
768.5847	187.8848
768.7337	192.9468
768.8828	189.3003
769.0317	197.5059
769.1808	192.1415
769.3298	194.639
769.4788	191.246
769.6277	198.5321
769.7767	192.9544
769.9257	193.8885
770.0746	193.8036
770.2236	198.1831
770.3725	200.259
770.5214	193.9682
770.6703	197.2882
770.8193	196.6244
770.9681	188.4369
771.1171	187.0663
771.2659	186.6359
771.4148	192.4751
771.5637	191.0536
771.7125	184.0676
771.8613	185.2829
772.0101	190.935
772.159	190.019
772.3078	194.0333
772.4566	195.0628
772.6054	188.8063
772.7542	189.6636
772.903	184.6351
773.0517	189.9348
773.2004	185.7363
773.3492	188.1647
773.4979	183.5615
773.6467	184.9162
773.7953	190.3199
773.944	184.0941
774.0928	185.0034
774.2415	186.1996
774.3901	184.3058
774.5388	183.1769
774.6874	180.7389
774.8361	180.9048
774.9847	178.4877
775.1334	178.8155
775.282	179.6666
775.4305	182.8993
775.5792	186.8037
775.7277	187.4477
775.8763	187.545
776.0249	184.399
776.1735	183.8037
776.322	181.774
776.4705	184.2375
776.6191	181.5261
776.7676	179.865
776.9161	179.227
777.0646	176.8885
777.2131	178.0461
777.3616	175.5145
777.5101	182.8261
777.6585	183.2533
777.8069	184.6004
777.9554	181.0793
778.1038	178.1642
778.2523	173.5974
778.4007	178.0684
778.5491	178.257
778.6974	174.2699
778.8459	174.4567
778.9942	173.1355
779.1426	177.5877
779.291	182.8053
779.4393	173.2957
779.5876	171.9911
779.736	171.2079
779.8843	168.8113
780.0326	168.9702
780.1809	170.8004
780.3292	170.0365
780.4775	171.8989
780.6257	164.3393
780.774	168.8541
780.9222	171.9435
781.0704	171.1834
781.2187	167.3774
781.3669	171.7838
781.5151	166.2146
781.6633	169.865
781.8115	175.7367
781.9597	170.5636
782.1078	173.5287
782.256	161.1914
782.4042	166.3768
782.5523	172.8087
782.7004	167.2738
782.8486	173.2524
782.9967	171.9301
783.1448	170.6595
783.2929	167.1048
783.441	168.0071
783.5891	158.0184
783.7371	164.2733
783.8851	167.5303
784.0332	169.2363
784.1812	164.7201
784.3293	167.7703
784.4773	166.9824
784.6253	161.3475
784.7733	163.556
784.9213	165.8065
785.0692	160.2592
785.2172	162.0367
785.3652	163.1928
785.5131	162.4011
785.6611	162.6023
785.809	164.171
785.9569	161.6058
786.1048	158.2011
786.2527	156.7153
786.4006	155.8875
786.5485	157.43
786.6964	153.5085
786.8442	155.8862
786.9921	161.7037
787.1399	159.1946
787.2877	153.2425
787.4355	151.6111
787.5833	154.1518
787.7311	157.3631
787.8789	154.2558
788.0267	162.1905
788.1745	155.8127
788.3223	156.4427
788.47	149.0396
788.6177	144.7381
788.7654	151.6996
788.9132	158.9232
789.0609	160.2042
789.2086	151.6201
789.3563	148.0936
789.504	150.4265
789.6517	151.671
789.7993	154.4873
789.947	151.1171
790.0946	152.6314
790.2422	149.6427
790.3898	137.3602
790.5375	141.5922
790.6851	143.8557
790.8326	152.8635
790.9802	149.7402
791.1278	144.2456
791.2754	149.5238
791.423	141.4015
791.5705	138.5309
791.718	142.8968
791.8655	148.2779
792.0131	141.8049
792.1606	147.6732
792.308	146.6787
792.4556	144.1693
792.603	146.5727
792.7505	143.9453
792.8979	136.3355
793.0454	138.1437
793.1928	141.1124
793.3403	141.846
793.4877	145.8158
793.6351	145.7603
793.7825	144.0713
793.9299	147.4678
794.0772	141.9007
794.2246	141.6163
794.3719	141.5483
794.5193	139.6927
794.6666	142.9414
794.814	140.978
794.9613	148.028
795.1086	143.5795
795.2559	139.4618
795.4032	139.3002
795.5505	138.4843
795.6978	141.4731
795.845	132.5676
795.9922	132.473
796.1395	141.4269
796.2867	137.0991
796.4339	138.6572
796.5811	134.5022
796.7283	130.9508
796.8755	141.3428
797.0227	135.0222
797.1699	135.9295
797.317	137.4997
797.4642	139.1135
797.6113	143.0687
797.7584	137.1313
797.9056	134.0241
798.0527	132.505
798.1998	136.696
798.3469	133.1947
798.494	137.2958
798.641	134.6878
798.7881	134.4805
798.9351	137.5504
799.0822	137.5179
799.2292	130.231
799.3762	130.7289
799.5232	131.6474
799.6702	126.1441
799.8172	133.6427
799.9642	129.5336
800.1111	132.347
800.2581	125.8081
800.4051	129.4078
800.552	134.3266
800.6989	131.8405
800.8458	127.7941
800.9927	127.2314
801.1396	126.8975
801.2866	120.6507
801.4334	118.371
801.5803	126.2826
801.7272	126.2209
801.874	123.5016
802.0209	129.1209
802.1677	126.7887
802.3145	126.1548
802.4613	117.9663
802.6081	119.2785
802.7549	127.2807
802.9017	122.0127
803.0485	124.4161
803.1952	125.1027
803.342	119.9707
803.4887	120.9665
803.6354	125.4959
803.7822	131.3153
803.9289	130.646
804.0756	119.7073
804.2223	122.6028
804.369	123.5609
804.5156	120.2355
804.6623	115.8881
804.8089	112.1244
804.9556	112.5435
805.1022	119.5979
805.2488	122.8063
805.3954	113.5313
805.542	113.7177
805.6886	118.7223
805.8352	121.8332
805.9818	121.3844
806.1283	120.3697
806.2749	119.0324
806.4214	127.0171
806.5679	123.1036
806.7145	120.1871
806.861	116.3765
807.0074	115.5459
807.154	117.2748
807.3004	116.7667
807.4469	118.8087
807.5934	114.6137
807.7398	111.7524
807.8862	117.1796
808.0327	116.7645
808.1791	113.7475
808.3255	114.8027
808.4719	114.6642
808.6183	111.57
808.7647	108.3754
808.9111	109.041
809.0574	106.8742
809.2037	109.8468
809.3501	107.6439
809.4965	111.5911
809.6428	111.0806
809.7891	107.3799
809.9354	105.1062
810.0817	105.5335
810.2279	104.9306
810.3742	107.0426
810.5204	106.5186
810.6667	107.0141
810.8129	105.7105
810.9592	101.3372
811.1054	108.9759
811.2516	108.8966
811.3978	105.0868
811.5439	100.093
811.6901	98.26573
811.8363	101.7939
811.9825	103.0364
812.1286	105.2001
812.2748	100.5398
812.4209	99.04388
812.567	101.1386
812.7131	100.1382
812.8592	102.6813
813.0053	99.71722
813.1514	91.98763
813.2974	86.53129
813.4435	86.32066
813.5895	89.30531
813.7356	91.74942
813.8816	101.154
814.0276	92.82294
814.1736	91.63448
814.3196	90.01925
814.4656	90.59031
814.6116	90.88154
814.7576	85.8513
814.9035	86.15604
815.0494	88.16854
815.1954	84.98688
815.3413	79.86131
815.4872	81.85167
815.6331	78.27158
815.779	80.95269
815.9249	87.12759
816.0707	80.94598
816.2166	76.46227
816.3625	72.37243
816.5083	73.39036
816.6542	78.57794
816.8	78.5522
816.9458	74.96089
817.0916	78.40639
817.2374	83.88645
817.3832	89.82214
817.5289	87.4988
817.6747	81.05092
817.8204	75.18066
817.9662	65.96296
818.1119	71.5361
818.2576	82.06044
818.4034	76.63482
818.5491	72.74413
818.6948	78.28519
818.8405	85.16672
818.9861	82.34265
819.1318	78.4092
819.2774	72.9258
819.423	73.88601
819.5687	78.55532
819.7143	75.6899
819.8599	69.73306
820.0055	73.93105
820.1511	79.231
820.2967	82.53194
820.4422	85.93309
820.5878	89.45319
820.7333	91.10542
820.8788	93.25973
821.0244	88.53851
821.1699	85.26193
821.3154	79.88769
821.4609	80.7746
821.6064	85.36723
821.7519	81.44129
821.8973	79.89301
822.0428	79.65058
822.1882	82.45873
822.3337	71.54522
822.4791	73.02655
822.6245	68.1869
822.7699	59.64568
822.9153	58.44973
823.0607	56.30256
823.2061	55.05561
823.3514	59.27173
823.4968	71.56273
823.6422	74.51558
823.7875	76.3808
823.9328	79.64021
824.0781	83.7496
824.2234	75.62269
824.3687	76.35449
824.514	82.68749
824.6592	84.72784
824.8045	85.75549
824.9498	89.89586
825.095	86.83832
825.2402	83.68282
825.3854	80.77197
825.5306	81.38266
825.6758	75.32069
825.821	72.16202
825.9662	73.33562
826.1114	77.88906
826.2565	75.21113
826.4017	75.99617
826.5468	80.92778
826.692	77.45035
826.837	82.2241
826.9822	80.33255
827.1273	77.38789
827.2723	75.38569
827.4174	67.66699
827.5625	69.76374
827.7075	63.94055
827.8526	69.25114
827.9976	71.87099
828.1426	67.35744
828.2877	69.90624
828.4327	74.64877
828.5776	79.85029
828.7227	78.49014
828.8676	69.64606
829.0126	68.76532
829.1575	69.49894
829.3024	71.19793
829.4474	79.20764
829.5923	72.8435
829.7372	77.6379
829.8821	76.626
830.027	74.39468
830.1719	73.04558
830.3168	69.04635
830.4616	68.201
830.6064	65.63271
830.7513	71.78657
830.8961	78.32404
831.041	74.18172
831.1857	72.28545
831.3306	71.65734
831.4753	71.03511
831.6201	72.24168
831.7649	73.4276
831.9096	71.03889
832.0544	67.11562
832.1991	70.23505
832.3438	74.2187
832.4885	78.62313
832.6332	72.06204
832.778	68.727
832.9226	69.03226
833.0673	73.505
833.2119	66.18236
833.3566	65.64563
833.5012	67.03117
833.6459	70.62883
833.7905	72.72726
833.9351	71.61604
834.0797	63.84243
834.2243	66.25427
834.3688	73.4725
834.5134	71.71986
834.658	76.14692
834.8026	72.20783
834.9471	69.66203
835.0916	75.5078
835.2361	74.77644
835.3806	75.48309
835.5251	71.71048
835.6696	68.89645
835.8141	75.25278
835.9586	76.1651
836.103	76.03112
836.2474	74.53972
836.3918	73.29606
836.5363	75.74321
836.6807	72.31299
836.8251	74.27544
836.9695	73.53675
837.1138	72.60614
837.2582	74.14443
837.4026	71.9658
837.5469	73.86829
837.6913	72.15797
837.8356	70.63709
837.9799	70.23708
838.1242	74.06036
838.2686	74.27186
838.4128	69.62209
838.5571	64.77927
838.7014	68.3908
838.8456	69.47141
838.9899	71.56093
839.1341	73.86298
839.2783	73.13188
839.4225	72.2975
839.5667	70.50266
839.7109	73.28616
839.8551	73.55898
839.9993	72.33211
840.1434	77.8157
840.2876	71.71931
840.4317	69.55296
840.5759	71.31784
840.72	74.96305
840.8641	70.31507
841.0082	70.62373
841.1523	71.10165
841.2963	72.79399
841.4404	70.56505
841.5845	71.85855
841.7285	69.16055
841.8726	68.06725
842.0165	67.70975
842.1606	71.31557
842.3046	70.88444
842.4485	70.74413
842.5925	73.66453
842.7365	69.78632
842.8805	69.76263
843.0244	69.40867
843.1684	72.04549
843.3123	71.79623
843.4562	66.68171
843.6002	68.99019
843.744	67.51842
843.8879	67.92867
844.0318	68.73003
844.1757	62.08155
844.3195	64.70045
844.4634	69.65452
844.6072	76.65182
844.751	70.63747
844.8948	69.88032
845.0386	65.25115
845.1824	69.18124
845.3262	71.77632
845.47	63.67374
845.6138	71.03815
845.7575	68.79449
845.9012	67.69204
846.045	74.02166
846.1887	67.58956
846.3324	70.76847
846.4761	68.22822
846.6198	69.15811
846.7635	65.81925
846.9071	62.04853
847.0508	66.33516
847.1944	69.55801
847.3381	70.47939
847.4817	70.55659
847.6253	67.50081
847.7689	68.47592
847.9125	71.72993
848.0561	65.25246
848.1996	64.60838
848.3432	66.60242
848.4868	65.38152
848.6303	71.59036
848.7738	67.15641
848.9174	69.78709
849.0609	63.90158
849.2043	66.31742
849.3478	65.16717
849.4913	60.00319
849.6348	56.90767
849.7782	55.19208
849.9217	51.98281
850.0651	53.79429
850.2086	62.56955
850.3519	65.5782
850.4954	62.06443
850.6387	66.59077
850.7821	65.11214
850.9255	63.80339
851.0688	63.94182
851.2122	63.92375
851.3555	67.74893
851.4988	61.87902
851.6422	61.76899
851.7855	62.33434
851.9288	67.43485
852.0721	67.46176
852.2153	63.64698
852.3586	66.72495
852.5018	66.67216
852.6451	62.97617
852.7883	60.08113
852.9315	63.92773
853.0748	63.86277
853.218	62.90121
853.3611	66.97909
853.5043	62.68514
853.6475	57.04144
853.7906	56.43816
853.9338	49.80143
854.0769	45.66323
854.22	44.3613
854.3632	42.36659
854.5063	46.26191
854.6494	48.70388
854.7924	55.15137
854.9355	62.40033
855.0786	63.2196
855.2216	59.09782
855.3647	58.19526
855.5077	62.57113
855.6507	62.74759
855.7937	61.2351
855.9367	56.27865
856.0797	59.36083
856.2227	63.75026
856.3657	61.66563
856.5086	57.89846
856.6516	56.57707
856.7945	59.7094
856.9374	61.32516
857.0803	57.79803
857.2232	63.4199
857.3661	65.36052
857.509	57.636
857.6519	62.60413
857.7947	63.63592
857.9376	57.64223
858.0804	56.02521
858.2232	55.4231
858.366	57.90521
858.5089	57.68071
858.6516	60.60714
858.7944	62.51331
858.9372	65.25699
859.08	59.20073
859.2227	58.33249
859.3654	58.56108
859.5082	64.51537
859.6509	59.90525
859.7936	62.19049
859.9363	57.49489
860.079	55.59932
860.2217	56.45446
860.3643	57.35932
860.507	58.86312
860.6496	56.24849
860.7922	56.7712
860.9349	56.40622
861.0775	55.65461
861.2201	54.86893
861.3627	55.91298
861.5052	52.67454
861.6478	56.58713
861.7904	58.58461
861.9329	55.4063
862.0755	52.3089
862.218	49.7016
862.3605	58.29034
862.503	57.42346
862.6455	56.01998
862.788	55.89291
862.9305	58.17711
863.0729	53.83195
863.2154	53.63421
863.3578	54.08594
863.5002	53.34125
863.6426	56.21473
863.7851	58.36768
863.9275	55.25655
864.0698	53.15263
864.2122	53.24071
864.3546	56.75679
864.4969	54.4263
864.6393	56.78022
864.7816	56.78376
864.924	50.6266
865.0662	52.65271
865.2086	52.85943
865.3508	55.16396
865.4931	51.39365
865.6354	55.24975
865.7776	51.18136
865.9199	48.37453
866.0621	45.86137
866.2043	40.50529
866.3466	37.3337
866.4888	39.80994
866.6309	45.33882
866.7731	48.27042
866.9153	45.84025
867.0574	48.41217
867.1996	47.51472
867.3417	49.20764
867.4839	46.61788
867.626	51.66814
867.7681	56.24927
867.9102	54.47835
868.0522	50.27213
868.1943	46.33882
868.3364	49.34874
868.4785	47.02737
868.6205	49.63979
868.7625	47.96296
868.9045	54.1741
869.0465	48.17038
869.1885	47.18089
869.3305	48.16224
869.4725	46.35109
869.6144	48.61388
869.7564	46.33702
869.8983	50.96073
870.0403	48.5285
870.1822	49.79487
870.3241	46.78889
870.466	48.20239
870.6079	47.16692
870.7498	49.43403
870.8916	47.93842
871.0335	50.8226
871.1754	46.18723
871.3171	46.98272
871.459	47.46589
871.6008	50.09881
871.7426	49.97771
871.8844	42.77776
872.0262	48.37674
872.1679	51.19521
872.3097	51.89496
872.4514	42.72779
872.5931	47.58303
872.7349	50.9462
872.8766	47.7666
873.0183	50.24401
873.16	50.76921
873.3017	44.30533
873.4434	42.2992
873.585	47.5014
873.7266	52.36208
873.8683	49.54992
874.0099	48.89148
874.1516	43.36153
874.2932	44.45781
874.4348	48.52662
874.5763	41.45674
874.7179	44.95571
874.8594	50.89606
875.001	47.91445
875.1425	43.15261
875.2841	40.38452
875.4256	46.97875
875.5671	44.64232
875.7086	41.72566
875.85	42.98565
875.9915	49.19353
876.133	48.07426
876.2744	45.35557
876.4159	43.68844
876.5573	41.20551
876.6987	42.01899
876.8401	49.3097
876.9815	46.55531
877.1229	47.48158
877.2643	44.30003
877.4056	47.18194
877.547	42.2991
877.6884	43.75486
877.8297	43.41095
877.971	38.92288
878.1123	41.42073
878.2536	43.78749
878.3949	42.56806
878.5362	40.55703
878.6774	42.46585
878.8187	39.41689
878.9599	45.07245
879.1011	49.76403
879.2424	37.42059
879.3836	43.47565
879.5248	40.19613
879.666	39.7537
879.8071	44.36922
879.9483	45.7804
880.0895	47.42056
880.2306	40.85038
880.3718	35.00373
880.5129	35.26988
880.654	40.89594
880.7951	40.14141
880.9362	39.40999
881.0773	38.94065
881.2183	43.94493
881.3594	47.65008
881.5004	44.74538
881.6414	42.36645
881.7825	40.9203
881.9235	44.82156
882.0645	46.56263
882.2054	42.67572
882.3464	37.49104
882.4874	37.11345
882.6284	40.60606
882.7693	41.98235
882.9103	40.67202
883.0512	43.88467
883.1921	39.56047
883.333	41.52905
883.4739	42.56878
883.6147	37.27271
883.7556	40.11621
883.8965	39.47543
884.0374	39.09669
884.1782	36.21452
884.319	44.83424
884.4598	38.68602
884.6006	35.22959
884.7414	41.83017
884.8822	41.46138
885.0229	43.3716
885.1637	39.90665
885.3044	39.30945
885.4452	42.45926
885.5859	41.90399
885.7266	42.26576
885.8673	38.73301
886.008	39.83032
886.1487	41.2243
886.2894	41.81456
886.43	42.78419
886.5707	41.91014
886.7113	35.57681
886.8519	37.24447
886.9926	39.65888
887.1331	37.9948
887.2737	40.53281
887.4143	38.62202
887.5549	38.14056
887.6954	38.69977
887.836	36.01759
887.9765	37.15347
888.1171	36.32816
888.2576	37.35282
888.3981	33.93187
888.5386	35.49148
888.679	39.39905
888.8195	42.2781
888.96	35.86512
889.1004	38.43422
889.2408	38.60258
889.3813	37.9127
889.5217	37.75547
889.6621	32.48761
889.8025	36.51714
889.9429	38.18818
890.0833	36.55809
890.2236	32.3618
890.364	33.18918
890.5043	31.44909
890.6446	37.95661
890.7849	37.66677
890.9252	39.3843
891.0655	39.28089
891.2058	34.87269
891.3461	33.33044
891.4863	34.53436
891.6266	34.01691
891.7668	36.60888
891.907	35.16674
892.0472	40.35377
892.1874	35.85161
892.3276	31.67493
892.4678	36.64915
892.608	37.29515
892.7481	36.42914
892.8883	33.24192
893.0284	33.27267
893.1685	33.92542
893.3087	31.45163
893.4487	34.63408
893.5889	34.07484
893.7289	37.9841
893.869	37.35101
894.009	38.38837
894.1491	32.80461
894.2891	34.73111
894.4291	31.58254
894.5692	35.20333
894.7092	28.51134
894.8491	28.13409
894.9891	31.52781
895.1291	31.47264
895.269	30.68943
895.409	31.62814
895.549	28.09786
895.6888	30.58023
895.8288	34.9832
895.9687	31.33915
896.1086	24.21363
896.2484	28.11537
896.3883	26.73279
896.5281	27.84331
896.668	23.06123
896.8079	25.66457
896.9476	25.40562
897.0875	25.81204
897.2272	26.12026
897.3671	22.99801
897.5068	26.33858
897.6466	24.90424
897.7864	24.21293
897.9261	32.01252
898.0658	27.48201
898.2056	28.59691
898.3453	26.0465
898.4849	27.93934
898.6246	27.58223
898.7643	24.2552
898.904	20.52397
899.0436	16.51519
899.1833	14.91585
899.3229	20.88665
899.4625	28.37366
899.6021	30.8058
899.7417	30.92008
899.8813	25.65648
900.0209	27.94467
900.1605	23.90756
900.3	24.40411
900.4395	24.20135
900.579	23.88085
900.7186	22.72519
900.8581	18.78332
900.9976	24.44758
901.1371	25.67026
901.2766	30.30396
901.416	25.91985
901.5555	25.63667
901.6949	24.84751
901.8344	22.6112
901.9738	20.63739
902.1132	29.45515
902.2526	22.59776
902.3919	21.11217
902.5313	24.17124
902.6707	24.95395
