SPECTRUM DATA FILE
SpectrumCount:	1
PixelCount:	3648
UserName:	ToughBook User
SampleName:	
LightSource:	
Comments:	
DeviceName:	Qwave
DeviceManufacturer:	Broadcom
DeviceSerialNo:	11311

Name:	last spectrum
Date:	2024-05-02T15:03:11.0649634+02:00
ExposureTime:	0.02
TemporalAvg:	1
IntensityUnit:	normalizedCounts
CCDLoadLevel:	0.04694264
Temperature:	29.33926
DiagramColor:	200
ProcessingSteps:	335

Wavelength [nm]	Intensity1
334.421	6.16394
334.5891	10.82267
334.7573	11.18547
334.9254	10.98918
335.0935	9.731923
335.2616	11.07388
335.4297	12.18761
335.5978	9.169865
335.7659	16.4345
335.934	12.30985
336.1021	12.40391
336.2701	10.00235
336.4382	10.4341
336.6063	15.19243
336.7744	13.50852
336.9424	10.9324
337.1105	9.276786
337.2785	11.13492
337.4466	14.98668
337.6146	11.81395
337.7827	12.45686
337.9507	15.43561
338.1187	11.81945
338.2867	11.53543
338.4548	13.31661
338.6228	11.55532
338.7908	7.530775
338.9588	12.58988
339.1268	12.25985
339.2948	11.75193
339.4628	17.60714
339.6308	12.01551
339.7988	14.8799
339.9667	14.6197
340.1347	13.11863
340.3027	10.62308
340.4707	9.375731
340.6386	10.81228
340.8066	10.55499
340.9745	9.145231
341.1425	12.92511
341.3104	12.40853
341.4784	10.05755
341.6463	10.55401
341.8142	11.0648
341.9821	10.90101
342.1501	14.11455
342.318	9.72694
342.4859	11.44065
342.6538	11.52656
342.8217	11.16796
342.9896	15.50677
343.1575	15.85083
343.3254	15.62611
343.4933	10.40125
343.6612	7.912354
343.829	14.34169
343.9969	15.49346
344.1648	12.15808
344.3326	13.20721
344.5005	12.74962
344.6683	12.28698
344.8362	12.44846
345.004	14.92752
345.1719	7.149805
345.3397	10.67811
345.5075	13.81377
345.6754	15.40458
345.8432	11.46669
346.011	15.31378
346.1788	14.83243
346.3466	13.49549
346.5144	11.87565
346.6822	20.0718
346.85	12.98966
347.0178	16.39699
347.1856	11.86351
347.3534	10.29638
347.5211	12.47343
347.6889	16.7982
347.8567	15.28699
348.0244	13.24772
348.1922	14.49964
348.3599	15.63908
348.5277	11.22158
348.6954	12.59519
348.8632	12.58608
349.0309	11.82556
349.1986	9.435296
349.3663	10.64058
349.5341	10.16819
349.7018	11.74399
349.8695	9.861087
350.0372	11.96595
350.2049	12.34703
350.3726	13.65857
350.5403	14.56129
350.7079	13.65695
350.8756	16.9852
351.0433	17.47982
351.211	12.06013
351.3786	13.43723
351.5463	22.29149
351.714	16.28433
351.8816	16.26074
352.0493	16.94474
352.2169	13.727
352.3846	13.86613
352.5522	11.00122
352.7198	13.49334
352.8875	21.2107
353.0551	15.33194
353.2227	13.04917
353.3903	15.30269
353.5579	11.05931
353.7255	15.32795
353.8931	17.671
354.0607	18.72184
354.2283	11.44945
354.3958	17.01081
354.5634	17.93074
354.731	19.21565
354.8986	18.75652
355.0661	12.61774
355.2337	18.09418
355.4012	15.56289
355.5688	17.7244
355.7363	14.61831
355.9039	15.70876
356.0714	18.4307
356.239	18.95131
356.4065	14.7852
356.574	9.430283
356.7415	14.20282
356.909	12.0481
357.0765	15.74434
357.244	18.26219
357.4115	17.43609
357.579	14.57081
357.7465	13.73486
357.914	13.27475
358.0815	15.49135
358.249	11.64345
358.4164	16.08952
358.5839	13.44345
358.7513	12.3497
358.9188	13.60648
359.0862	14.16757
359.2537	12.72315
359.4211	15.45036
359.5886	15.75067
359.756	20.12152
359.9234	17.11014
360.0909	18.23384
360.2583	20.35177
360.4257	18.12238
360.5931	15.18259
360.7605	14.19577
360.9279	16.76037
361.0953	14.20683
361.2627	16.19424
361.4301	18.65525
361.5974	18.39086
361.7648	17.89861
361.9322	15.5256
362.0995	12.85392
362.2669	16.13248
362.4343	16.92497
362.6016	17.43807
362.769	19.4957
362.9363	18.48036
363.1036	14.71948
363.271	12.80138
363.4383	13.91142
363.6056	22.21915
363.7729	18.49961
363.9402	21.90137
364.1075	22.23749
364.2748	17.1034
364.4421	21.14193
364.6094	15.85979
364.7767	13.97334
364.944	19.56155
365.1113	16.31599
365.2786	18.69204
365.4458	20.57916
365.6131	20.98162
365.7803	20.76838
365.9476	25.75464
366.1148	21.27277
366.2821	19.58506
366.4493	19.75985
366.6166	19.70186
366.7838	17.63404
366.951	19.93954
367.1182	24.56483
367.2855	22.40534
367.4527	17.29436
367.6199	18.03474
367.7871	22.31018
367.9543	22.22621
368.1215	19.68102
368.2886	17.16775
368.4558	21.69656
368.623	21.32537
368.7902	19.1967
368.9573	17.63131
369.1245	19.56782
369.2917	24.20585
369.4588	26.08363
369.6259	23.13706
369.7931	25.04467
369.9602	24.53322
370.1274	22.63855
370.2945	20.89891
370.4616	19.21612
370.6287	21.54539
370.7958	17.70611
370.963	19.61115
371.1301	17.77956
371.2971	21.90722
371.4643	22.34548
371.6313	24.18183
371.7984	21.23551
371.9655	22.6304
372.1326	22.72265
372.2997	22.99479
372.4667	23.09732
372.6338	24.31846
372.8008	23.08259
372.9679	22.25826
373.1349	20.01638
373.3019	16.70381
373.469	16.7554
373.636	20.86426
373.803	21.85338
373.9701	24.48557
374.1371	21.4674
374.3041	19.05498
374.4711	20.85317
374.6381	17.7459
374.8051	15.89024
374.9721	17.97131
375.1391	16.8046
375.3061	22.95815
375.473	30.30999
375.64	33.66893
375.8069	22.14273
375.9739	23.20349
376.1409	27.63561
376.3078	24.92005
376.4748	23.18494
376.6417	28.93416
376.8087	26.17346
376.9756	26.22807
377.1425	26.02657
377.3094	27.31547
377.4763	26.69736
377.6432	29.00839
377.8102	27.27965
377.9771	27.88511
378.144	33.00611
378.3109	26.31877
378.4777	27.17202
378.6446	26.49789
378.8115	20.18708
378.9784	23.99044
379.1452	26.2691
379.3121	21.78349
379.4789	22.70983
379.6458	18.23471
379.8127	19.41471
379.9795	21.62552
380.1463	26.99818
380.3131	31.59485
380.48	32.51178
380.6468	24.99391
380.8136	25.11858
380.9804	25.95566
381.1472	24.28552
381.314	26.2156
381.4808	29.64508
381.6476	23.15727
381.8144	25.28113
381.9812	24.81128
382.148	24.12951
382.3147	23.34874
382.4815	19.17588
382.6483	20.34975
382.815	19.64589
382.9818	21.00025
383.1485	25.68607
383.3153	21.93091
383.482	17.86655
383.6487	19.50878
383.8155	20.56376
383.9822	23.13342
384.1489	23.57398
384.3156	25.61992
384.4823	26.91267
384.649	29.50594
384.8157	35.47325
384.9824	33.27529
385.1491	27.65641
385.3158	29.51538
385.4825	28.8465
385.6491	20.14741
385.8158	24.14127
385.9825	29.48172
386.1491	28.58337
386.3157	30.32013
386.4824	31.28747
386.649	27.54996
386.8157	30.67767
386.9823	28.38004
387.1489	23.24699
387.3156	28.42841
387.4821	31.12751
387.6488	29.89122
387.8154	30.71674
387.982	29.25806
388.1486	32.10369
388.3152	29.89943
388.4818	30.09862
388.6483	28.15195
388.8149	28.4583
388.9815	31.20478
389.148	29.26371
389.3146	33.59999
389.4811	32.85436
389.6477	30.27389
389.8142	36.40331
389.9808	37.97093
390.1473	31.26241
390.3138	33.42267
390.4804	30.99059
390.6469	29.70361
390.8134	33.41447
390.9799	34.3078
391.1464	35.30076
391.3129	30.77536
391.4794	32.17813
391.6459	36.46487
391.8124	39.8771
391.9789	36.2609
392.1453	30.5393
392.3118	30.55364
392.4782	29.16246
392.6447	22.19193
392.8112	21.21286
392.9776	23.12045
393.144	24.60363
393.3105	16.72584
393.4769	24.14811
393.6433	20.41051
393.8098	25.19981
393.9762	27.2905
394.1426	28.88041
394.309	35.48798
394.4754	34.7041
394.6418	37.36676
394.8082	34.35075
394.9746	37.29679
395.141	39.66805
395.3073	41.06477
395.4737	38.47797
395.64	40.79641
395.8064	42.17919
395.9728	40.90807
396.1391	40.26983
396.3055	28.63676
396.4718	31.10011
396.6381	27.57727
396.8045	20.10011
396.9708	22.93799
397.1371	26.73848
397.3034	30.95429
397.4697	35.69205
397.636	37.04811
397.8023	45.11817
397.9686	47.19283
398.1349	43.87149
398.3012	45.63081
398.4675	43.12361
398.6337	45.448
398.8	48.81382
398.9662	47.55326
399.1325	49.1907
399.2988	48.42522
399.465	41.80934
399.6313	41.53801
399.7975	42.49727
399.9637	49.83195
400.1299	52.10343
400.2961	54.77981
400.4624	56.06091
400.6286	52.20422
400.7948	48.53753
400.961	47.35399
401.1272	46.90467
401.2934	55.52558
401.4595	50.48553
401.6257	53.66674
401.7919	52.27198
401.9581	53.82367
402.1242	51.79468
402.2904	55.79564
402.4565	58.80981
402.6227	56.22327
402.7888	56.53048
402.955	47.92949
403.1211	52.79484
403.2872	51.52458
403.4533	49.56591
403.6194	54.9732
403.7856	55.50126
403.9517	55.32481
404.1177	59.13899
404.2838	54.89735
404.4499	46.00563
404.616	45.99477
404.7821	47.46859
404.9482	50.54558
405.1142	53.77443
405.2803	58.38527
405.4464	58.16571
405.6124	48.13079
405.7784	51.80853
405.9445	51.46334
406.1105	53.6725
406.2766	52.67262
406.4426	53.43983
406.6086	52.44769
406.7746	52.96846
406.9406	57.28325
407.1066	60.82148
407.2726	55.40238
407.4386	57.02547
407.6046	55.76939
407.7706	49.05677
407.9366	55.62501
408.1025	57.51526
408.2685	59.89121
408.4344	62.81699
408.6004	62.47942
408.7664	63.17038
408.9323	61.92433
409.0983	61.51781
409.2642	66.31197
409.4301	66.91132
409.596	65.89077
409.762	62.56747
409.9279	53.84616
410.0938	54.96291
410.2597	56.75341
410.4256	55.40177
410.5915	61.0717
410.7574	69.47063
410.9232	64.43731
411.0891	62.30654
411.255	67.67452
411.4209	64.71077
411.5867	62.90081
411.7526	72.67949
411.9184	71.00187
412.0843	64.89169
412.2501	59.7527
412.4159	69.72418
412.5818	64.34395
412.7476	63.80785
412.9134	67.59394
413.0792	60.76802
413.245	59.11698
413.4108	58.84519
413.5766	63.54895
413.7424	65.41841
413.9082	67.44685
414.074	69.64118
414.2397	65.51907
414.4055	64.32169
414.5713	64.76423
414.737	63.41449
414.9028	64.62787
415.0685	70.25383
415.2343	68.93235
415.4	70.07629
415.5658	68.40483
415.7315	63.71659
415.8972	69.88437
416.0629	76.46437
416.2286	74.99711
416.3943	73.184
416.56	72.99721
416.7257	67.45813
416.8914	71.73306
417.0571	66.5698
417.2228	65.99806
417.3884	63.29329
417.5541	63.68683
417.7198	68.70984
417.8854	69.73608
418.0511	69.31973
418.2167	65.38548
418.3824	73.51492
418.548	76.53977
418.7136	75.60068
418.8792	71.17706
419.0449	70.23913
419.2105	73.88289
419.3761	68.11835
419.5417	69.40307
419.7073	68.37718
419.8729	72.78056
420.0385	69.75904
420.204	70.54218
420.3696	71.38609
420.5352	74.75987
420.7007	77.68418
420.8663	80.75677
421.0319	79.29034
421.1974	84.4716
421.3629	78.77386
421.5285	75.44842
421.694	73.5942
421.8595	81.66753
422.0251	83.81361
422.1906	83.13228
422.3561	85.00865
422.5216	71.41525
422.6871	64.91329
422.8526	71.92599
423.0181	78.58685
423.1835	77.87167
423.349	74.31881
423.5145	76.08598
423.68	77.96801
423.8454	74.57997
424.0109	79.23438
424.1763	83.06577
424.3418	84.3074
424.5072	80.63079
424.6726	81.92879
424.838	78.89813
425.0035	79.31281
425.1689	80.95609
425.3343	79.78642
425.4997	80.87229
425.6651	84.14698
425.8305	81.68145
425.9959	82.41388
426.1613	76.68012
426.3267	82.77481
426.492	84.67982
426.6574	89.37373
426.8228	86.85339
426.9881	82.90499
427.1534	78.09114
427.3188	76.77534
427.4841	73.47021
427.6495	82.31647
427.8148	85.15091
427.9801	83.84808
428.1454	84.70255
428.3107	83.93707
428.476	80.47018
428.6414	77.10181
428.8066	73.20583
428.9719	82.47514
429.1372	80.19813
429.3025	81.43504
429.4678	78.85303
429.633	75.41335
429.7983	68.60029
429.9636	62.30127
430.1288	60.5921
430.294	60.18624
430.4593	62.52256
430.6245	63.2463
430.7897	67.19611
430.955	65.03066
431.1202	63.2417
431.2854	70.97446
431.4506	79.39246
431.6158	87.33503
431.781	89.83615
431.9462	97.38172
432.1114	91.72758
432.2766	86.30863
432.4417	77.32724
432.6069	77.08548
432.772	80.95056
432.9372	96.16521
433.1024	97.30758
433.2675	99.79086
433.4326	98.18225
433.5977	93.65298
433.7629	84.48746
433.928	76.132
434.0931	71.51934
434.2582	77.51065
434.4233	86.59724
434.5884	94.44324
434.7535	94.57288
434.9186	101.3756
435.0837	98.14096
435.2488	93.09572
435.4138	86.31107
435.5789	93.39182
435.744	103.0856
435.909	101.5598
436.0741	104.292
436.2391	101.5215
436.4042	108.3641
436.5692	106.2007
436.7342	106.0308
436.8992	105.463
437.0643	100.6478
437.2293	99.12197
437.3943	99.26279
437.5593	101.8436
437.7243	94.19236
437.8893	101.1013
438.0542	101.0277
438.2192	93.4231
438.3842	90.04231
438.5491	93.07059
438.7141	98.75372
438.8791	100.8366
439.044	101.1906
439.209	102.8778
439.3739	109.0617
439.5388	103.4063
439.7037	105.5708
439.8687	107.4126
440.0336	103.3374
440.1985	105.9413
440.3634	100.6744
440.5283	99.04085
440.6932	103.5183
440.8581	106.4701
441.0229	113.6871
441.1878	115.5294
441.3527	108.2988
441.5175	114.7742
441.6824	116.7596
441.8472	116.9627
442.0121	114.9429
442.1769	118.4366
442.3418	116.4262
442.5066	117.9607
442.6714	116.8949
442.8362	121.9863
443.001	114.8912
443.1659	121.9064
443.3307	114.3477
443.4955	110.7564
443.6602	124.6644
443.825	120.9723
443.9898	122.9292
444.1546	118.0714
444.3193	118.7524
444.4841	121.4518
444.6488	116.4887
444.8136	123.6198
444.9783	119.149
445.1431	126.7591
445.3078	118.9886
445.4725	110.382
445.6372	111.5507
445.802	108.3712
445.9667	108.7037
446.1314	113.2479
446.2961	113.4569
446.4608	121.2366
446.6255	124.3247
446.7901	129.306
446.9548	122.837
447.1195	123.4412
447.2841	119.9807
447.4488	125.0031
447.6134	135.0326
447.7781	134.1077
447.9427	127.4739
448.1074	121.996
448.272	121.1836
448.4366	123.3797
448.6012	130.4865
448.7658	132.5068
448.9305	130.5401
449.095	129.9321
449.2596	127.6484
449.4242	126.6984
449.5888	129.3723
449.7534	129.1832
449.9179	135.8957
450.0825	137.4776
450.2471	138.149
450.4116	139.0408
450.5762	144.9829
450.7407	141.6555
450.9052	138.1898
451.0698	139.4249
451.2343	140.8857
451.3988	138.4981
451.5633	135.0477
451.7278	141.0221
451.8923	140.1763
452.0568	137.6756
452.2213	140.9908
452.3858	143.5522
452.5503	131.8783
452.7148	125.3147
452.8792	121.3589
453.0437	121.0504
453.2081	128.109
453.3726	130.0025
453.537	132.1598
453.7015	136.2031
453.8659	140.7183
454.0303	144.9261
454.1947	144.2245
454.3592	139.4165
454.5236	137.8426
454.688	137.8775
454.8524	133.4665
455.0168	126.9994
455.1811	136.0536
455.3455	136.6503
455.5099	138.5641
455.6743	140.0411
455.8386	144.5612
456.003	152.4569
456.1673	148.5592
456.3317	146.4287
456.496	140.3003
456.6603	146.7969
456.8246	144.8347
456.989	146.1966
457.1533	147.2428
457.3176	142.098
457.4819	149.2201
457.6462	149.8026
457.8105	152.7094
457.9748	148.5142
458.1391	142.1695
458.3033	136.3409
458.4676	140.1577
458.6319	143.7291
458.7961	143.1282
458.9604	145.885
459.1246	143.4343
459.2888	142.74
459.4531	139.5725
459.6173	138.2285
459.7815	137.1019
459.9457	143.9556
460.11	146.6708
460.2741	146.8632
460.4384	149.2781
460.6025	143.4908
460.7667	150.2555
460.9309	148.7241
461.0951	148.5794
461.2592	147.7877
461.4234	150.1072
461.5876	151.5635
461.7517	146.5892
461.9159	152.7337
462.08	153.7092
462.2441	151.2592
462.4082	157.2245
462.5724	160.1626
462.7365	157.9201
462.9006	156.7191
463.0647	151.4354
463.2288	148.8182
463.3929	153.1103
463.557	153.7137
463.721	148.8766
463.8851	149.2321
464.0492	150.8217
464.2132	151.2977
464.3773	149.4168
464.5414	145.9978
464.7054	139.8971
464.8694	143.0681
465.0334	146.6696
465.1975	146.8761
465.3615	156.5352
465.5255	155.7702
465.6895	150.3207
465.8535	147.066
466.0175	157.62
466.1815	158.3139
466.3455	148.0723
466.5095	144.2068
466.6734	148.3456
466.8374	146.5106
467.0014	147.5
467.1653	152.3048
467.3293	155.8526
467.4932	151.9337
467.6571	153.3048
467.8211	157.3778
467.985	154.7008
468.1489	149.2729
468.3128	159.5018
468.4767	158.5597
468.6406	154.814
468.8045	152.8857
468.9684	150.4118
469.1323	157.6341
469.2962	163.4966
469.46	161.623
469.6239	158.4504
469.7878	155.1803
469.9516	157.5954
470.1154	153.1176
470.2793	147.9706
470.4431	148.5721
470.607	147.8158
470.7708	155.7876
470.9346	157.4668
471.0984	159.7785
471.2622	158.362
471.426	157.248
471.5898	165.4626
471.7536	166.1058
471.9174	167.4478
472.0811	172.3344
472.2449	168.4871
472.4087	169.1259
472.5724	163.7603
472.7362	152.9994
472.8999	153.8122
473.0637	151.6639
473.2274	152.7375
473.3911	151.9056
473.5548	155.6604
473.7185	154.7729
473.8822	158.3357
474.0459	167.6023
474.2096	165.6126
474.3733	163.751
474.537	163.2851
474.7007	164.229
474.8643	163.6812
475.028	166.9229
475.1917	164.9418
475.3553	158.7807
475.519	161.7823
475.6826	159.1731
475.8463	167.7695
476.0099	166.6232
476.1735	160.7716
476.3371	159.7947
476.5007	153.5556
476.6643	157.0553
476.8279	159.7258
476.9915	157.7342
477.1551	164.7641
477.3187	158.0071
477.4823	165.039
477.6458	166.9194
477.8094	172.874
477.9729	170.8156
478.1365	169.3214
478.3	166.8087
478.4636	160.2699
478.6271	161.9484
478.7906	164.5022
478.9541	166.0159
479.1176	170.0674
479.2812	168.45
479.4447	171.9333
479.6082	166.3287
479.7716	167.6785
479.9351	174.5596
480.0986	173.6012
480.2621	172.6249
480.4255	170.5293
480.589	157.9791
480.7524	164.4578
480.9159	168.7076
481.0793	167.5528
481.2428	169.988
481.4062	170.3663
481.5696	165.5824
481.733	168.5095
481.8964	176.4515
482.0598	174.2773
482.2232	171.8382
482.3866	172.9332
482.55	170.8596
482.7134	174.4938
482.8768	174.318
483.0401	175.9593
483.2035	169.9009
483.3668	168.0859
483.5302	167.7822
483.6935	163.6751
483.8568	168.2871
484.0202	166.7701
484.1835	162.5919
484.3468	166.6758
484.5101	168.9248
484.6734	169.2652
484.8367	171.1878
485	169.3812
485.1633	168.0374
485.3266	163.2937
485.4899	157.1272
485.6531	157.4073
485.8164	153.7981
485.9796	143.3182
486.1429	131.6711
486.3061	127.3586
486.4694	141.4596
486.6326	152.3811
486.7958	164.3805
486.959	158.4904
487.1223	150.2293
487.2855	151.532
487.4486	160.7207
487.6118	162.8499
487.775	162.8311
487.9382	171.5836
488.1014	171.3611
488.2646	166.8091
488.4277	174.3622
488.5909	166.8775
488.754	171.0819
488.9171	164.9565
489.0803	160.5937
489.2434	158.4007
489.4066	168.0362
489.5697	186.4066
489.7328	181.2934
489.8959	178.1833
490.059	181.6146
490.2221	182.2477
490.3852	176.2697
490.5482	181.9603
490.7113	178.9364
490.8744	179.1737
491.0374	169.8484
491.2005	175.8575
491.3636	175.5343
491.5266	173.3808
491.6896	165.5554
491.8527	167.0418
492.0157	156.8615
492.1787	163.1751
492.3417	167.5257
492.5047	172.6682
492.6677	173.8383
492.8307	181.5301
492.9937	182.4018
493.1567	178.0071
493.3196	179.1744
493.4826	172.5022
493.6456	179.9049
493.8085	177.828
493.9715	168.8002
494.1344	174.6468
494.2974	169.6633
494.4603	180.3881
494.6232	180.4531
494.7861	186.7435
494.949	193.2764
495.1119	188.2221
495.2748	183.6354
495.4377	184.9956
495.6006	172.7475
495.7635	170.3219
495.9264	169.1107
496.0892	174.7178
496.2521	182.3251
496.4149	178.3972
496.5778	176.8242
496.7407	183.6592
496.9035	181.0792
497.0663	173.5454
497.2291	180.3052
497.3919	182.8806
497.5547	188.9122
497.7176	188.2687
497.8804	185.9601
498.0432	185.0953
498.2059	172.3811
498.3687	168.0391
498.5315	174.8407
498.6942	178.9713
498.857	182.0825
499.0198	185.9135
499.1825	181.8404
499.3452	182.6944
499.508	184.3466
499.6707	185.8906
499.8334	180.6421
499.9962	186.4188
500.1589	181.4302
500.3216	173.3311
500.4843	173.1722
500.6469	174.6574
500.8096	180.3497
500.9723	180.679
501.135	175.1569
501.2976	174.4014
501.4603	172.8373
501.623	172.3257
501.7856	175.4662
501.9482	177.0632
502.1109	177.231
502.2735	176.2284
502.4361	180.5576
502.5987	186.2769
502.7614	180.0535
502.924	190.2914
503.0865	194.5791
503.2491	199.5525
503.4117	193.0868
503.5743	184.7953
503.7368	184.162
503.8994	180.479
504.062	173.2716
504.2245	181.1136
504.3871	176.4193
504.5496	187.2163
504.7121	199.5842
504.8746	191.0307
505.0372	186.3009
505.1997	189.3291
505.3622	194.6359
505.5247	196.5923
505.6872	197.0561
505.8497	197.7959
506.0121	202.0479
506.1746	201.4085
506.3371	199.4397
506.4995	185.502
506.662	191.7735
506.8244	193.4844
506.9869	191.1736
507.1493	191.5366
507.3117	193.2816
507.4742	185.3228
507.6366	194.57
507.799	195.2423
507.9614	185.9149
508.1238	179.6733
508.2862	186.5214
508.4485	192.3262
508.6109	196.0372
508.7733	193.3343
508.9357	200.4159
509.098	196.3958
509.2604	196.6782
509.4227	198.4912
509.5851	197.4095
509.7474	193.8709
509.9097	190.0508
510.072	191.973
510.2343	194.1164
510.3966	191.3922
510.5589	196.6018
510.7212	189.0961
510.8835	186.39
511.0458	194.6422
511.2081	190.5997
511.3703	193.0376
511.5326	193.3427
511.6949	198.9187
511.8571	204.1661
512.0193	200.8971
512.1816	190.338
512.3438	185.9865
512.506	178.3028
512.6682	183.9485
512.8304	192.1113
512.9926	183.6492
513.1548	185.5128
513.317	193.8605
513.4792	192.1555
513.6414	191.3362
513.8035	192.0856
513.9657	188.3681
514.1279	191.3307
514.29	188.6357
514.4521	193.9929
514.6143	192.9017
514.7764	188.8307
514.9385	189.5194
515.1006	191.5059
515.2628	186.3779
515.4249	189.1171
515.587	189.6725
515.7491	194.4011
515.9111	193.5341
516.0732	198.7464
516.2353	195.545
516.3973	179.1931
516.5594	178.0069
516.7214	168.1655
516.8835	161.6365
517.0455	162.4126
517.2076	158.8883
517.3696	155.2627
517.5316	172.4323
517.6937	193.8654
517.8557	192.3541
518.0176	191.7715
518.1796	174.0686
518.3416	167.2453
518.5036	164.7782
518.6656	173.5109
518.8275	183.0112
518.9895	185.7817
519.1514	182.7287
519.3134	181.5588
519.4753	187.4424
519.6373	188.9436
519.7992	192.7144
519.9611	197.7277
520.123	197.045
520.2849	193.4745
520.4468	187.6106
520.6087	181.3209
520.7706	186.002
520.9325	186.3984
521.0944	189.5161
521.2562	194.5467
521.4181	194.366
521.58	189.2508
521.7418	186.285
521.9036	195.0814
522.0655	200.1006
522.2273	196.4986
522.3891	194.1623
522.551	185.194
522.7128	185.2429
522.8746	184.6855
523.0363	190.238
523.1981	199.6389
523.3599	191.4182
523.5217	195.2063
523.6835	198.5953
523.8452	200.4552
524.007	200.8063
524.1687	202.7472
524.3304	200.8101
524.4922	200.0544
524.6539	201.2838
524.8157	203.3483
524.9774	206.4261
525.1391	206.525
525.3008	201.5329
525.4625	201.235
525.6241	208.3783
525.7858	211.5747
525.9475	202.6686
526.1092	203.3977
526.2709	193.0725
526.4325	185.026
526.5942	179.9638
526.7558	177.2542
526.9174	179.9274
527.079	175.9686
527.2407	188.5326
527.4023	195.3386
527.5639	202.7016
527.7255	200.0466
527.8871	204.2157
528.0487	205.7487
528.2103	199.6606
528.3718	201.122
528.5334	206.5551
528.695	210.4144
528.8565	213.895
529.0181	215.6138
529.1796	220.7859
529.3412	209.3298
529.5027	208.675
529.6642	205.8156
529.8257	204.7711
529.9872	202.3877
530.1487	201.4501
530.3102	199.9439
530.4717	200.5923
530.6332	205.6533
530.7947	213.0846
530.9562	210.1739
531.1176	209.884
531.2791	213.4873
531.4405	216.4419
531.6019	204.7585
531.7634	207.7884
531.9248	211.9676
532.0862	201.8802
532.2477	201.1156
532.4091	201.2116
532.5704	203.6494
532.7319	199.4348
532.8932	190.4364
533.0546	199.5532
533.216	206.6201
533.3774	206.6122
533.5388	207.0073
533.7001	208.9325
533.8615	199.7414
534.0228	206.8115
534.1841	205.5662
534.3455	202.4392
534.5068	206.962
534.6681	204.3423
534.8293	198.1693
534.9907	212.8411
535.152	209.4968
535.3132	206.8959
535.4745	208.075
535.6358	210.6275
535.7971	208.5275
535.9583	210.7642
536.1196	211.294
536.2808	209.7812
536.4421	205.5524
536.6033	201.4962
536.7645	199.6274
536.9258	197.3127
537.087	188.7835
537.2482	190.7493
537.4094	201.4354
537.5706	201.774
537.7318	207.1455
537.8929	201.3729
538.0541	203.5125
538.2153	204.0881
538.3764	201.1022
538.5376	205.627
538.6987	206.447
538.8599	203.6808
539.021	194.4898
539.1821	195.7462
539.3432	196.9841
539.5043	197.3163
539.6655	197.9705
539.8265	196.7739
539.9876	194.1187
540.1487	194.2043
540.3098	196.4019
540.4708	191.4434
540.6319	184.5143
540.793	183.1151
540.954	190.3558
541.1151	194.6797
541.2761	194.0034
541.4371	196.0901
541.5981	196.3441
541.7592	198.2111
541.9202	205.3215
542.0812	193.1544
542.2422	195.6792
542.4031	197.3362
542.5641	198.0374
542.7251	201.362
542.886	206.3812
543.0471	200.1164
543.208	196.9095
543.369	200.5096
543.5298	190.0526
543.6908	193.7325
543.8517	201.4705
544.0126	210.0643
544.1736	208.5045
544.3345	196.7802
544.4954	196.7546
544.6563	205.927
544.8171	200.3098
544.978	199.1183
545.1389	209.2224
545.2997	203.693
545.4606	204.1294
545.6215	199.0431
545.7823	195.9
545.9432	193.7252
546.104	203.7455
546.2648	204.9375
546.4256	197.6783
546.5864	198.2863
546.7473	204.0483
546.908	204.1174
547.0688	193.4786
547.2296	199.5842
547.3904	205.4772
547.5511	194.4529
547.7119	192.9746
547.8727	198.2118
548.0334	201.1411
548.1942	201.8969
548.3549	200.1033
548.5156	205.5725
548.6763	209.2206
548.837	209.0084
548.9977	209.4249
549.1584	204.8069
549.3192	206.8786
549.4798	205.7513
549.6405	203.7996
549.8011	207.942
549.9619	205.2992
550.1225	205.7764
550.2831	206.922
550.4438	198.792
550.6044	203.0403
550.765	205.4062
550.9257	204.4594
551.0863	203.3213
551.2469	200.0824
551.4075	201.9252
551.5681	198.8777
551.7287	203.2662
551.8893	209.9289
552.0498	215.5726
552.2104	211.4518
552.371	212.5785
552.5315	208.3336
552.6921	195.2121
552.8526	197.1398
553.0131	197.1946
553.1736	201.8622
553.3342	201.2282
553.4947	204.3106
553.6552	206.3324
553.8157	203.9544
553.9762	198.566
554.1367	208.8764
554.2971	208.2737
554.4576	201.9689
554.618	198.994
554.7785	199.2547
554.939	207.8843
555.0994	208.0454
555.2598	208.1231
555.4203	204.0793
555.5807	203.2979
555.7411	201.7847
555.9015	202.1652
556.0619	204.9521
556.2223	200.9988
556.3827	191.4742
556.5431	196.219
556.7034	196.8332
556.8638	199.1115
557.0242	194.9783
557.1845	198.9112
557.3448	190.0389
557.5052	196.0635
557.6655	200.4175
557.8259	200.2562
557.9861	199.9006
558.1465	201.0179
558.3068	203.1002
558.467	197.2917
558.6274	189.5307
558.7877	196.8005
558.9479	194.0035
559.1082	187.9517
559.2684	188.9266
559.4287	184.8995
559.5889	188.9253
559.7491	190.8938
559.9094	191.7242
560.0696	194.2229
560.2299	194.063
560.3901	191.4456
560.5502	194.8306
560.7104	205.7016
560.8707	201.2882
561.0308	197.8498
561.191	198.9906
561.3511	205.6099
561.5114	198.5269
561.6714	183.9728
561.8316	191.8246
561.9918	197.903
562.1519	203.0521
562.312	198.5449
562.4722	194.6131
562.6323	191.8948
562.7924	194.5795
562.9525	195.4216
563.1125	199.997
563.2726	196.5469
563.4327	194.6144
563.5928	192.2119
563.7528	189.0463
563.9129	190.8629
564.0729	194.3079
564.233	193.4436
564.393	194.1919
564.553	200.44
564.7131	198.7247
564.873	193.346
565.0331	195.148
565.1931	197.1809
565.353	194.7279
565.5131	194.2027
565.673	190.7344
565.833	178.6978
565.9929	186.2078
566.1529	188.8793
566.3129	187.3892
566.4728	197.6712
566.6328	197.1082
566.7927	188.9936
566.9526	192.8347
567.1125	194.0316
567.2724	195.6814
567.4323	196.3345
567.5922	193.5555
567.7521	197.5617
567.9119	193.0728
568.0718	188.7514
568.2317	193.3433
568.3915	190.1857
568.5514	183.2584
568.7112	189.5275
568.871	188.606
569.0309	181.7462
569.1907	189.176
569.3505	188.692
569.5103	192.2622
569.6701	192.3538
569.8299	192.5889
569.9897	191.0099
570.1495	191.8926
570.3092	183.8724
570.469	184.7899
570.6287	187.7928
570.7885	181.2529
570.9482	177.1243
571.108	181.8233
571.2677	176.5826
571.4274	178.0629
571.5871	187.0055
571.7468	190.5047
571.9066	183.4612
572.0662	191.6553
572.2259	190.8943
572.3856	191.2483
572.5452	190.6068
572.7049	192.9236
572.8646	186.6965
573.0242	193.6666
573.1838	192.6669
573.3435	195.6355
573.5031	197.7716
573.6627	191.8839
573.8223	194.8813
573.9819	196.3881
574.1415	195.9691
574.3011	197.1608
574.4607	192.5008
574.6203	198.6304
574.7798	193.1784
574.9394	187.5495
575.099	187.4917
575.2585	182.6572
575.418	184.1848
575.5776	179.2314
575.7371	183.5558
575.8966	190.6314
576.0562	191.7669
576.2156	189.917
576.3751	185.4218
576.5346	189.175
576.6941	185.4903
576.8536	186.2251
577.0131	185.3893
577.1725	186.0506
577.332	190.9768
577.4914	189.8656
577.6508	185.1509
577.8103	193.2665
577.9697	189.0556
578.1291	187.8136
578.2885	182.739
578.4479	172.8251
578.6073	178.6964
578.7667	179.7087
578.9261	175.8581
579.0854	183.1099
579.2448	191.6777
579.4042	191.6631
579.5635	180.0396
579.7229	181.2365
579.8822	182.4851
580.0416	189.423
580.2009	194.7516
580.3602	187.7074
580.5195	185.0671
580.6788	187.9936
580.8381	184.928
580.9974	184.8791
581.1566	183.1897
581.3159	189.2068
581.4752	178.2401
581.6345	181.383
581.7937	187.0421
581.9529	183.7236
582.1122	178.3982
582.2714	179.2617
582.4306	181.4631
582.5898	182.0301
582.749	191.6358
582.9082	187.9234
583.0674	186.167
583.2266	183.2363
583.3857	182.3516
583.5449	184.9629
583.7041	183.5148
583.8633	187.8897
584.0224	183.9491
584.1815	183.354
584.3407	183.7455
584.4998	188.8992
584.6589	183.4962
584.818	180.94
584.9771	181.1234
585.1362	184.5282
585.2953	179.1903
585.4544	171.6378
585.6135	172.1979
585.7725	173.4355
585.9316	179.19
586.0906	173.4735
586.2497	181.0259
586.4087	174.634
586.5677	173.1303
586.7267	179.1662
586.8858	179.8539
587.0448	175.8949
587.2038	172.9186
587.3628	171.0802
587.5218	174.4383
587.6807	174.149
587.8397	174.3123
587.9987	174.7889
588.1577	170.4869
588.3166	169.7132
588.4755	170.886
588.6345	173.662
588.7934	172.7303
588.9523	165.2296
589.1112	162.1313
589.2701	154.4845
589.429	154.2913
589.5879	155.8301
589.7468	157.8901
589.9056	163.3673
590.0645	168.6994
590.2234	167.441
590.3822	169.7916
590.5411	175.0099
590.6999	173.5887
590.8588	165.3974
591.0176	162.0564
591.1764	166.7263
591.3352	173.3717
591.494	174.1835
591.6528	167.7486
591.8116	165.7673
591.9703	167.5305
592.1291	164.4996
592.2878	163.4218
592.4467	165.0011
592.6053	164.8014
592.7641	169.247
592.9229	169.009
593.0816	167.692
593.2403	167.6743
593.399	170.4756
593.5577	168.2459
593.7164	169.3346
593.8751	167.8706
594.0338	170.2078
594.1924	167.9186
594.3511	165.1652
594.5098	166.0798
594.6684	164.9722
594.8271	164.1608
594.9857	167.0723
595.1443	162.8992
595.303	168.2709
595.4615	164.6092
595.6202	167.8182
595.7787	165.7829
595.9374	162.9445
596.0959	166.2572
596.2545	173.8126
596.4131	169.9144
596.5717	170.0282
596.7302	165.6964
596.8887	166.7596
597.0473	169.4594
597.2058	170.7864
597.3644	167.6082
597.5229	168.3278
597.6814	167.1961
597.8399	163.5517
597.9984	164.1355
598.1569	166.7758
598.3154	168.5621
598.4738	166.8621
598.6323	165.0081
598.7908	166.4003
598.9492	171.363
599.1076	168.401
599.2661	173.5228
599.4245	173.088
599.5829	173.1738
599.7413	171.4984
599.8997	169.5435
600.0581	167.899
600.2165	163.5219
600.3749	168.1052
600.5333	170.709
600.6917	160.2682
600.85	170.8299
601.0084	168.4474
601.1667	168.2829
601.325	163.8085
601.4833	165.7523
601.6417	163.8111
601.8	166.2074
601.9583	168.4149
602.1166	169.8267
602.2749	167.1576
602.4332	169.5842
602.5914	161.8926
602.7498	159.2096
602.908	163.5692
603.0662	170.9581
603.2245	168.1241
603.3828	172.0076
603.541	166.0055
603.6992	171.3895
603.8574	159.628
604.0156	163.2192
604.1738	167.155
604.332	170.9215
604.4902	170.3532
604.6484	161.6718
604.8065	165.4851
604.9647	169.982
605.1229	170.5886
605.281	170.3876
605.4391	167.5634
605.5973	169.1593
605.7554	171.1301
605.9135	164.3824
606.0717	164.0843
606.2297	163.5359
606.3878	159.7794
606.5459	161.7475
606.704	161.1731
606.8621	163.4753
607.0201	166.8481
607.1782	167.9395
607.3362	166.0124
607.4943	169.3912
607.6523	159.699
607.8104	157.8926
607.9684	160.785
608.1264	165.433
608.2844	163.6873
608.4424	161.2933
608.6003	162.5349
608.7584	158.4423
608.9163	160.5409
609.0743	165.174
609.2322	158.3671
609.3902	161.6545
609.5482	157.7977
609.7061	157.5484
609.864	160.2425
610.0219	165.1654
610.1798	157.6397
610.3377	156.9921
610.4956	154.6224
610.6535	159.0481
610.8114	157.9624
610.9693	160.8336
611.1271	160.8362
611.285	165.7433
611.4429	159.8339
611.6007	158.3036
611.7585	165.0647
611.9164	159.9574
612.0742	159.0317
612.232	157.1667
612.3898	157.2745
612.5476	154.5729
612.7054	162.0949
612.8632	155.9169
613.0209	155.0744
613.1787	157.1876
613.3365	155.3168
613.4942	152.5281
613.652	153.0333
613.8097	151.3968
613.9674	154.3345
614.1252	153.1915
614.2829	148.9635
614.4406	157.1712
614.5983	154.805
614.756	155.8439
614.9136	150.8476
615.0714	158.0064
615.229	158.2278
615.3867	152.2703
615.5443	152.5219
615.702	156.3319
615.8596	145.6182
616.0172	145.2816
616.1748	143.1102
616.3325	140.5627
616.4901	143.7051
616.6476	143.5045
616.8052	152.5388
616.9628	150.8057
617.1204	143.9936
617.278	150.8988
617.4355	151.7844
617.5931	152.3218
617.7506	149.605
617.9081	156.4828
618.0657	152.7292
618.2232	155.0226
618.3807	154.5575
618.5382	148.3868
618.6957	150.8267
618.8532	147.8629
619.0107	149.8021
619.1682	149.6264
619.3256	152.5463
619.4831	157.3283
619.6406	157.3412
619.798	151.6767
619.9554	149.4956
620.1129	153.5527
620.2703	148.8413
620.4277	152.291
620.5851	149.5414
620.7425	147.5562
620.8998	151.0724
621.0573	152.5694
621.2146	150.1275
621.372	153.1013
621.5294	150.3172
621.6867	148.2075
621.8441	152.3198
622.0013	151.7717
622.1587	150.2363
622.316	145.7734
622.4733	147.9911
622.6306	146.4165
622.7879	143.1744
622.9452	140.3537
623.1025	142.5231
623.2598	144.5095
623.4171	148.2802
623.5743	145.1463
623.7316	144.6442
623.8888	141.9281
624.046	144.2612
624.2032	148.3367
624.3605	147.9604
624.5176	143.3854
624.6749	146.9967
624.8321	147.103
624.9893	146.9128
625.1464	149.095
625.3036	143.9406
625.4608	144.7752
625.6179	142.4863
625.7751	142.8676
625.9322	146.9613
626.0894	142.1595
626.2465	148.0232
626.4036	146.6931
626.5607	148.1737
626.7178	143.3995
626.8749	141.7643
627.032	147.6485
627.189	142.3996
627.3461	141.6456
627.5032	144.3525
627.6602	148.5667
627.8173	143.7655
627.9743	139.1236
628.1313	138.2551
628.2884	138.6217
628.4454	142.8933
628.6024	141.3344
628.7594	135.1588
628.9164	141.2398
629.0734	133.8535
629.2303	139.1647
629.3873	139.1107
629.5443	133.6726
629.7012	141.7893
629.8582	145.4244
630.0151	142.8365
630.172	138.8394
630.3289	132.2393
630.4858	138.2785
630.6428	139.9374
630.7996	139.2612
630.9565	139.1667
631.1134	137.9266
631.2703	139.0302
631.4272	142.0796
631.584	136.5174
631.7408	139.9177
631.8977	136.1987
632.0546	141.1618
632.2114	142.4386
632.3682	148.4594
632.525	142.6446
632.6818	141.454
632.8386	141.5284
632.9954	139.0156
633.1522	140.7765
633.3089	144.6126
633.4657	139.0808
633.6224	139.0502
633.7792	139.5062
633.9359	141.6003
634.0927	142.4081
634.2494	138.4503
634.4061	136.4662
634.5628	144.4398
634.7195	144.4799
634.8762	147.9881
635.0329	139.7922
635.1895	144.519
635.3462	135.9239
635.5029	143.5054
635.6595	140.5298
635.8162	137.9632
635.9728	138.5358
636.1295	139.4313
636.2861	140.0682
636.4427	137.8498
636.5992	137.7189
636.7559	139.2362
636.9124	135.8051
637.069	140.7188
637.2256	141.2124
637.3821	135.35
637.5387	142.9086
637.6953	142.9439
637.8518	145.8262
638.0084	141.8175
638.1649	150.6601
638.3214	142.9027
638.4779	145.1741
638.6344	134.381
638.7909	136.2471
638.9474	140.3032
639.1038	136.1915
639.2603	139.2536
639.4167	136.6142
639.5732	133.8408
639.7297	136.1354
639.8861	135.4967
640.0425	133.1858
640.199	136.9807
640.3553	132.2862
640.5118	136.1969
640.6682	138.9993
640.8245	137.8257
640.981	139.0938
641.1373	138.651
641.2936	130.8194
641.45	126.6063
641.6064	132.2593
641.7627	137.6226
641.9191	131.888
642.0754	130.3064
642.2317	128.1449
642.388	134.1231
642.5443	135.0306
642.7006	135.8071
642.8569	140.4477
643.0131	139.4986
643.1694	135.726
643.3257	132.4141
643.4819	131.352
643.6382	131.2683
643.7944	130.7296
643.9506	131.2811
644.1069	133.8572
644.2631	129.3289
644.4193	130.3742
644.5754	128.6206
644.7316	132.9215
644.8878	131.6904
645.044	123.2975
645.2002	132.0141
645.3563	132.0662
645.5125	130.5051
645.6686	127.1883
645.8248	127.2223
645.9809	128.3118
646.137	131.3487
646.2931	128.2543
646.4492	125.4042
646.6053	125.5884
646.7614	129.3595
646.9174	134.8669
647.0735	126.639
647.2296	120.6871
647.3856	120.2416
647.5417	119.2057
647.6977	119.4791
647.8537	127.5636
648.0098	129.1394
648.1658	125.0493
648.3218	121.7461
648.4777	115.9119
648.6337	124.4945
648.7897	126.1547
648.9457	122.1075
649.1016	125.2195
649.2576	115.9442
649.4135	122.9076
649.5695	126.8836
649.7254	124.2858
649.8813	119.1802
650.0372	123.3234
650.1932	129.7415
650.3491	130.2543
650.5049	126.9763
650.6608	129.2256
650.8167	130.778
650.9725	133.0326
651.1284	129.8315
651.2842	126.3815
651.4401	118.8815
651.5959	116.1988
651.7518	117.4193
651.9076	123.8823
652.0634	129.4929
652.2192	121.9703
652.3749	122.5848
652.5308	121.6433
652.6865	115.1684
652.8423	120.1647
652.998	126.2557
653.1538	129.4829
653.3096	128.9003
653.4653	117.2876
653.621	120.5622
653.7767	123.9163
653.9324	125.0929
654.0881	123.885
654.2438	125.8803
654.3995	119.654
654.5552	119.9047
654.7109	123.5213
654.8665	120.3083
655.0222	119.3542
655.1778	121.4915
655.3334	120.2037
655.4891	118.3015
655.6447	118.4156
655.8003	121.3763
655.9559	109.9884
656.1115	104.9842
656.2671	98.38631
656.4227	97.50329
656.5782	101.1011
656.7338	109.5973
656.8893	111.3176
657.0449	119.1588
657.2004	112.7021
657.356	118.7677
657.5115	121.5131
657.667	121.9162
657.8225	123.3694
657.978	118.0019
658.1335	120.8047
658.289	120.9479
658.4445	115.0708
658.5999	121.1481
658.7554	119.1591
658.9108	121.4777
659.0663	121.0301
659.2217	120.1848
659.3771	118.7258
659.5325	120.1018
659.6879	115.4374
659.8433	115.5445
659.9987	118.0627
660.1541	115.5738
660.3095	122.7767
660.4648	122.6367
660.6202	122.0018
660.7756	122.4777
660.9309	119.2133
661.0862	115.8925
661.2416	117.5646
661.3969	113.9067
661.5522	123.1817
661.7075	124.926
661.8628	122.9301
662.0181	127.0018
662.1733	121.9524
662.3286	117.9522
662.4839	120.7226
662.6391	119.1512
662.7944	116.5311
662.9496	114.2955
663.1048	120.4703
663.26	122.4799
663.4152	116.5042
663.5704	114.1843
663.7256	118.7602
663.8808	120.1716
664.036	115.1245
664.1912	115.7877
664.3463	116.4578
664.5015	113.0442
664.6566	115.6364
664.8118	121.5813
664.9669	120.3034
665.122	118.3324
665.2771	121.9382
665.4322	119.9098
665.5873	119.0076
665.7424	116.6517
665.8975	117.9916
666.0526	113.7119
666.2076	116.6616
666.3627	114.1026
666.5177	114.557
666.6727	113.3485
666.8278	117.8679
666.9828	117.6284
667.1378	114.5983
667.2928	115.04
667.4478	119.6352
667.6028	117.2223
667.7578	118.6778
667.9127	120.3048
668.0677	113.5779
668.2226	119.2342
668.3776	123.0779
668.5325	121.7319
668.6874	118.2209
668.8423	113.2803
668.9973	112.2434
669.1522	116.7066
669.3071	121.5402
669.4619	119.9197
669.6168	117.3262
669.7717	119.9151
669.9265	114.4722
670.0814	116.7785
670.2362	117.8208
670.3911	115.4569
670.5459	114.0412
670.7007	119.0985
670.8555	118.5389
671.0103	113.9576
671.1651	119.0394
671.3199	118.0928
671.4747	115.5958
671.6295	115.8535
671.7842	112.9673
671.939	107.8399
672.0937	112.0988
672.2484	112.1822
672.4031	115.0704
672.5579	115.0675
672.7126	112.3817
672.8673	111.7526
673.022	110.4415
673.1767	114.7608
673.3314	113.8645
673.486	112.2945
673.6407	114.2958
673.7953	115.282
673.95	118.9634
674.1046	111.3608
674.2592	119.7768
674.4138	114.4061
674.5684	109.6342
674.723	108.8651
674.8776	106.1608
675.0322	109.6876
675.1868	110.7281
675.3414	106.6542
675.4959	109.2132
675.6505	108.4479
675.805	109.1511
675.9595	106.5752
676.1141	111.789
676.2686	111.9881
676.4231	108.6477
676.5776	110.3939
676.7321	109.2646
676.8866	108.1172
677.041	101.7818
677.1955	101.0459
677.35	109.8594
677.5044	113.534
677.6589	111.4445
677.8133	108.8808
677.9677	105.6435
678.1221	109.147
678.2766	105.6072
678.4309	110.2073
678.5853	106.9404
678.7397	107.9451
678.8941	108.3974
679.0485	108.9003
679.2028	108.2524
679.3571	106.8819
679.5115	112.2453
679.6658	113.9157
679.8201	115.025
679.9744	105.5751
680.1288	109.2292
680.2831	109.4988
680.4373	105.6717
680.5916	107.5299
680.7459	108.4223
680.9001	104.4299
681.0544	101.115
681.2087	105.2689
681.3629	100.3055
681.5171	100.4221
681.6713	102.0663
681.8256	103.0266
681.9797	105.1393
682.134	102.9866
682.2881	102.3837
682.4423	101.698
682.5965	107.3624
682.7507	106.5629
682.9048	104.2572
683.059	98.32851
683.2131	98.52531
683.3672	104.8601
683.5213	103.3886
683.6754	103.7404
683.8295	99.3139
683.9836	89.92761
684.1377	96.28307
684.2918	96.6358
684.4459	96.32171
684.5999	92.72752
684.754	100.0546
684.908	101.3407
685.062	99.12927
685.2161	97.13384
685.3701	96.73023
685.5241	98.61742
685.6781	96.48787
685.8321	97.69173
685.9861	99.14285
686.14	99.67751
686.294	95.18587
686.4479	91.36356
686.6019	94.89515
686.7559	84.36185
686.9098	81.71641
687.0637	80.22499
687.2176	77.01081
687.3715	82.79244
687.5254	85.57829
687.6793	77.29273
687.8332	82.96008
687.9871	87.27113
688.1409	90.56384
688.2947	98.23279
688.4486	92.9766
688.6024	87.18208
688.7563	94.17722
688.9101	85.68958
689.0639	78.41106
689.2177	79.76159
689.3715	86.50292
689.5253	84.9456
689.6791	85.09832
689.8328	85.15388
689.9866	88.30882
690.1403	85.73229
690.2941	86.31549
690.4478	92.64113
690.6015	90.8148
690.7552	93.71663
690.9089	88.79883
691.0626	87.23842
691.2164	91.81645
691.37	89.82339
691.5237	94.39581
691.6774	86.92412
691.831	88.82104
691.9847	90.79749
692.1383	89.14982
692.2919	93.25224
692.4456	95.06287
692.5992	90.82481
692.7527	90.93233
692.9064	83.23504
693.0599	89.54844
693.2136	92.27989
693.3671	94.42414
693.5207	91.57243
693.6742	84.49924
693.8278	82.9834
693.9813	85.85046
694.1348	84.69126
694.2883	82.45681
694.4418	90.69219
694.5953	85.09977
694.7488	86.96047
694.9023	90.7188
695.0558	91.1888
695.2093	85.60542
695.3627	87.9725
695.5162	88.16269
695.6696	87.47551
695.8231	86.8997
695.9764	83.77976
696.1299	82.32919
696.2833	81.59119
696.4367	85.70119
696.5901	87.61685
696.7435	85.4354
696.8968	89.37845
697.0502	88.47686
697.2036	87.97968
697.3569	83.99086
697.5102	89.55949
697.6635	89.6321
697.8168	85.10966
697.9702	84.86739
698.1235	87.02596
698.2768	86.11531
698.4301	89.01068
698.5833	85.88553
698.7366	85.85133
698.8898	81.60069
699.0431	79.6508
699.1964	78.51768
699.3495	82.65768
699.5028	83.31812
699.656	85.29765
699.8092	85.36045
699.9624	81.25015
700.1156	81.63651
700.2688	88.60261
700.4219	86.60902
700.5751	85.23429
700.7283	82.04717
700.8814	81.92105
701.0345	86.07198
701.1877	87.87052
701.3408	82.3993
701.4939	80.5053
701.647	83.28934
701.8001	85.69457
701.9532	87.13485
702.1063	87.65096
702.2593	87.57294
702.4124	84.14188
702.5654	81.0639
702.7184	80.63233
702.8715	76.94128
703.0245	84.23816
703.1776	89.28091
703.3305	81.13126
703.4835	77.2257
703.6365	79.49898
703.7895	82.72758
703.9424	85.68654
704.0954	84.2558
704.2484	81.64016
704.4013	86.10091
704.5543	88.96941
704.7072	82.18862
704.8601	79.32354
705.013	86.70774
705.1659	85.06051
705.3188	83.08606
705.4717	83.99423
705.6246	83.93587
705.7774	81.99416
705.9303	87.31193
706.0831	81.78219
706.236	80.90427
706.3888	85.43137
706.5416	84.88499
706.6944	87.20681
706.8472	83.86581
707	89.10142
707.1528	90.36346
707.3056	85.79236
707.4583	85.37758
707.6111	86.48606
707.7639	85.68038
707.9166	88.27744
708.0693	88.02273
708.222	88.52728
708.3748	79.89579
708.5275	77.10675
708.6802	77.02225
708.8328	87.46522
708.9855	84.34806
709.1382	83.42681
709.2909	81.55609
709.4435	81.51498
709.5962	82.83214
709.7488	84.12611
709.9014	83.21223
710.054	83.61324
710.2067	79.59026
710.3593	86.98319
710.5118	83.25731
710.6644	81.15992
710.817	76.80699
710.9695	87.74883
711.1221	84.06527
711.2747	85.36611
711.4272	84.42288
711.5797	80.27463
711.7322	80.67738
711.8848	77.88268
712.0373	81.9787
712.1898	82.12495
712.3422	73.81315
712.4948	81.27454
712.6472	83.76053
712.7996	80.20589
712.9521	77.57861
713.1046	80.17156
713.257	81.45744
713.4094	75.33994
713.5618	76.67231
713.7142	81.00652
713.8666	79.82495
714.019	77.97215
714.1714	81.01414
714.3237	81.48428
714.4761	78.28181
714.6285	81.95448
714.7808	84.78011
714.9331	82.83115
715.0854	79.84316
715.2378	76.88012
715.3901	78.01902
715.5424	82.81781
715.6947	79.62196
715.8469	79.43833
715.9992	82.60763
716.1515	73.0471
716.3037	77.11086
716.456	75.04998
716.6082	71.21188
716.7604	71.88039
716.9127	71.85548
717.0649	69.82034
717.2171	66.75629
717.3693	65.11462
717.5214	66.30995
717.6736	63.85375
717.8258	66.73006
717.978	64.53436
718.1301	64.71081
718.2822	67.3431
718.4344	67.15862
718.5865	62.13189
718.7386	60.6153
718.8907	64.7716
719.0428	64.9698
719.1949	69.17165
719.3469	65.39298
719.499	66.76672
719.6511	63.94582
719.8031	65.64761
719.9551	68.45155
720.1072	64.97202
720.2592	67.57267
720.4112	63.07871
720.5632	66.19287
720.7152	60.37233
720.8672	63.03636
721.0192	64.81456
721.1711	70.59543
721.3231	71.34164
721.475	68.51298
721.627	73.2093
721.7789	76.43935
721.9308	74.82425
722.0828	72.95812
722.2347	72.8997
722.3866	72.85921
722.5385	69.96802
722.6903	73.55309
722.8422	69.73708
722.9941	67.68824
723.1459	69.4099
723.2977	61.45271
723.4496	60.27902
723.6014	63.3565
723.7532	64.21556
723.905	70.5629
724.0568	67.16721
724.2086	65.97615
724.3604	66.81229
724.5121	62.58818
724.6639	64.83884
724.8157	62.56762
724.9674	67.80936
725.1191	64.56857
725.2709	65.58693
725.4226	64.38402
725.5743	64.4403
725.726	73.60011
725.8777	72.25343
726.0294	66.5979
726.181	68.98653
726.3327	65.5874
726.4844	68.13847
726.636	66.55453
726.7877	65.22511
726.9393	63.11488
727.0909	65.20078
727.2425	62.10576
727.3941	62.45707
727.5457	60.95012
727.6973	61.01293
727.8488	62.28261
728.0004	64.30728
728.1519	75.18639
728.3035	66.77918
728.455	69.04305
728.6066	67.10398
728.7581	65.94437
728.9095	60.71336
729.0611	61.68922
729.2126	57.98779
729.364	60.90845
729.5155	61.98917
729.667	63.60935
729.8184	64.95668
729.9698	63.83673
730.1213	68.10495
730.2727	66.67242
730.4241	65.45738
730.5756	68.09126
730.7269	68.74879
730.8784	68.55931
731.0297	63.883
731.1811	62.26834
731.3325	61.57221
731.4838	65.4971
731.6351	62.61867
731.7865	65.59235
731.9378	62.03362
732.0891	62.20377
732.2404	64.36803
732.3917	65.43458
732.543	66.28779
732.6943	64.47868
732.8456	69.35767
732.9968	69.53232
733.1481	66.18433
733.2993	66.59744
733.4506	72.66961
733.6018	72.4941
733.753	69.87109
733.9042	67.87233
734.0554	68.04938
734.2066	70.17826
734.3578	72.77202
734.509	71.12348
734.6602	63.88023
734.8113	73.10016
734.9624	70.68159
735.1136	64.21026
735.2647	63.60572
735.4158	62.69463
735.5669	62.81605
735.718	68.8578
735.8691	70.40999
736.0201	71.8646
736.1713	75.13519
736.3223	73.12187
736.4733	66.75569
736.6244	66.16901
736.7755	62.63283
736.9265	64.22748
737.0775	70.18697
737.2285	68.6541
737.3795	70.38939
737.5305	63.77114
737.6815	66.22047
737.8324	67.44971
737.9834	64.9714
738.1343	67.36083
738.2853	69.52708
738.4362	64.89653
738.5871	64.20676
738.738	62.89365
738.8889	64.05331
739.0399	65.86471
739.1907	63.64944
739.3416	58.69297
739.4925	63.83553
739.6433	59.12139
739.7942	65.44733
739.945	67.50072
740.0958	66.43176
740.2467	70.13754
740.3975	69.29845
740.5483	70.74198
740.6991	65.47958
740.8499	64.23953
741.0007	67.93826
741.1514	70.83681
741.3022	64.80759
741.4529	64.22858
741.6036	67.04616
741.7544	65.01567
741.9051	64.97929
742.0558	64.67625
742.2065	65.05974
742.3572	66.32113
742.5079	64.09923
742.6586	63.09302
742.8093	64.99158
742.9599	61.32626
743.1105	65.53211
743.2612	67.53773
743.4118	67.39017
743.5624	63.31226
743.7131	62.97369
743.8636	66.98138
744.0142	66.54447
744.1648	67.85711
744.3154	62.70185
744.4659	64.15134
744.6165	63.46095
744.767	59.17721
744.9176	61.5453
745.0681	60.95204
745.2186	63.62347
745.3691	61.11104
745.5197	64.77921
745.6702	66.71778
745.8206	68.72891
745.9711	64.42788
746.1215	63.19205
746.272	60.65517
746.4224	62.12849
746.5729	64.10477
746.7233	62.71029
746.8737	59.49759
747.0241	62.02408
747.1745	62.49019
747.3249	60.51891
747.4753	60.67343
747.6257	65.65582
747.776	65.1272
747.9264	64.62125
748.0767	61.96243
748.2271	62.09349
748.3774	59.41419
748.5276	65.91759
748.678	63.41307
748.8282	63.72615
748.9786	65.2822
749.1288	62.81002
749.2791	55.25701
749.4294	60.77048
749.5796	57.3214
749.7299	61.51673
749.8801	60.10289
750.0303	59.46745
750.1805	62.15991
750.3307	59.02058
750.4809	64.35542
750.6311	59.34267
750.7813	54.01198
750.9314	55.16497
751.0816	59.84937
751.2318	54.51456
751.3818	56.25962
751.532	56.82089
751.6821	62.17712
751.8322	61.02405
751.9823	62.96138
752.1324	58.22819
752.2825	57.91502
752.4326	60.17132
752.5826	60.59987
752.7327	57.0959
752.8827	60.25739
753.0327	60.28763
753.1827	64.03883
753.3328	57.8051
753.4828	60.35512
753.6328	60.18266
753.7828	60.06877
753.9327	60.02892
754.0827	59.17316
754.2327	56.47178
754.3826	62.10129
754.5325	55.10913
754.6825	57.92151
754.8324	55.99413
754.9823	59.4954
755.1322	59.81301
755.2821	59.02756
755.432	53.02611
755.5818	55.31137
755.7318	55.55414
755.8816	57.93003
756.0314	57.98599
756.1813	57.52524
756.3311	56.12129
756.4809	54.22844
756.6307	50.31789
756.7805	57.9961
756.9303	55.34155
757.0801	58.50345
757.2299	60.42361
757.3796	58.96392
757.5294	60.15152
757.6791	52.35749
757.8289	56.37353
757.9786	56.90919
758.1283	52.83392
758.278	48.51253
758.4277	55.24377
758.5773	55.14
758.7271	58.22346
758.8767	57.108
759.0264	57.86119
759.176	52.49571
759.3256	53.65376
759.4753	46.73808
759.6249	36.8598
759.7745	35.27552
759.9241	31.60692
760.0737	27.26201
760.2233	25.85427
760.3729	24.14151
760.5224	25.05719
760.6719	30.21206
760.8215	25.98821
760.971	23.02128
761.1205	30.58629
761.2701	27.18653
761.4196	34.12304
761.5691	34.2135
761.7186	34.36041
761.868	38.08541
762.0175	45.7932
762.167	41.35211
762.3164	38.34621
762.4659	38.2363
762.6153	36.08322
762.7647	37.41822
762.9141	36.519
763.0635	30.59995
763.2129	36.3557
763.3623	33.82388
763.5117	31.46659
763.661	38.88148
763.8104	32.24497
763.9597	34.41595
764.1091	37.05893
764.2584	37.14018
764.4077	36.25987
764.557	35.53251
764.7063	33.08091
764.8556	35.46641
765.0049	39.07743
765.1541	43.26102
765.3034	43.88393
765.4526	41.17543
765.6019	40.97337
765.7511	38.25319
765.9003	38.38443
766.0496	41.97392
766.1987	48.30981
766.348	46.03411
766.4971	43.0656
766.6463	44.98965
766.7955	43.7555
766.9446	43.30947
767.0938	45.11015
767.2429	43.741
767.392	50.47701
767.5411	53.06262
767.6902	47.31797
767.8394	48.451
767.9884	42.86438
768.1375	45.58403
768.2866	48.13105
768.4356	48.37561
768.5847	45.40652
768.7337	49.86845
768.8828	44.91519
769.0317	41.62126
769.1808	46.58537
769.3298	44.64991
769.4788	45.4008
769.6277	44.15384
769.7767	41.33234
769.9257	47.84239
770.0746	46.25991
770.2236	44.64747
770.3725	47.42661
770.5214	49.29843
770.6703	50.98968
770.8193	51.51661
770.9681	47.60809
771.1171	48.31882
771.2659	46.59829
771.4148	45.27096
771.5637	49.76637
771.7125	50.28744
771.8613	45.03814
772.0101	47.83774
772.159	44.88076
772.3078	47.65282
772.4566	46.87002
772.6054	43.39975
772.7542	48.12286
772.903	48.21876
773.0517	45.24731
773.2004	38.86827
773.3492	40.47618
773.4979	45.21563
773.6467	43.26482
773.7953	42.5904
773.944	39.39153
774.0928	45.25701
774.2415	45.60416
774.3901	44.43906
774.5388	42.96687
774.6874	45.59219
774.8361	39.97517
774.9847	42.79255
775.1334	38.90675
775.282	39.9085
775.4305	38.93951
775.5792	43.05161
775.7277	42.40158
775.8763	43.18053
776.0249	45.8185
776.1735	46.16167
776.322	44.17579
776.4705	44.19246
776.6191	39.96176
776.7676	44.16541
776.9161	48.16925
777.0646	45.73689
777.2131	43.12304
777.3616	39.43366
777.5101	44.19106
777.6585	45.7283
777.8069	47.16552
777.9554	42.20399
778.1038	41.30189
778.2523	39.61189
778.4007	42.26097
778.5491	42.11184
778.6974	39.36162
778.8459	43.11052
778.9942	38.64548
779.1426	35.78854
779.291	39.99212
779.4393	43.486
779.5876	44.09614
779.736	36.13422
779.8843	41.92081
780.0326	50.86204
780.1809	47.97269
780.3292	44.59792
780.4775	46.24846
780.6257	42.11154
780.774	43.87291
780.9222	42.38135
781.0704	41.59676
781.2187	46.736
781.3669	42.26845
781.5151	40.38446
781.6633	42.67679
781.8115	39.77956
781.9597	38.67445
782.1078	42.35588
782.256	43.58118
782.4042	42.02828
782.5523	37.3398
782.7004	37.94379
782.8486	43.87031
782.9967	47.49196
783.1448	44.64709
783.2929	44.8724
783.441	43.8112
783.5891	36.99858
783.7371	35.97675
783.8851	39.2626
784.0332	37.15137
784.1812	39.64478
784.3293	39.47211
784.4773	35.39168
784.6253	42.94863
784.7733	38.59311
784.9213	40.72078
785.0692	44.36757
785.2172	39.29948
785.3652	37.16412
785.5131	37.92141
785.6611	38.38411
785.809	36.50296
785.9569	39.48853
786.1048	36.3904
786.2527	40.34213
786.4006	39.25483
786.5485	39.39568
786.6964	41.29884
786.8442	37.46509
786.9921	38.4314
787.1399	40.84198
787.2877	38.54497
787.4355	40.28678
787.5833	39.03987
787.7311	39.55024
787.8789	38.78822
788.0267	33.42205
788.1745	36.46679
788.3223	39.10008
788.47	37.0434
788.6177	37.74131
788.7654	37.42417
788.9132	36.00631
789.0609	40.75137
789.2086	37.15805
789.3563	37.99476
789.504	38.18571
789.6517	36.80357
789.7993	32.92894
789.947	34.63908
790.0946	41.00567
790.2422	38.49985
790.3898	37.06922
790.5375	41.03664
790.6851	38.81345
790.8326	42.21266
790.9802	41.63508
791.1278	39.52578
791.2754	38.61161
791.423	34.40765
791.5705	37.83862
791.718	33.64862
791.8655	30.8469
792.0131	37.01108
792.1606	34.29656
792.308	40.08371
792.4556	40.79115
792.603	39.48594
792.7505	34.10541
792.8979	37.32814
793.0454	37.99145
793.1928	34.40811
793.3403	35.86831
793.4877	38.45337
793.6351	37.26259
793.7825	35.05134
793.9299	33.10561
794.0772	31.77696
794.2246	35.14871
794.3719	39.00544
794.5193	37.16953
794.6666	36.72946
794.814	36.35059
794.9613	38.04786
795.1086	35.68828
795.2559	39.40269
795.4032	34.52092
795.5505	34.26792
795.6978	34.05997
795.845	32.24985
795.9922	33.36716
796.1395	29.22838
796.2867	31.80903
796.4339	33.33487
796.5811	31.82009
796.7283	35.16366
796.8755	35.71719
797.0227	36.31463
797.1699	41.03274
797.317	40.88544
797.4642	35.22344
797.6113	32.03167
797.7584	37.41116
797.9056	37.97865
798.0527	37.8148
798.1998	34.21241
798.3469	33.37632
798.494	33.97192
798.641	33.6613
798.7881	32.24492
798.9351	34.84051
799.0822	33.22269
799.2292	33.47484
799.3762	34.11531
799.5232	34.39954
799.6702	32.70466
799.8172	30.70092
799.9642	32.88707
800.1111	31.97511
800.2581	33.5473
800.4051	31.1399
800.552	29.66743
800.6989	28.71935
800.8458	34.43672
800.9927	39.76456
801.1396	34.79006
801.2866	29.63919
801.4334	27.12718
801.5803	29.01689
801.7272	32.2304
801.874	34.22193
802.0209	32.55375
802.1677	31.17443
802.3145	30.06275
802.4613	29.62863
802.6081	31.1824
802.7549	29.72507
802.9017	32.43037
803.0485	33.86624
803.1952	30.55392
803.342	28.62215
803.4887	30.91948
803.6354	30.25571
803.7822	34.75294
803.9289	33.20672
804.0756	31.83146
804.2223	27.34843
804.369	31.59205
804.5156	29.09222
804.6623	31.80836
804.8089	29.74148
804.9556	30.77417
805.1022	36.26281
805.2488	35.65462
805.3954	33.10453
805.542	29.62183
805.6886	27.85327
805.8352	31.45545
805.9818	30.13908
806.1283	32.08913
806.2749	30.16721
806.4214	30.67628
806.5679	31.77347
806.7145	29.49542
806.861	29.57718
807.0074	27.24623
807.154	28.51797
807.3004	31.03309
807.4469	27.69676
807.5934	27.31276
807.7398	27.01432
807.8862	29.50722
808.0327	27.30827
808.1791	31.73762
808.3255	29.75038
808.4719	30.28377
808.6183	26.18318
808.7647	33.04512
808.9111	30.21258
809.0574	30.85443
809.2037	29.27801
809.3501	28.62769
809.4965	31.98062
809.6428	30.37282
809.7891	26.83508
809.9354	30.21675
810.0817	28.48356
810.2279	26.19844
810.3742	24.08597
810.5204	28.60087
810.6667	25.77704
810.8129	27.80045
810.9592	28.76897
811.1054	31.48344
811.2516	31.80978
811.3978	29.96332
811.5439	29.83764
811.6901	27.08821
811.8363	27.55091
811.9825	25.2595
812.1286	29.05634
812.2748	26.86142
812.4209	28.0066
812.567	26.86608
812.7131	27.01291
812.8592	29.23834
813.0053	27.67789
813.1514	23.15019
813.2974	25.76179
813.4435	24.35587
813.5895	20.46738
813.7356	20.46459
813.8816	30.67199
814.0276	26.22621
814.1736	26.29505
814.3196	23.16234
814.4656	22.46517
814.6116	24.58327
814.7576	23.32713
814.9035	21.72739
815.0494	22.30484
815.1954	23.23693
815.3413	20.9217
815.4872	24.01858
815.6331	22.36078
815.779	21.69103
815.9249	24.13848
816.0707	24.40418
816.2166	23.24885
816.3625	25.16498
816.5083	24.71286
816.6542	26.94914
816.8	25.45841
816.9458	25.45616
817.0916	25.24853
817.2374	22.17142
817.3832	22.47124
817.5289	19.78876
817.6747	18.64242
817.8204	21.14198
817.9662	18.21845
818.1119	19.92915
818.2576	25.43147
818.4034	25.48752
818.5491	22.82302
818.6948	24.15918
818.8405	19.2201
818.9861	22.85309
819.1318	24.4825
819.2774	27.34516
819.423	23.69904
819.5687	23.63557
819.7143	24.70738
819.8599	23.11842
820.0055	24.1029
820.1511	27.38042
820.2967	20.1544
820.4422	23.30257
820.5878	25.36039
820.7333	24.95683
820.8788	27.41934
821.0244	21.58261
821.1699	23.45736
821.3154	21.12684
821.4609	22.76257
821.6064	25.97929
821.7519	22.15597
821.8973	25.89801
822.0428	22.77442
822.1882	24.31042
822.3337	20.35616
822.4791	20.90883
822.6245	20.93813
822.7699	21.76378
822.9153	17.59103
823.0607	18.90584
823.2061	14.57151
823.3514	17.47441
823.4968	22.22257
823.6422	22.66005
823.7875	22.55059
823.9328	24.243
824.0781	24.6169
824.2234	17.56812
824.3687	20.80461
824.514	25.15101
824.6592	26.38151
824.8045	25.51037
824.9498	22.15738
825.095	22.41834
825.2402	25.98312
825.3854	22.68095
825.5306	21.39869
825.6758	24.37519
825.821	27.56489
825.9662	21.47346
826.1114	23.69742
826.2565	24.20945
826.4017	17.65931
826.5468	26.08191
826.692	24.15227
826.837	21.2112
826.9822	21.59066
827.1273	20.66833
827.2723	15.89805
827.4174	16.31559
827.5625	15.01119
827.7075	21.20141
827.8526	22.2555
827.9976	19.18956
828.1426	23.5859
828.2877	24.11887
828.4327	21.40217
828.5776	24.12667
828.7227	19.81161
828.8676	20.88423
829.0126	21.55454
829.1575	21.98379
829.3024	21.27266
829.4474	23.9808
829.5923	25.24942
829.7372	21.24999
829.8821	26.65859
830.027	23.58891
830.1719	22.86708
830.3168	19.75772
830.4616	19.99921
830.6064	22.1101
830.7513	18.9479
830.8961	14.39345
831.041	20.30824
831.1857	22.01567
831.3306	23.14681
831.4753	25.72515
831.6201	26.77152
831.7649	19.53532
831.9096	19.6668
832.0544	24.11222
832.1991	25.68542
832.3438	20.24592
832.4885	19.81949
832.6332	22.2083
832.778	23.01969
832.9226	18.30688
833.0673	18.87425
833.2119	17.56018
833.3566	19.0335
833.5012	15.91508
833.6459	14.79922
833.7905	21.29359
833.9351	18.73293
834.0797	18.29074
834.2243	23.0218
834.3688	24.05761
834.5134	23.43033
834.658	19.93875
834.8026	18.92102
834.9471	17.08693
835.0916	16.24026
835.2361	19.66865
835.3806	20.16961
835.5251	18.29
835.6696	18.92136
835.8141	18.50929
835.9586	18.14661
836.103	18.4822
836.2474	22.33626
836.3918	16.86437
836.5363	21.42006
836.6807	19.69935
836.8251	15.44713
836.9695	19.58519
837.1138	18.36512
837.2582	18.89689
837.4026	17.24398
837.5469	21.18149
837.6913	17.89772
837.8356	15.00773
837.9799	22.15173
838.1242	19.74359
838.2686	21.05957
838.4128	20.24483
838.5571	17.72319
838.7014	18.4756
838.8456	18.87124
838.9899	18.6985
839.1341	16.56696
839.2783	16.79523
839.4225	18.04121
839.5667	18.18595
839.7109	19.89867
839.8551	24.83871
839.9993	19.85352
840.1434	16.16721
840.2876	17.06014
840.4317	18.06876
840.5759	20.05205
840.72	23.78411
840.8641	20.94878
841.0082	19.29859
841.1523	18.77626
841.2963	21.16707
841.4404	18.82385
841.5845	18.03828
841.7285	21.16307
841.8726	23.56223
842.0165	22.22993
842.1606	15.81224
842.3046	17.77656
842.4485	21.17035
842.5925	22.53124
842.7365	20.40296
842.8805	19.4829
843.0244	20.01831
843.1684	17.21787
843.3123	16.93629
843.4562	17.5192
843.6002	16.04133
843.744	20.63079
843.8879	20.82989
844.0318	19.42913
844.1757	17.06028
844.3195	18.18436
844.4634	19.14849
844.6072	17.2054
844.751	18.80452
844.8948	24.51765
845.0386	19.51118
845.1824	14.27406
845.3262	16.05256
845.47	19.04204
845.6138	16.47766
845.7575	20.33048
845.9012	23.56067
846.045	16.48409
846.1887	18.52085
846.3324	19.95745
846.4761	21.92594
846.6198	17.59852
846.7635	18.78394
846.9071	22.02984
847.0508	20.39975
847.1944	17.21067
847.3381	20.8082
847.4817	20.41817
847.6253	10.88891
847.7689	16.89014
847.9125	14.85743
848.0561	15.0009
848.1996	23.50975
848.3432	16.69184
848.4868	23.04879
848.6303	21.20232
848.7738	21.48892
848.9174	18.51797
849.0609	19.67369
849.2043	18.95832
849.3478	16.43084
849.4913	15.6083
849.6348	18.4539
849.7782	17.62252
849.9217	16.37078
850.0651	17.73226
850.2086	15.19459
850.3519	16.92487
850.4954	20.57365
850.6387	17.3011
850.7821	17.76269
850.9255	16.82523
851.0688	16.76168
851.2122	19.89555
851.3555	18.32177
851.4988	14.68106
851.6422	18.23864
851.7855	18.01409
851.9288	16.53373
852.0721	20.59672
852.2153	17.97922
852.3586	22.22477
852.5018	18.47112
852.6451	17.25498
852.7883	19.38199
852.9315	17.79482
853.0748	18.28097
853.218	20.9471
853.3611	21.83556
853.5043	19.56605
853.6475	17.24896
853.7906	18.97696
853.9338	17.60173
854.0769	12.99643
854.22	13.95879
854.3632	11.81553
854.5063	13.66988
854.6494	14.3533
854.7924	16.55433
854.9355	18.50454
855.0786	16.97544
855.2216	18.1534
855.3647	17.82948
855.5077	16.34924
855.6507	14.84331
855.7937	15.25189
855.9367	19.2934
856.0797	15.12809
856.2227	15.56102
856.3657	15.06412
856.5086	20.797
856.6516	19.07566
856.7945	16.61238
856.9374	19.69203
857.0803	15.20338
857.2232	18.96559
857.3661	18.18928
857.509	21.31202
857.6519	15.88725
857.7947	13.24404
857.9376	12.51445
858.0804	12.00858
858.2232	17.63514
858.366	16.48063
858.5089	21.82372
858.6516	15.80747
858.7944	19.34922
858.9372	17.94948
859.08	15.59999
859.2227	13.17819
859.3654	16.83638
859.5082	14.99373
859.6509	16.98662
859.7936	19.06944
859.9363	18.67813
860.079	19.34881
860.2217	17.42007
860.3643	17.01662
860.507	18.8344
860.6496	18.33741
860.7922	17.03621
860.9349	14.82283
861.0775	16.61283
861.2201	17.06097
861.3627	15.42132
861.5052	16.21069
861.6478	17.18741
861.7904	15.15445
861.9329	15.66191
862.0755	14.41952
862.218	10.85213
862.3605	18.14029
862.503	18.14242
862.6455	16.81679
862.788	14.47002
862.9305	16.63168
863.0729	11.88302
863.2154	13.22917
863.3578	13.21987
863.5002	13.794
863.6426	15.17223
863.7851	12.03198
863.9275	14.569
864.0698	15.15401
864.2122	12.639
864.3546	12.90578
864.4969	12.5703
864.6393	16.2942
864.7816	13.50222
864.924	12.98317
865.0662	14.76595
865.2086	16.99667
865.3508	14.94061
865.4931	17.23362
865.6354	10.52028
865.7776	12.68976
865.9199	10.49398
866.0621	7.017083
866.2043	8.47286
866.3466	10.53261
866.4888	12.32783
866.6309	12.25126
866.7731	14.66324
866.9153	10.7405
867.0574	8.407191
867.1996	10.75405
867.3417	11.15974
867.4839	10.03942
867.626	14.64218
867.7681	13.83189
867.9102	14.27922
868.0522	15.09868
868.1943	16.97044
868.3364	13.25856
868.4785	13.01035
868.6205	10.94084
868.7625	13.26897
868.9045	12.02883
869.0465	13.12055
869.1885	14.51229
869.3305	16.35944
869.4725	15.0044
869.6144	10.37094
869.7564	13.05744
869.8983	14.03998
870.0403	11.17601
870.1822	14.78957
870.3241	14.65981
870.466	17.98146
870.6079	16.5156
870.7498	16.37969
870.8916	16.1249
871.0335	12.62433
871.1754	12.57802
871.3171	12.20853
871.459	13.55929
871.6008	15.26243
871.7426	12.2399
871.8844	12.53876
872.0262	14.43716
872.1679	12.93952
872.3097	10.91478
872.4514	12.43026
872.5931	19.21103
872.7349	11.46485
872.8766	9.411127
873.0183	18.55554
873.16	12.41441
873.3017	13.97214
873.4434	17.00383
873.585	13.18921
873.7266	14.21975
873.8683	12.33077
874.0099	8.662849
874.1516	15.28823
874.2932	18.61313
874.4348	15.70398
874.5763	9.693098
874.7179	12.96107
874.8594	15.14452
875.001	12.78073
875.1425	9.207331
875.2841	10.72758
875.4256	11.09735
875.5671	12.76511
875.7086	19.68742
875.85	14.26045
875.9915	12.04442
876.133	14.66978
876.2744	14.06537
876.4159	9.856422
876.5573	12.61189
876.6987	14.35527
876.8401	17.23378
876.9815	13.73093
877.1229	13.40072
877.2643	14.53622
877.4056	12.97609
877.547	13.96913
877.6884	11.52308
877.8297	11.73051
877.971	12.06272
878.1123	14.01807
878.2536	13.32903
878.3949	11.19948
878.5362	13.5462
878.6774	13.97279
878.8187	8.493471
878.9599	9.269662
879.1011	13.1219
879.2424	12.07227
879.3836	18.47329
879.5248	11.59385
879.666	13.31158
879.8071	14.33439
879.9483	10.66412
880.0895	13.05287
880.2306	14.80933
880.3718	13.30691
880.5129	14.79432
880.654	14.02163
880.7951	8.867812
880.9362	9.130446
881.0773	17.12889
881.2183	13.34691
881.3594	7.615556
881.5004	10.33521
881.6414	15.94693
881.7825	11.85306
881.9235	13.66518
882.0645	14.12206
882.2054	6.414386
882.3464	8.28371
882.4874	13.24001
882.6284	11.96698
882.7693	8.058998
882.9103	11.96084
883.0512	11.12646
883.1921	8.360323
883.333	8.679601
883.4739	8.862414
883.6147	12.67975
883.7556	10.53977
883.8965	10.20638
884.0374	11.31441
884.1782	14.99068
884.319	18.75512
884.4598	14.78945
884.6006	7.748898
884.7414	8.676099
884.8822	12.9042
885.0229	15.57003
885.1637	14.21641
885.3044	15.14148
885.4452	10.65672
885.5859	12.11806
885.7266	10.77102
885.8673	13.27717
886.008	14.65264
886.1487	10.80886
886.2894	12.69437
886.43	8.985454
886.5707	9.926943
886.7113	10.61953
886.8519	11.62328
886.9926	14.76097
887.1331	12.91218
887.2737	11.75496
887.4143	12.70748
887.5549	13.08339
887.6954	15.21522
887.836	13.14189
887.9765	11.45186
888.1171	9.075536
888.2576	13.65435
888.3981	9.934436
888.5386	9.872054
888.679	14.85545
888.8195	12.81223
888.96	11.65566
889.1004	10.41062
889.2408	12.34315
889.3813	11.66347
889.5217	10.12264
889.6621	10.0103
889.8025	10.45128
889.9429	12.60945
890.0833	9.353947
890.2236	9.481213
890.364	10.68777
890.5043	5.891516
890.6446	9.629863
890.7849	11.32756
890.9252	8.705405
891.0655	10.65015
891.2058	13.3438
891.3461	11.55154
891.4863	12.37401
891.6266	12.09212
891.7668	7.444587
891.907	9.889956
892.0472	10.32703
892.1874	11.45526
892.3276	13.63183
892.4678	11.5859
892.608	6.541409
892.7481	10.6952
892.8883	8.819515
893.0284	12.53175
893.1685	7.344294
893.3087	8.902892
893.4487	9.36755
893.5889	10.48281
893.7289	13.82541
893.869	9.282051
894.009	10.7275
894.1491	15.21731
894.2891	11.37175
894.4291	9.278662
894.5692	11.27964
894.7092	8.130441
894.8491	9.271303
894.9891	14.31658
895.1291	14.5161
895.269	9.652639
895.409	5.414289
895.549	5.344667
895.6888	10.94095
895.8288	9.452348
895.9687	5.563454
896.1086	12.80415
896.2484	12.04639
896.3883	9.743658
896.5281	6.634248
896.668	5.462999
896.8079	9.175849
896.9476	8.069717
897.0875	9.443857
897.2272	7.581008
897.3671	12.15592
897.5068	11.67733
897.6466	7.880696
897.7864	9.876422
897.9261	8.806602
898.0658	9.119882
898.2056	6.035198
898.3453	4.264461
898.4849	5.229916
898.6246	13.04409
898.7643	8.807183
898.904	7.874678
899.0436	5.66513
899.1833	3.108534
899.3229	1.961165
899.4625	7.299294
899.6021	9.204473
899.7417	7.698755
899.8813	10.64579
900.0209	11.34286
900.1605	12.39021
900.3	6.616331
900.4395	12.06944
900.579	9.366294
900.7186	9.644606
900.8581	8.429843
900.9976	8.710155
901.1371	8.195251
901.2766	4.56199
901.416	7.913574
901.5555	9.833664
901.6949	9.715453
901.8344	9.176524
901.9738	6.023043
902.1132	7.30728
902.2526	6.489509
902.3919	12.73061
902.5313	11.94537
902.6707	4.317197
