SPECTRUM DATA FILE
SpectrumCount:	1
PixelCount:	3648
UserName:	ToughBook User
SampleName:	
LightSource:	
Comments:	
DeviceName:	Qwave
DeviceManufacturer:	Broadcom
DeviceSerialNo:	11311

Name:	last spectrum
Date:	2024-05-02T15:03:54.6529661+02:00
ExposureTime:	0.02
TemporalAvg:	1
IntensityUnit:	normalizedCounts
CCDLoadLevel:	0.04198906
Temperature:	29.12637
DiagramColor:	200
ProcessingSteps:	335

Wavelength [nm]	Intensity1
334.421	5.55482
334.5891	7.954897
334.7573	6.674355
334.9254	10.52911
335.0935	6.801973
335.2616	11.46399
335.4297	10.70104
335.5978	7.970955
335.7659	10.54138
335.934	5.547527
336.1021	7.160971
336.2701	9.005916
336.4382	6.853734
336.6063	12.66165
336.7744	6.741124
336.9424	12.25322
337.1105	12.65449
337.2785	8.706531
337.4466	10.30362
337.6146	12.48243
337.7827	10.98877
337.9507	6.639876
338.1187	8.652032
338.2867	7.849379
338.4548	16.17277
338.6228	15.41228
338.7908	8.176861
338.9588	10.78057
339.1268	6.083988
339.2948	10.72636
339.4628	8.099334
339.6308	10.04383
339.7988	12.15017
339.9667	13.13957
340.1347	11.66023
340.3027	12.31775
340.4707	9.335821
340.6386	10.39702
340.8066	7.69441
340.9745	12.12796
341.1425	11.09239
341.3104	8.866445
341.4784	6.980796
341.6463	11.01239
341.8142	10.84424
341.9821	14.33538
342.1501	11.95304
342.318	8.520246
342.4859	8.864708
342.6538	14.53678
342.8217	13.49748
342.9896	11.86968
343.1575	8.285933
343.3254	10.38659
343.4933	13.10056
343.6612	13.50193
343.829	7.235617
343.9969	13.59026
344.1648	12.22944
344.3326	8.907354
344.5005	7.829369
344.6683	11.63342
344.8362	12.21039
345.004	13.92791
345.1719	11.17119
345.3397	13.24136
345.5075	12.73765
345.6754	13.06927
345.8432	8.63218
346.011	9.265771
346.1788	14.3908
346.3466	13.06416
346.5144	11.64632
346.6822	8.291827
346.85	14.4544
347.0178	7.666272
347.1856	12.22622
347.3534	8.073967
347.5211	8.604229
347.6889	8.312547
347.8567	12.22644
348.0244	8.248904
348.1922	9.189837
348.3599	13.57956
348.5277	13.55769
348.6954	8.347971
348.8632	11.06183
349.0309	11.50301
349.1986	15.04242
349.3663	13.38566
349.5341	15.52685
349.7018	16.47172
349.8695	9.820264
350.0372	10.65916
350.2049	11.22133
350.3726	14.4427
350.5403	14.51985
350.7079	10.94835
350.8756	11.85777
351.0433	11.35736
351.211	8.369628
351.3786	13.79329
351.5463	11.61781
351.714	15.77455
351.8816	11.04172
352.0493	14.88125
352.2169	12.72407
352.3846	10.48616
352.5522	9.478608
352.7198	12.65613
352.8875	14.57055
353.0551	13.77334
353.2227	11.98948
353.3903	14.97177
353.5579	12.74779
353.7255	14.27144
353.8931	12.219
354.0607	19.61089
354.2283	13.5641
354.3958	15.21333
354.5634	17.88568
354.731	17.4205
354.8986	13.67353
355.0661	14.42568
355.2337	12.61258
355.4012	11.91322
355.5688	17.06683
355.7363	16.21482
355.9039	11.31355
356.0714	11.08922
356.239	12.35359
356.4065	16.35385
356.574	16.60076
356.7415	16.45026
356.909	11.72078
357.0765	11.85102
357.244	11.48402
357.4115	17.89705
357.579	20.43039
357.7465	17.17413
357.914	12.09934
358.0815	5.991173
358.249	7.999954
358.4164	10.24906
358.5839	8.678401
358.7513	9.393992
358.9188	12.54025
359.0862	13.19101
359.2537	17.59002
359.4211	15.98428
359.5886	13.19696
359.756	13.30991
359.9234	16.50325
360.0909	18.19207
360.2583	12.32949
360.4257	13.00301
360.5931	14.48902
360.7605	13.40674
360.9279	11.80591
361.0953	11.64314
361.2627	11.17887
361.4301	15.84875
361.5974	15.39066
361.7648	9.475462
361.9322	18.57516
362.0995	15.94947
362.2669	15.41223
362.4343	13.56427
362.6016	19.43592
362.769	18.22736
362.9363	15.66098
363.1036	16.32389
363.271	17.81397
363.4383	17.26735
363.6056	17.34706
363.7729	10.19496
363.9402	15.76729
364.1075	14.75973
364.2748	13.66702
364.4421	16.24997
364.6094	11.08249
364.7767	9.181729
364.944	16.14519
365.1113	16.58103
365.2786	18.7433
365.4458	18.09082
365.6131	20.43519
365.7803	20.21883
365.9476	22.0973
366.1148	19.21623
366.2821	18.75598
366.4493	16.92225
366.6166	17.29392
366.7838	14.82471
366.951	19.60328
367.1182	14.4371
367.2855	18.56289
367.4527	19.7758
367.6199	18.59339
367.7871	18.43887
367.9543	19.60688
368.1215	19.06545
368.2886	16.92275
368.4558	14.49754
368.623	16.86915
368.7902	16.82079
368.9573	18.06229
369.1245	20.4637
369.2917	18.20976
369.4588	23.43077
369.6259	22.44658
369.7931	23.52453
369.9602	19.94655
370.1274	17.64572
370.2945	20.96796
370.4616	23.52043
370.6287	19.32119
370.7958	20.1634
370.963	17.45473
371.1301	20.93559
371.2971	24.11226
371.4643	21.91775
371.6313	20.66765
371.7984	22.08896
371.9655	18.56215
372.1326	13.89863
372.2997	19.92172
372.4667	18.57505
372.6338	20.99899
372.8008	22.10881
372.9679	16.93995
373.1349	18.20688
373.3019	17.08904
373.469	18.48193
373.636	19.45131
373.803	18.96511
373.9701	21.91533
374.1371	22.4833
374.3041	25.5601
374.4711	26.73902
374.6381	16.54061
374.8051	17.97152
374.9721	18.87389
375.1391	19.61684
375.3061	25.23126
375.473	28.2655
375.64	21.768
375.8069	21.59173
375.9739	20.77556
376.1409	19.49435
376.3078	19.80766
376.4748	20.17881
376.6417	28.28636
376.8087	29.59675
376.9756	19.10359
377.1425	24.06113
377.3094	24.67822
377.4763	23.07355
377.6432	24.40858
377.8102	26.52497
377.9771	28.80568
378.144	28.68917
378.3109	29.07521
378.4777	24.9515
378.6446	23.04911
378.8115	18.44133
378.9784	21.90167
379.1452	23.9995
379.3121	25.62628
379.4789	23.85702
379.6458	19.48313
379.8127	15.27314
379.9795	19.67509
380.1463	26.42556
380.3131	22.41309
380.48	25.86016
380.6468	24.51098
380.8136	24.27491
380.9804	29.90729
381.1472	28.61499
381.314	20.25908
381.4808	25.41049
381.6476	25.39436
381.8144	19.05962
381.9812	22.46284
382.148	19.99679
382.3147	20.88461
382.4815	16.60763
382.6483	17.94947
382.815	17.88326
382.9818	19.89616
383.1485	19.96669
383.3153	15.53653
383.482	19.58813
383.6487	17.5257
383.8155	19.24801
383.9822	18.64098
384.1489	22.13449
384.3156	24.69252
384.4823	28.56665
384.649	29.96977
384.8157	27.85486
384.9824	27.98036
385.1491	20.80814
385.3158	25.71342
385.4825	28.9068
385.6491	24.79499
385.8158	26.25515
385.9825	25.22386
386.1491	23.39681
386.3157	26.5559
386.4824	29.91114
386.649	28.64514
386.8157	28.46792
386.9823	25.97719
387.1489	22.06688
387.3156	27.23164
387.4821	29.42707
387.6488	29.25358
387.8154	25.08633
387.982	26.88021
388.1486	23.95952
388.3152	24.20573
388.4818	21.37027
388.6483	23.98322
388.8149	24.31209
388.9815	23.48226
389.148	28.62601
389.3146	28.20941
389.4811	25.71433
389.6477	29.34606
389.8142	29.70396
389.9808	29.65895
390.1473	31.50721
390.3138	30.76685
390.4804	30.95621
390.6469	28.34216
390.8134	29.45788
390.9799	31.32976
391.1464	31.08799
391.3129	27.79117
391.4794	34.11367
391.6459	33.78251
391.8124	31.94112
391.9789	29.74294
392.1453	30.39685
392.3118	33.59587
392.4782	27.23339
392.6447	24.4143
392.8112	22.58781
392.9776	22.14089
393.144	22.3955
393.3105	16.68059
393.4769	14.56929
393.6433	19.807
393.8098	19.79905
393.9762	24.46313
394.1426	24.13221
394.309	27.59455
394.4754	30.46715
394.6418	34.77619
394.8082	31.84213
394.9746	32.18898
395.141	33.33573
395.3073	36.60023
395.4737	33.79391
395.64	32.65913
395.8064	35.82083
395.9728	39.85364
396.1391	34.18652
396.3055	28.80594
396.4718	21.66579
396.6381	26.80953
396.8045	24.41006
396.9708	19.6831
397.1371	21.18703
397.3034	31.75335
397.4697	31.38809
397.636	33.34064
397.8023	38.17425
397.9686	42.34449
398.1349	44.12498
398.3012	40.05888
398.4675	45.4648
398.6337	44.88148
398.8	45.96296
398.9662	46.56725
399.1325	45.73318
399.2988	49.32277
399.465	46.28576
399.6313	45.88629
399.7975	47.55433
399.9637	45.81609
400.1299	47.39405
400.2961	46.35515
400.4624	42.89131
400.6286	45.93097
400.7948	49.80243
400.961	50.09145
401.1272	54.48481
401.2934	52.42941
401.4595	50.6323
401.6257	44.06629
401.7919	47.93753
401.9581	46.41861
402.1242	45.59612
402.2904	47.11948
402.4565	48.17398
402.6227	50.10636
402.7888	49.0299
402.955	48.73532
403.1211	46.85056
403.2872	44.77112
403.4533	41.99337
403.6194	53.16002
403.7856	51.85807
403.9517	52.33849
404.1177	49.72705
404.2838	48.72173
404.4499	45.13759
404.616	43.29527
404.7821	41.4835
404.9482	51.04899
405.1142	52.45789
405.2803	49.35678
405.4464	46.19413
405.6124	43.2107
405.7784	51.20087
405.9445	48.10203
406.1105	48.25504
406.2766	52.54308
406.4426	45.74308
406.6086	50.07368
406.7746	51.42242
406.9406	55.43893
407.1066	54.27489
407.2726	53.14475
407.4386	52.71779
407.6046	52.13573
407.7706	51.65468
407.9366	56.16612
408.1025	54.21087
408.2685	48.81822
408.4344	56.28436
408.6004	57.92858
408.7664	56.66128
408.9323	63.10457
409.0983	65.04748
409.2642	63.61563
409.4301	63.89671
409.596	56.78114
409.762	55.71353
409.9279	51.63471
410.0938	52.31654
410.2597	46.50655
410.4256	50.66483
410.5915	53.49061
410.7574	59.68138
410.9232	60.92616
411.0891	61.52368
411.255	58.5847
411.4209	70.844
411.5867	67.68356
411.7526	64.84924
411.9184	64.33761
412.0843	63.70218
412.2501	67.77699
412.4159	67.66525
412.5818	63.97444
412.7476	57.90393
412.9134	64.93465
413.0792	63.9474
413.245	57.6034
413.4108	59.83009
413.5766	64.95661
413.7424	63.84715
413.9082	68.82492
414.074	66.51388
414.2397	62.73692
414.4055	61.35254
414.5713	57.96175
414.737	66.57465
414.9028	66.58856
415.0685	56.97764
415.2343	59.17428
415.4	57.24038
415.5658	59.64165
415.7315	57.63621
415.8972	66.27426
416.0629	68.15369
416.2286	73.3288
416.3943	70.84602
416.56	68.68347
416.7257	70.73289
416.8914	69.32935
417.0571	66.14488
417.2228	61.45884
417.3884	59.06666
417.5541	61.79481
417.7198	62.46487
417.8854	66.82751
418.0511	62.00856
418.2167	61.76234
418.3824	60.98667
418.548	58.87365
418.7136	59.87329
418.8792	60.12337
419.0449	56.15282
419.2105	63.10644
419.3761	68.89608
419.5417	69.70354
419.7073	71.8241
419.8729	63.88073
420.0385	62.40895
420.204	67.80141
420.3696	66.84686
420.5352	71.53482
420.7007	71.6237
420.8663	72.88564
421.0319	76.8049
421.1974	74.23497
421.3629	75.7577
421.5285	71.48133
421.694	70.00837
421.8595	77.66707
422.0251	77.83245
422.1906	72.75017
422.3561	66.65042
422.5216	61.02234
422.6871	64.16338
422.8526	67.3084
423.0181	74.75782
423.1835	75.23026
423.349	74.0938
423.5145	75.34493
423.68	71.04848
423.8454	71.49374
424.0109	78.68745
424.1763	77.30701
424.3418	77.01804
424.5072	79.85904
424.6726	77.97736
424.838	74.23799
425.0035	74.543
425.1689	70.80088
425.3343	73.86205
425.4997	76.71586
425.6651	75.09278
425.8305	80.57458
425.9959	69.25227
426.1613	66.61585
426.3267	68.48679
426.492	78.84613
426.6574	82.43285
426.8228	79.08784
426.9881	72.17708
427.1534	60.52125
427.3188	59.19725
427.4841	71.17501
427.6495	77.06005
427.8148	76.45324
427.9801	76.47861
428.1454	78.55686
428.3107	77.70639
428.476	75.56187
428.6414	69.69846
428.8066	73.55128
428.9719	70.42352
429.1372	70.99928
429.3025	71.1838
429.4678	72.48802
429.633	72.4108
429.7983	72.48321
429.9636	63.23386
430.1288	60.2437
430.294	57.32072
430.4593	59.75671
430.6245	57.13958
430.7897	58.41913
430.955	58.17595
431.1202	59.66828
431.2854	63.41843
431.4506	75.65775
431.6158	79.36727
431.781	84.797
431.9462	89.53727
432.1114	93.54158
432.2766	79.45065
432.4417	71.51103
432.6069	66.26075
432.772	74.51439
432.9372	82.59
433.1024	87.6158
433.2675	91.75423
433.4326	91.07943
433.5977	89.24718
433.7629	80.16561
433.928	74.96506
434.0931	67.28368
434.2582	71.30906
434.4233	80.76402
434.5884	83.54642
434.7535	92.18882
434.9186	98.39925
435.0837	90.51465
435.2488	85.73937
435.4138	83.61098
435.5789	87.62966
435.744	86.26322
435.909	90.88345
436.0741	92.97923
436.2391	100.7776
436.4042	100.1921
436.5692	93.191
436.7342	94.74308
436.8992	94.61845
437.0643	97.09933
437.2293	91.10636
437.3943	91.29668
437.5593	88.93103
437.7243	90.59643
437.8893	94.8727
438.0542	95.68803
438.2192	88.66512
438.3842	78.84496
438.5491	75.41495
438.7141	86.08304
438.8791	93.08328
439.044	98.25991
439.209	94.79213
439.3739	97.53149
439.5388	97.65955
439.7037	101.7889
439.8687	96.67709
440.0336	96.85097
440.1985	97.16245
440.3634	91.26901
440.5283	92.33097
440.6932	96.00851
440.8581	104.0157
441.0229	104.0644
441.1878	105.1916
441.3527	108.5417
441.5175	103.5022
441.6824	100.9642
441.8472	102.9545
442.0121	109.1167
442.1769	104.7918
442.3418	103.0082
442.5066	101.5049
442.6714	112.037
442.8362	110.7051
443.001	112.4942
443.1659	109.4582
443.3307	110.1556
443.4955	107.4757
443.6602	105.2747
443.825	107.3622
443.9898	111.3725
444.1546	108.1318
444.3193	104.7691
444.4841	108.1005
444.6488	107.3434
444.8136	108.9093
444.9783	112.1497
445.1431	111.0043
445.3078	105.7068
445.4725	105.0017
445.6372	101.8249
445.802	104.4577
445.9667	101.2741
446.1314	104.4231
446.2961	107.3448
446.4608	103.306
446.6255	110.1291
446.7901	107.3654
446.9548	111.4532
447.1195	113.5
447.2841	115.3574
447.4488	120.7532
447.6134	120.3192
447.7781	114.4175
447.9427	121.7902
448.1074	121.4656
448.272	113.4965
448.4366	113.2165
448.6012	125.1202
448.7658	116.6022
448.9305	117.1161
449.095	116.0748
449.2596	116.0959
449.4242	120.809
449.5888	117.9726
449.7534	117.4872
449.9179	122.9918
450.0825	125.6381
450.2471	127.1181
450.4116	128.2695
450.5762	134.9141
450.7407	132.8882
450.9052	127.9098
451.0698	131.7143
451.2343	130.2675
451.3988	122.9641
451.5633	122.1039
451.7278	123.0182
451.8923	129.4213
452.0568	128.0134
452.2213	124.5349
452.3858	120.4088
452.5503	110.6531
452.7148	119.1665
452.8792	115.1946
453.0437	120.4311
453.2081	118.7488
453.3726	118.4261
453.537	116.9939
453.7015	121.3818
453.8659	127.5183
454.0303	130.7606
454.1947	128.3146
454.3592	127.3701
454.5236	130.7021
454.688	121.9622
454.8524	131.4803
455.0168	127.0453
455.1811	117.5386
455.3455	128.3933
455.5099	124.4049
455.6743	128.4249
455.8386	130.6378
456.003	129.0853
456.1673	132.8326
456.3317	128.698
456.496	128.9007
456.6603	130.5614
456.8246	130.1324
456.989	136.0007
457.1533	136.9409
457.3176	128.7482
457.4819	131.6651
457.6462	137.1929
457.8105	135.3803
457.9748	130.8772
458.1391	122.5867
458.3033	130.9809
458.4676	125.3982
458.6319	130.7407
458.7961	135.1554
458.9604	135.951
459.1246	129.9838
459.2888	129.0891
459.4531	127.2927
459.6173	131.3368
459.7815	132.1045
459.9457	118.5917
460.11	132.5478
460.2741	130.4292
460.4384	127.2978
460.6025	130.5241
460.7667	133.7656
460.9309	136.0233
461.0951	136.7373
461.2592	134.2786
461.4234	128.4355
461.5876	140.3252
461.7517	131.293
461.9159	133.6438
462.08	139.0377
462.2441	133.4837
462.4082	136.3792
462.5724	138.1104
462.7365	138.959
462.9006	138.4132
463.0647	146.2482
463.2288	142.8709
463.3929	132.1072
463.557	135.5669
463.721	135.3533
463.8851	135.35
464.0492	135.0802
464.2132	134.5499
464.3773	140.7554
464.5414	135.2693
464.7054	124.7712
464.8694	132.5872
465.0334	132.757
465.1975	135.1403
465.3615	139.29
465.5255	139.1395
465.6895	136.4146
465.8535	141.6375
466.0175	141.3467
466.1815	144.5419
466.3455	140.7056
466.5095	132.0032
466.6734	129.9375
466.8374	134.4891
467.0014	136.029
467.1653	137.9398
467.3293	143.82
467.4932	146.4011
467.6571	140.4856
467.8211	139.1386
467.985	142.3164
468.1489	140.8921
468.3128	144.7174
468.4767	142.0487
468.6406	141.8538
468.8045	144.1509
468.9684	143.8143
469.1323	150.6349
469.2962	150.4969
469.46	148.6859
469.6239	144.2421
469.7878	142.2899
469.9516	140.4418
470.1154	131.3864
470.2793	136.8928
470.4431	135.3306
470.607	136.481
470.7708	135.7416
470.9346	131.1092
471.0984	142.0815
471.2622	137.9691
471.426	141.1414
471.5898	147.8338
471.7536	146.836
471.9174	151.3939
472.0811	153.6527
472.2449	151.2883
472.4087	154.7722
472.5724	147.3907
472.7362	145.0335
472.8999	145.2348
473.0637	145.0559
473.2274	141.4047
473.3911	144.7061
473.5548	144.4147
473.7185	144.1012
473.8822	144.0297
474.0459	148.0176
474.2096	151.0774
474.3733	152.838
474.537	146.7826
474.7007	145.2688
474.8643	152.3421
475.028	154.2666
475.1917	152.4707
475.3553	151.7932
475.519	147.6785
475.6826	144.4438
475.8463	144.4035
476.0099	152.7296
476.1735	149.954
476.3371	144.0766
476.5007	143.4454
476.6643	142.1583
476.8279	141.1712
476.9915	144.5745
477.1551	142.1916
477.3187	147.7314
477.4823	147.3791
477.6458	152.7229
477.8094	151.3262
477.9729	152.0401
478.1365	145.7461
478.3	147.1862
478.4636	144.4093
478.6271	148.3949
478.7906	141.3667
478.9541	142.8195
479.1176	149.6113
479.2812	151.4132
479.4447	148.9013
479.6082	151.131
479.7716	149.5639
479.9351	151.4715
480.0986	146.3268
480.2621	155.3162
480.4255	158.5563
480.589	159.5829
480.7524	149.3135
480.9159	148.8689
481.0793	149.6132
481.2428	149.1039
481.4062	146.8645
481.5696	151.4262
481.733	151.4166
481.8964	154.7025
482.0598	161.7089
482.2232	154.3385
482.3866	146.3995
482.55	143.8761
482.7134	148.2571
482.8768	153.5947
483.0401	149.9395
483.2035	149.0855
483.3668	149.2938
483.5302	156.4689
483.6935	155.4993
483.8568	151.637
484.0202	151.0571
484.1835	149.051
484.3468	153.0456
484.5101	155.7469
484.6734	159.1015
484.8367	158.1589
485	151.8094
485.1633	153.2916
485.3266	151.3716
485.4899	145.1875
485.6531	139.229
485.8164	134.9362
485.9796	126.8373
486.1429	115.2612
486.3061	116.1042
486.4694	120.1359
486.6326	134.8551
486.7958	140.3457
486.959	141.6449
487.1223	144.3822
487.2855	141.9808
487.4486	147.9482
487.6118	143.4988
487.775	149.0955
487.9382	149.4008
488.1014	159.3126
488.2646	155.9289
488.4277	152.4938
488.5909	149.8091
488.754	152.2922
488.9171	150.6945
489.0803	145.3916
489.2434	149.5597
489.4066	151.863
489.5697	156.0302
489.7328	158.2012
489.8959	165.2036
490.059	165.682
490.2221	163.5672
490.3852	157.869
490.5482	160.7834
490.7113	162.1965
490.8744	155.5166
491.0374	150.3243
491.2005	154.1773
491.3636	157.8132
491.5266	162.0919
491.6896	159.8702
491.8527	146.3198
492.0157	142.7625
492.1787	142.8211
492.3417	153.9389
492.5047	157.3536
492.6677	165.9748
492.8307	162.9945
492.9937	157.1109
493.1567	162.9801
493.3196	152.3678
493.4826	159.1056
493.6456	157.9148
493.8085	155.0618
493.9715	155.5576
494.1344	158.8565
494.2974	162.2475
494.4603	164.5923
494.6232	161.0851
494.7861	159.5593
494.949	162.8769
495.1119	169.5127
495.2748	169.3327
495.4377	162.5949
495.6006	154.7527
495.7635	149.2206
495.9264	153.8788
496.0892	163.7524
496.2521	167.5431
496.4149	172.5934
496.5778	163.9977
496.7407	166.4316
496.9035	167.1898
497.0663	162.1821
497.2291	166.8006
497.3919	170.0079
497.5547	169.6875
497.7176	168.3986
497.8804	163.567
498.0432	163.4353
498.2059	154.7848
498.3687	155.185
498.5315	153.7892
498.6942	164.4421
498.857	167.4913
499.0198	169.9782
499.1825	162.1748
499.3452	166.8544
499.508	163.1328
499.6707	169.0918
499.8334	165.8908
499.9962	159.0249
500.1589	157.41
500.3216	164.4544
500.4843	161.6444
500.6469	159.5299
500.8096	153.6557
500.9723	156.6791
501.135	159.4516
501.2976	160.6324
501.4603	155.6535
501.623	163.5887
501.7856	160.5299
501.9482	163.3789
502.1109	162.357
502.2735	165.4904
502.4361	157.1772
502.5987	167.1287
502.7614	166.7307
502.924	162.2242
503.0865	166.7472
503.2491	164.4674
503.4117	171.6106
503.5743	167.5072
503.7368	159.2502
503.8994	157.7107
504.062	157.7654
504.2245	157.304
504.3871	163.8664
504.5496	172.6952
504.7121	172.8225
504.8746	172.1022
505.0372	165.4907
505.1997	164.0986
505.3622	168.1568
505.5247	173.7471
505.6872	180.6405
505.8497	178.3196
506.0121	177.6239
506.1746	185.5442
506.3371	181.101
506.4995	183.4607
506.662	177.4977
506.8244	174.981
506.9869	174.1725
507.1493	173.1528
507.3117	178.0062
507.4742	181.2161
507.6366	170.4352
507.799	171.9224
507.9614	170.0284
508.1238	162.3066
508.2862	168.8168
508.4485	168.9239
508.6109	175.2214
508.7733	175.0075
508.9357	179.6835
509.098	179.6844
509.2604	175.8754
509.4227	180.31
509.5851	183.771
509.7474	176.4125
509.9097	170.2763
510.072	167.4738
510.2343	177.0637
510.3966	177.4098
510.5589	179.9875
510.7212	176.4872
510.8835	172.7858
511.0458	170.3192
511.2081	170.8064
511.3703	175.8628
511.5326	183.256
511.6949	181.4093
511.8571	178.7215
512.0193	176.3427
512.1816	176.6271
512.3438	168.41
512.506	167.8521
512.6682	169.9981
512.8304	162.4923
512.9926	165.2475
513.1548	166.8026
513.317	172.5753
513.4792	175.1781
513.6414	174.5586
513.8035	170.4928
513.9657	161.6411
514.1279	167.0496
514.29	166.5051
514.4521	162.3329
514.6143	164.8503
514.7764	167.2092
514.9385	165.8141
515.1006	166.559
515.2628	175.1247
515.4249	174.0797
515.587	165.7545
515.7491	172.8642
515.9111	174.6281
516.0732	172.3938
516.2353	170.8741
516.3973	160.2391
516.5594	154.9999
516.7214	147.3382
516.8835	142.9752
517.0455	144.2533
517.2076	147.2363
517.3696	145.0773
517.5316	153.8466
517.6937	165.4818
517.8557	167.2337
518.0176	170.1009
518.1796	148.608
518.3416	139.6125
518.5036	139.8989
518.6656	148.2673
518.8275	161.8972
518.9895	166.4955
519.1514	165.3488
519.3134	163.9915
519.4753	166.4412
519.6373	163.4161
519.7992	168.3464
519.9611	168.3887
520.123	169.7367
520.2849	166.9989
520.4468	172.2074
520.6087	168.5892
520.7706	160.5419
520.9325	164.4285
521.0944	177.0732
521.2562	183.8539
521.4181	180.2941
521.58	180.363
521.7418	176.8353
521.9036	173.0972
522.0655	181.327
522.2273	178.8985
522.3891	178.1408
522.551	172.1572
522.7128	168.5836
522.8746	171.9688
523.0363	171.5957
523.1981	170.8109
523.3599	168.964
523.5217	168.8079
523.6835	179.4442
523.8452	176.2183
524.007	184.4655
524.1687	184.7264
524.3304	185.269
524.4922	186.9726
524.6539	183.5736
524.8157	185.8565
524.9774	175.4667
525.1391	179.2694
525.3008	182.6631
525.4625	181.9191
525.6241	180.8134
525.7858	188.0401
525.9475	191.5217
526.1092	183.42
526.2709	165.9148
526.4325	166.6806
526.5942	162.4704
526.7558	165.6858
526.9174	156.8666
527.079	158.4645
527.2407	164.3954
527.4023	170.0195
527.5639	180.4529
527.7255	175.2862
527.8871	181.7013
528.0487	183.1784
528.2103	179.1378
528.3718	179.2405
528.5334	178.8793
528.695	186.546
528.8565	196.0674
529.0181	196.6992
529.1796	193.6158
529.3412	191.868
529.5027	192.3377
529.6642	182.9614
529.8257	175.0194
529.9872	176.9905
530.1487	176.4335
530.3102	182.7812
530.4717	187.2095
530.6332	191.0636
530.7947	190.1589
530.9562	187.0258
531.1176	190.621
531.2791	192.4466
531.4405	189.5657
531.6019	185.0179
531.7634	187.1355
531.9248	182.0406
532.0862	187.3071
532.2477	183.3392
532.4091	176.6843
532.5704	177.12
532.7319	171.4839
532.8932	171.8816
533.0546	178.4969
533.216	186.3294
533.3774	186.8333
533.5388	190.4136
533.7001	185.5389
533.8615	185.7164
534.0228	188.8776
534.1841	186.1948
534.3455	177.3612
534.5068	183.2793
534.6681	185.1323
534.8293	180.9708
534.9907	178.1826
535.152	172.8698
535.3132	181.9082
535.4745	185.3077
535.6358	185.7234
535.7971	182.6293
535.9583	185.5542
536.1196	188.8102
536.2808	187.2699
536.4421	176.4627
536.6033	173.7677
536.7645	175.6362
536.9258	176.7698
537.087	182.5718
537.2482	181.7049
537.4094	184.2351
537.5706	186.6807
537.7318	185.487
537.8929	180.2426
538.0541	174.7309
538.2153	179.3916
538.3764	174.3684
538.5376	176.3886
538.6987	184.8857
538.8599	183.5379
539.021	186.0463
539.1821	179.9433
539.3432	183.5069
539.5043	171.8921
539.6655	167.9379
539.8265	171.3755
539.9876	182.6002
540.1487	176.3657
540.3098	174.1557
540.4708	172.8394
540.6319	173.0196
540.793	173.7082
540.954	177.4446
541.1151	171.6775
541.2761	174.0499
541.4371	182.4572
541.5981	177.7471
541.7592	185.005
541.9202	194.4277
542.0812	182.2798
542.2422	177.9736
542.4031	178.2578
542.5641	180.4685
542.7251	181.5254
542.886	187.8342
543.0471	177.2566
543.208	174.0939
543.369	176.83
543.5298	179.8558
543.6908	180.7883
543.8517	183.3622
544.0126	179.1542
544.1736	187.1326
544.3345	185.5165
544.4954	181.7082
544.6563	179.8089
544.8171	182.9527
544.978	183.3185
545.1389	188.7753
545.2997	193.5376
545.4606	182.8624
545.6215	182.8252
545.7823	180.0886
545.9432	189.2147
546.104	185.2581
546.2648	181.4354
546.4256	179.8087
546.5864	181.1263
546.7473	184.6667
546.908	184.6635
547.0688	184.2016
547.2296	182.4449
547.3904	183.3918
547.5511	176.8694
547.7119	176.4554
547.8727	176.2765
548.0334	177.8623
548.1942	177.2894
548.3549	189.6266
548.5156	184.1004
548.6763	186.9909
548.837	181.2164
548.9977	184.1995
549.1584	186.4793
549.3192	184.1573
549.4798	184.642
549.6405	185.0766
549.8011	185.0828
549.9619	185.6824
550.1225	186.4225
550.2831	178.2529
550.4438	184.4959
550.6044	188.5514
550.765	184.7562
550.9257	189.3678
551.0863	192.1696
551.2469	185.7155
551.4075	179.8238
551.5681	180.7909
551.7287	189.8358
551.8893	194.349
552.0498	191.5296
552.2104	187.1893
552.371	185.578
552.5315	176.7968
552.6921	179.541
552.8526	179.6892
553.0131	168.7041
553.1736	175.9986
553.3342	187.372
553.4947	181.5409
553.6552	183.744
553.8157	181.3506
553.9762	186.1328
554.1367	188.4815
554.2971	188.7324
554.4576	185.7358
554.618	184.8047
554.7785	184.7692
554.939	183.906
555.0994	185.045
555.2598	179.3758
555.4203	173.4431
555.5807	180.0843
555.7411	187.1723
555.9015	181.1909
556.0619	181.1758
556.2223	181.9568
556.3827	181.4537
556.5431	178.2459
556.7034	170.5661
556.8638	178.6914
557.0242	173.7394
557.1845	172.8482
557.3448	178.9743
557.5052	177.3204
557.6655	176.7535
557.8259	182.4712
557.9861	180.6053
558.1465	177.9175
558.3068	175.7906
558.467	173.9925
558.6274	171.3248
558.7877	171.1635
558.9479	171.6683
559.1082	172.6363
559.2684	172.8156
559.4287	172.6181
559.5889	171.3264
559.7491	177.2688
559.9094	173.7001
560.0696	167.2911
560.2299	166.3136
560.3901	172.0069
560.5502	177.59
560.7104	177.32
560.8707	178.1313
561.0308	177.6309
561.191	186.2891
561.3511	180.5612
561.5114	174.7698
561.6714	172.6816
561.8316	169.0358
561.9918	180.2274
562.1519	177.3559
562.312	178.6725
562.4722	173.7417
562.6323	175.0474
562.7924	175.8352
562.9525	181.3667
563.1125	178.8666
563.2726	177.3382
563.4327	180.7163
563.5928	180.4901
563.7528	172.8787
563.9129	172.1085
564.0729	171.0242
564.233	176.9389
564.393	177.9055
564.553	177.1493
564.7131	174.4318
564.873	180.043
565.0331	168.7153
565.1931	173.9699
565.353	172.1161
565.5131	169.1403
565.673	165.4274
565.833	169.5235
565.9929	163.3555
566.1529	171.4122
566.3129	165.9359
566.4728	159.4236
566.6328	166.9403
566.7927	175.0357
566.9526	171.1249
567.1125	170.8737
567.2724	171.5757
567.4323	179.598
567.5922	178.0954
567.7521	179.4102
567.9119	173.8962
568.0718	170.8576
568.2317	168.7937
568.3915	171.1293
568.5514	172.8181
568.7112	173.5207
568.871	171.6562
569.0309	168.7539
569.1907	176.2117
569.3505	170.1951
569.5103	175.036
569.6701	183.2462
569.8299	175.699
569.9897	176.6919
570.1495	167.5946
570.3092	164.8066
570.469	162.0943
570.6287	168.6204
570.7885	162.3793
570.9482	164.4126
571.108	161.5036
571.2677	162.6312
571.4274	168.2831
571.5871	168.9456
571.7468	165.5407
571.9066	165.9122
572.0662	172.2546
572.2259	168.6717
572.3856	179.5441
572.5452	170.9407
572.7049	173.3082
572.8646	169.4296
573.0242	171.8529
573.1838	169.2193
573.3435	164.72
573.5031	168.0441
573.6627	178.7321
573.8223	173.6585
573.9819	172.5221
574.1415	170.6193
574.3011	174.7857
574.4607	177.0926
574.6203	176.7778
574.7798	173.8286
574.9394	172.2796
575.099	177.6138
575.2585	169.1888
575.418	168.9675
575.5776	166.925
575.7371	167.4801
575.8966	170.9609
576.0562	176.6115
576.2156	164.875
576.3751	166.148
576.5346	175.2706
576.6941	174.1719
576.8536	177.2258
577.0131	175.716
577.1725	173.196
577.332	172.2038
577.4914	166.0084
577.6508	167.0168
577.8103	166.8726
577.9697	158.4626
578.1291	165.9281
578.2885	161.5146
578.4479	161.8708
578.6073	166.9393
578.7667	167.1528
578.9261	158.7956
579.0854	161.9404
579.2448	160.569
579.4042	158.2625
579.5635	163.4067
579.7229	162.9436
579.8822	167.1122
580.0416	162.9387
580.2009	163.5113
580.3602	166.3913
580.5195	160.796
580.6788	170.0922
580.8381	163.231
580.9974	161.8886
581.1566	165.3201
581.3159	163.0345
581.4752	167.3895
581.6345	168.5474
581.7937	168.2918
581.9529	163.3875
582.1122	161.4178
582.2714	162.2457
582.4306	162.0592
582.5898	158.4667
582.749	161.117
582.9082	163.3369
583.0674	164.2646
583.2266	163.3288
583.3857	162.8558
583.5449	164.2688
583.7041	165.4944
583.8633	159.0424
584.0224	160.9674
584.1815	161.8675
584.3407	165.1156
584.4998	167.0686
584.6589	165.7354
584.818	162.2106
584.9771	163.3529
585.1362	165.1379
585.2953	161.7103
585.4544	163.7054
585.6135	164.7482
585.7725	161.5127
585.9316	163.2751
586.0906	161.4201
586.2497	160.7055
586.4087	155.6006
586.5677	160.5917
586.7267	164.1512
586.8858	158.0587
587.0448	159.4871
587.2038	164.3798
587.3628	163.4566
587.5218	163.6352
587.6807	158.756
587.8397	157.0141
587.9987	160.1784
588.1577	161.1724
588.3166	155.1078
588.4755	152.2882
588.6345	153.2621
588.7934	149.8189
588.9523	137.3233
589.1112	133.4641
589.2701	131.8327
589.429	137.4142
589.5879	137.9334
589.7468	142.1963
589.9056	142.6857
590.0645	148.4942
590.2234	144.0235
590.3822	148.0788
590.5411	154.5158
590.6999	155.9872
590.8588	157.0817
591.0176	159.8228
591.1764	153.5426
591.3352	150.0862
591.494	151.9918
591.6528	145.164
591.8116	147.0788
591.9703	152.2074
592.1291	155.8241
592.2878	154.8694
592.4467	151.475
592.6053	155.0529
592.7641	156.6142
592.9229	155.3891
593.0816	154.3645
593.2403	157.0152
593.399	156.3643
593.5577	145.223
593.7164	153.1629
593.8751	142.8202
594.0338	143.6983
594.1924	144.4474
594.3511	146.7283
594.5098	142.619
594.6684	148.2343
594.8271	150.6955
594.9857	149.9532
595.1443	151.9912
595.303	156.8821
595.4615	154.1122
595.6202	146.5072
595.7787	140.9454
595.9374	142.9295
596.0959	150.564
596.2545	148.5114
596.4131	155.5123
596.5717	155.5279
596.7302	151.611
596.8887	152.4426
597.0473	148.3715
597.2058	147.0429
597.3644	147.8003
597.5229	149.2149
597.6814	149.0617
597.8399	147.2785
597.9984	153.6586
598.1569	148.8328
598.3154	151.1884
598.4738	149.0639
598.6323	145.9139
598.7908	147.7123
598.9492	146.3791
599.1076	148.064
599.2661	151.1546
599.4245	146.4974
599.5829	151.9056
599.7413	147.0243
599.8997	150.5277
600.0581	147.9867
600.2165	146.6676
600.3749	147.9872
600.5333	144.4758
600.6917	144.2557
600.85	144.0137
601.0084	148.5239
601.1667	147.3804
601.325	150.3721
601.4833	154.6618
601.6417	150.6529
601.8	148.0365
601.9583	144.3379
602.1166	143.586
602.2749	143.2964
602.4332	148.1129
602.5914	144.3738
602.7498	151.6909
602.908	154.0041
603.0662	153.0766
603.2245	155.0605
603.3828	149.9987
603.541	153.0656
603.6992	150.6634
603.8574	151.3854
604.0156	147.1467
604.1738	144.2257
604.332	149.9904
604.4902	151.9866
604.6484	152.8888
604.8065	144.5871
604.9647	144.5555
605.1229	149.3518
605.281	147.1016
605.4391	146.6069
605.5973	148.1297
605.7554	147.7905
605.9135	149.698
606.0717	150.1008
606.2297	151.2028
606.3878	152.7195
606.5459	148.6388
606.704	143.6106
606.8621	141.431
607.0201	153.6088
607.1782	149.4711
607.3362	144.1365
607.4943	151.3627
607.6523	155.0418
607.8104	148.9206
607.9684	153.8025
608.1264	146.174
608.2844	144.6573
608.4424	145.9495
608.6003	148.6191
608.7584	151.2304
608.9163	146.4489
609.0743	144.3988
609.2322	145.6546
609.3902	142.7141
609.5482	146.332
609.7061	141.6321
609.864	146.1137
610.0219	139.4544
610.1798	143.1248
610.3377	138.0159
610.4956	142.2663
610.6535	143.0064
610.8114	142.2728
610.9693	145.147
611.1271	143.171
611.285	140.8112
611.4429	148.1528
611.6007	147.0273
611.7585	139.3219
611.9164	143.4515
612.0742	139.0504
612.232	143.0221
612.3898	132.8997
612.5476	140.834
612.7054	143.1819
612.8632	144.1482
613.0209	145.7673
613.1787	146.3828
613.3365	143.6252
613.4942	138.7607
613.652	134.5727
613.8097	135.5171
613.9674	134.4115
614.1252	138.8187
614.2829	140.067
614.4406	139.6359
614.5983	142.0254
614.756	142.9633
614.9136	143.7274
615.0714	137.0774
615.229	141.5876
615.3867	133.8179
615.5443	139.5475
615.702	140.593
615.8596	138.8074
616.0172	134.708
616.1748	132.541
616.3325	131.1978
616.4901	129.6793
616.6476	133.5534
616.8052	140.2797
616.9628	142.6311
617.1204	136.3165
617.278	134.9907
617.4355	135.8539
617.5931	138.0794
617.7506	137.0667
617.9081	137.6121
618.0657	140.597
618.2232	140.718
618.3807	141.2486
618.5382	140.7226
618.6957	138.4183
618.8532	133.5764
619.0107	134.8196
619.1682	135.6385
619.3256	132.7153
619.4831	130.5621
619.6406	137.9828
619.798	133.1357
619.9554	130.2594
620.1129	142.5113
620.2703	142.9508
620.4277	138.3363
620.5851	141.1173
620.7425	136.863
620.8998	138.8996
621.0573	139.8931
621.2146	137.9424
621.372	135.3081
621.5294	132.8454
621.6867	131.798
621.8441	133.4689
622.0013	126.141
622.1587	132.5515
622.316	134.0026
622.4733	139.1767
622.6306	132.7728
622.7879	133.0715
622.9452	132.9118
623.1025	129.85
623.2598	138.0409
623.4171	134.507
623.5743	131.7599
623.7316	134.6161
623.8888	134.7677
624.046	136.2295
624.2032	132.3226
624.3605	134.8961
624.5176	131.9112
624.6749	132.0783
624.8321	126.1796
624.9893	132.4814
625.1464	129.7436
625.3036	130.2906
625.4608	127.2047
625.6179	122.2634
625.7751	124.8135
625.9322	125.5435
626.0894	135.5045
626.2465	130.5977
626.4036	129.1585
626.5607	128.9605
626.7178	125.1685
626.8749	125.828
627.032	131.421
627.189	126.2291
627.3461	133.1404
627.5032	126.7174
627.6602	132.1202
627.8173	126.369
627.9743	122.9422
628.1313	125.0938
628.2884	127.2159
628.4454	124.1537
628.6024	123.1921
628.7594	133.9347
628.9164	133.565
629.0734	128.9056
629.2303	123.0199
629.3873	129.1244
629.5443	129.0561
629.7012	131.2269
629.8582	129.89
630.0151	132.2508
630.172	124.2683
630.3289	125.1781
630.4858	122.2641
630.6428	127.8702
630.7996	124.5837
630.9565	129.7517
631.1134	129.6965
631.2703	129.0087
631.4272	123.1464
631.584	126.6768
631.7408	123.0616
631.8977	121.5023
632.0546	123.2368
632.2114	125.5957
632.3682	128.7245
632.525	128.0007
632.6818	130.2113
632.8386	124.7618
632.9954	127.2093
633.1522	124.5895
633.3089	122.4885
633.4657	125.8036
633.6224	122.9789
633.7792	117.7915
633.9359	118.6073
634.0927	123.8894
634.2494	129.4541
634.4061	130.3845
634.5628	127.7971
634.7195	121.8378
634.8762	122.1183
635.0329	127.1029
635.1895	127.6569
635.3462	125.3682
635.5029	126.5367
635.6595	123.4635
635.8162	126.1426
635.9728	125.9275
636.1295	121.7564
636.2861	125.3933
636.4427	123.2755
636.5992	126.0494
636.7559	131.7553
636.9124	133.3202
637.069	128.5799
637.2256	131.9745
637.3821	130.3974
637.5387	125.1037
637.6953	123.5375
637.8518	124.4576
638.0084	125.2403
638.1649	125.1581
638.3214	125.3043
638.4779	129.4107
638.6344	126.4714
638.7909	131.5667
638.9474	128.2499
639.1038	127.587
639.2603	120.9418
639.4167	117.5933
639.5732	123.1862
639.7297	118.6147
639.8861	121.7953
640.0425	123.7177
640.199	124.4714
640.3553	124.1661
640.5118	116.9199
640.6682	122.2752
640.8245	120.1235
640.981	113.7114
641.1373	114.7369
641.2936	121.8765
641.45	122.1949
641.6064	119.5546
641.7627	118.8009
641.9191	125.3115
642.0754	122.5455
642.2317	119.4011
642.388	121.5355
642.5443	122.8192
642.7006	127.4251
642.8569	123.1016
643.0131	118.8648
643.1694	113.8274
643.3257	116.8786
643.4819	117.6854
643.6382	124.4644
643.7944	117.7132
643.9506	116.2689
644.1069	112.9762
644.2631	114.6713
644.4193	117.3922
644.5754	121.708
644.7316	119.5474
644.8878	111.3666
645.044	114.5992
645.2002	114.947
645.3563	114.771
645.5125	116.2998
645.6686	116.386
645.8248	113.2554
645.9809	116.5418
646.137	116.9925
646.2931	109.2156
646.4492	109.8401
646.6053	114.789
646.7614	110.2181
646.9174	115.139
647.0735	117.536
647.2296	114.5622
647.3856	110.6623
647.5417	108.4327
647.6977	113.1796
647.8537	109.475
648.0098	107.1801
648.1658	109.9392
648.3218	111.3018
648.4777	112.487
648.6337	116.9892
648.7897	110.2155
648.9457	103.3055
649.1016	105.4354
649.2576	98.51424
649.4135	101.9379
649.5695	105.2257
649.7254	109.5333
649.8813	109.8773
650.0372	108.4436
650.1932	110.2053
650.3491	109.3332
650.5049	114.7208
650.6608	114.0958
650.8167	111.2164
650.9725	107.5891
651.1284	106.9459
651.2842	104.2121
651.4401	106.4445
651.5959	111.9784
651.7518	107.2543
651.9076	105.1929
652.0634	113.0957
652.2192	101.3879
652.3749	105.8731
652.5308	115.533
652.6865	105.2203
652.8423	108.5153
652.998	108.4708
653.1538	110.0053
653.3096	113.6821
653.4653	114.1542
653.621	113.4507
653.7767	112.939
653.9324	110.6533
654.0881	109.1551
654.2438	106.9697
654.3995	108.6012
654.5552	110.2681
654.7109	107.9173
654.8665	113.107
655.0222	112.0745
655.1778	110.3667
655.3334	108.8755
655.4891	101.5451
655.6447	100.788
655.8003	103.5338
655.9559	99.87193
656.1115	94.65977
656.2671	86.79626
656.4227	87.58853
656.5782	91.57151
656.7338	95.25159
656.8893	103.392
657.0449	98.72736
657.2004	101.3531
657.356	105.0294
657.5115	102.156
657.667	101.0988
657.8225	103.6314
657.978	100.9345
658.1335	104.8097
658.289	105.315
658.4445	107.1348
658.5999	108.3947
658.7554	109.9492
658.9108	108.9051
659.0663	108.6399
659.2217	107.1158
659.3771	110.7967
659.5325	105.9689
659.6879	107.2254
659.8433	107.45
659.9987	107.0995
660.1541	105.592
660.3095	107.4001
660.4648	109.3171
660.6202	107.2059
660.7756	106.099
660.9309	105.976
661.0862	105.5349
661.2416	106.2144
661.3969	108.4488
661.5522	109.8859
661.7075	111.8243
661.8628	111.1038
662.0181	113.9422
662.1733	111.9383
662.3286	112.3306
662.4839	110.787
662.6391	110.206
662.7944	107.1066
662.9496	103.6089
663.1048	107.1568
663.26	106.5245
663.4152	106.6081
663.5704	112.4634
663.7256	111.3836
663.8808	106.2279
664.036	105.574
664.1912	105.9603
664.3463	107.2287
664.5015	108.8344
664.6566	106.0569
664.8118	106.4496
664.9669	103.4204
665.122	109.5052
665.2771	112.7232
665.4322	105.7365
665.5873	105.1374
665.7424	110.7735
665.8975	107.4356
666.0526	105.59
666.2076	101.9506
666.3627	107.063
666.5177	105.2807
666.6727	104.7436
666.8278	106.9188
666.9828	109.2218
667.1378	105.7891
667.2928	108.7703
667.4478	107.7553
667.6028	104.5632
667.7578	104.3529
667.9127	106.7485
668.0677	104.8937
668.2226	109.9562
668.3776	107.6765
668.5325	107.6831
668.6874	107.5839
668.8423	99.95205
668.9973	102.694
669.1522	109.0169
669.3071	103.1252
669.4619	108.7461
669.6168	102.1031
669.7717	103.2499
669.9265	101.9558
670.0814	103.7786
670.2362	107.1584
670.3911	101.1236
670.5459	101.4078
670.7007	100.797
670.8555	99.67698
671.0103	106.8739
671.1651	103.0549
671.3199	104.6064
671.4747	107.6172
671.6295	103.7555
671.7842	104.4603
671.939	102.9472
672.0937	105.765
672.2484	101.7062
672.4031	99.26124
672.5579	102.7945
672.7126	103.8924
672.8673	103.2522
673.022	106.708
673.1767	100.2507
673.3314	100.2263
673.486	102.3397
673.6407	105.0338
673.7953	102.1354
673.95	96.43474
674.1046	95.06313
674.2592	102.8451
674.4138	103.2001
674.5684	101.3402
674.723	99.5881
674.8776	94.8466
675.0322	102.5635
675.1868	93.71844
675.3414	93.58018
675.4959	93.87573
675.6505	98.76007
675.805	99.27837
675.9595	103.7961
676.1141	99.66561
676.2686	95.86233
676.4231	97.50066
676.5776	100.8935
676.7321	95.65782
676.8866	98.88387
677.041	100.5685
677.1955	99.71781
677.35	94.88622
677.5044	95.03767
677.6589	96.52666
677.8133	100.3211
677.9677	96.48504
678.1221	96.07156
678.2766	99.76052
678.4309	104.9541
678.5853	94.99163
678.7397	97.99953
678.8941	98.54725
679.0485	95.71833
679.2028	90.80968
679.3571	89.33336
679.5115	95.87403
679.6658	95.19518
679.8201	93.91421
679.9744	96.73487
680.1288	94.36397
680.2831	103.0292
680.4373	93.27402
680.5916	93.64999
680.7459	90.37294
680.9001	95.95831
681.0544	89.88551
681.2087	94.84287
681.3629	93.31448
681.5171	90.86903
681.6713	91.12663
681.8256	95.84956
681.9797	89.8136
682.134	87.43845
682.2881	90.73772
682.4423	92.04137
682.5965	93.24128
682.7507	93.71888
682.9048	98.54241
683.059	93.20759
683.2131	93.78845
683.3672	93.99033
683.5213	90.75682
683.6754	95.86414
683.8295	87.0754
683.9836	89.38448
684.1377	89.67065
684.2918	93.31062
684.4459	88.03976
684.5999	88.21453
684.754	88.10021
684.908	88.37189
685.062	87.9472
685.2161	82.75609
685.3701	84.1207
685.5241	84.00422
685.6781	90.54217
685.8321	92.93668
685.9861	86.21671
686.14	85.44873
686.294	86.73536
686.4479	87.70419
686.6019	87.418
686.7559	78.58828
686.9098	72.83862
687.0637	66.04221
687.2176	65.63708
687.3715	70.11856
687.5254	69.50148
687.6793	72.12189
687.8332	74.58447
687.9871	78.60887
688.1409	85.68492
688.2947	81.74031
688.4486	81.09923
688.6024	83.22221
688.7563	79.96508
688.9101	75.51054
689.0639	75.05826
689.2177	79.11676
689.3715	79.03563
689.5253	79.87296
689.6791	79.13639
689.8328	79.00684
689.9866	84.35431
690.1403	81.68337
690.2941	87.14352
690.4478	82.78193
690.6015	81.96954
690.7552	78.08543
690.9089	75.97141
691.0626	79.99565
691.2164	81.74988
691.37	83.6623
691.5237	75.63288
691.6774	76.15446
691.831	79.76254
691.9847	81.96656
692.1383	82.02042
692.2919	77.13339
692.4456	79.25131
692.5992	78.53355
692.7527	78.9258
692.9064	82.47141
693.0599	78.64613
693.2136	79.7764
693.3671	79.03219
693.5207	80.80457
693.6742	80.85884
693.8278	85.20917
693.9813	82.62303
694.1348	77.89563
694.2883	84.79296
694.4418	77.76701
694.5953	76.03983
694.7488	74.15404
694.9023	76.88309
695.0558	73.71143
695.2093	76.85912
695.3627	79.83122
695.5162	81.90239
695.6696	77.23985
695.8231	77.87412
695.9764	84.22048
696.1299	75.48032
696.2833	76.91193
696.4367	80.71492
696.5901	79.87045
696.7435	82.71439
696.8968	77.89235
697.0502	80.62544
697.2036	82.99282
697.3569	81.08808
697.5102	76.93604
697.6635	75.42004
697.8168	79.43547
697.9702	78.32282
698.1235	75.68253
698.2768	77.02566
698.4301	77.78844
698.5833	75.66688
698.7366	76.12463
698.8898	78.52613
699.0431	75.09739
699.1964	74.45211
699.3495	74.08713
699.5028	77.19013
699.656	75.92309
699.8092	80.01645
699.9624	77.98228
700.1156	77.57834
700.2688	72.51325
700.4219	67.018
700.5751	75.21884
700.7283	81.0248
700.8814	77.09863
701.0345	78.00616
701.1877	81.06112
701.3408	88.02522
701.4939	76.2506
701.647	79.91791
701.8001	71.9304
701.9532	76.23167
702.1063	71.39771
702.2593	74.36563
702.4124	78.16394
702.5654	73.4939
702.7184	76.18964
702.8715	75.04123
703.0245	77.17306
703.1776	74.03143
703.3305	74.55616
703.4835	79.69955
703.6365	79.45161
703.7895	68.63729
703.9424	75.86749
704.0954	75.70703
704.2484	72.99161
704.4013	72.95814
704.5543	77.97509
704.7072	75.6873
704.8601	73.60777
705.013	75.83898
705.1659	79.64797
705.3188	72.1201
705.4717	71.64455
705.6246	76.65698
705.7774	79.3055
705.9303	75.25941
706.0831	72.35654
706.236	73.83631
706.3888	72.04279
706.5416	68.68345
706.6944	70.81284
706.8472	75.63979
707	77.07832
707.1528	73.8733
707.3056	72.52692
707.4583	75.31879
707.6111	77.77647
707.7639	78.22413
707.9166	75.76146
708.0693	78.81103
708.222	76.48058
708.3748	74.87375
708.5275	69.544
708.6802	73.93936
708.8328	73.79831
708.9855	72.91711
709.1382	74.79575
709.2909	72.90502
709.4435	75.404
709.5962	76.70797
709.7488	76.53748
709.9014	76.22775
710.054	76.62568
710.2067	69.96596
710.3593	74.54639
710.5118	74.23558
710.6644	74.18833
710.817	74.21249
710.9695	70.71474
711.1221	64.68419
711.2747	67.0799
711.4272	73.72546
711.5797	75.90086
711.7322	75.13769
711.8848	71.09538
712.0373	72.52144
712.1898	68.37885
712.3422	70.42841
712.4948	73.87743
712.6472	74.6932
712.7996	75.74094
712.9521	67.6432
713.1046	75.0238
713.257	72.48479
713.4094	66.30285
713.5618	72.60675
713.7142	73.22633
713.8666	74.18732
714.019	78.19564
714.1714	72.32001
714.3237	76.12506
714.4761	73.80521
714.6285	72.54172
714.7808	71.90369
714.9331	74.39428
715.0854	65.38293
715.2378	69.50615
715.3901	72.23399
715.5424	69.95766
715.6947	69.13514
715.8469	73.07494
715.9992	65.80659
716.1515	69.2683
716.3037	67.40498
716.456	66.60023
716.6082	66.01729
716.7604	63.65543
716.9127	66.36321
717.0649	65.1284
717.2171	61.85931
717.3693	57.23795
717.5214	53.97073
717.6736	61.81619
717.8258	60.5956
717.978	58.2188
718.1301	64.56292
718.2822	62.67981
718.4344	59.59248
718.5865	51.85422
718.7386	53.12104
718.8907	56.66102
719.0428	58.6711
719.1949	55.05327
719.3469	59.86934
719.499	63.67031
719.6511	62.3729
719.8031	62.0523
719.9551	59.00398
720.1072	55.46082
720.2592	55.43717
720.4112	58.71224
720.5632	59.81673
720.7152	62.43172
720.8672	64.98245
721.0192	65.96597
721.1711	66.54892
721.3231	66.59647
721.475	65.14862
721.627	64.15337
721.7789	68.38927
721.9308	68.29717
722.0828	65.42689
722.2347	66.07298
722.3866	67.35327
722.5385	68.52063
722.6903	70.3197
722.8422	63.65362
722.9941	62.59146
723.1459	65.98875
723.2977	60.61427
723.4496	54.93224
723.6014	57.00426
723.7532	58.24594
723.905	56.10512
724.0568	58.2407
724.2086	60.20542
724.3604	59.08474
724.5121	59.80429
724.6639	57.80577
724.8157	59.17921
724.9674	60.97628
725.1191	53.20743
725.2709	55.92241
725.4226	58.15752
725.5743	59.3891
725.726	60.31016
725.8777	58.48713
726.0294	61.34342
726.181	61.19742
726.3327	60.83209
726.4844	55.7267
726.636	55.10995
726.7877	58.67563
726.9393	63.7494
727.0909	61.83375
727.2425	62.83795
727.3941	61.61228
727.5457	56.79685
727.6973	56.56888
727.8488	56.4785
728.0004	61.72446
728.1519	59.02646
728.3035	61.94609
728.455	61.08864
728.6066	58.66293
728.7581	61.97622
728.9095	59.58046
729.0611	60.74126
729.2126	58.31906
729.364	56.06295
729.5155	58.80237
729.667	58.66331
729.8184	59.3227
729.9698	59.68192
730.1213	56.63206
730.2727	56.77118
730.4241	55.75088
730.5756	56.41668
730.7269	61.08099
730.8784	60.20643
731.0297	62.95354
731.1811	64.08644
731.3325	63.0901
731.4838	63.10358
731.6351	57.3154
731.7865	55.60955
731.9378	56.33003
732.0891	62.04992
732.2404	63.45212
732.3917	61.21033
732.543	63.59743
732.6943	60.62677
732.8456	58.09961
732.9968	61.55699
733.1481	61.52378
733.2993	61.65265
733.4506	64.14106
733.6018	61.03694
733.753	68.84022
733.9042	64.08875
734.0554	61.93438
734.2066	62.69097
734.3578	60.70868
734.509	60.5411
734.6602	60.23223
734.8113	61.73762
734.9624	65.75368
735.1136	55.79824
735.2647	56.8417
735.4158	58.46132
735.5669	63.35489
735.718	56.98976
735.8691	56.59984
736.0201	62.14292
736.1713	56.62714
736.3223	61.144
736.4733	62.31113
736.6244	59.97653
736.7755	59.09758
736.9265	63.3884
737.0775	63.19331
737.2285	60.78111
737.3795	60.84508
737.5305	57.74395
737.6815	60.88391
737.8324	62.99024
737.9834	61.78994
738.1343	63.20201
738.2853	65.46937
738.4362	62.985
738.5871	57.72778
738.738	59.61452
738.8889	56.59952
739.0399	57.814
739.1907	57.36361
739.3416	60.68389
739.4925	63.96959
739.6433	66.46177
739.7942	60.53962
739.945	62.87352
740.0958	63.84643
740.2467	61.11202
740.3975	64.86582
740.5483	66.29104
740.6991	66.31616
740.8499	65.74343
741.0007	60.84039
741.1514	59.92464
741.3022	60.34455
741.4529	60.44829
741.6036	59.16174
741.7544	63.29837
741.9051	63.27094
742.0558	62.27094
742.2065	60.80761
742.3572	60.30383
742.5079	57.20313
742.6586	59.41682
742.8093	59.76861
742.9599	57.47333
743.1105	60.5941
743.2612	54.49804
743.4118	59.41425
743.5624	64.90461
743.7131	58.71942
743.8636	55.6413
744.0142	56.30692
744.1648	56.53133
744.3154	59.26011
744.4659	60.01061
744.6165	59.68703
744.767	60.99025
744.9176	59.33915
745.0681	54.04902
745.2186	55.53556
745.3691	58.62037
745.5197	55.35006
745.6702	60.13198
745.8206	60.87199
745.9711	62.11564
746.1215	59.923
746.272	59.52145
746.4224	60.7041
746.5729	62.48844
746.7233	58.25668
746.8737	59.44692
747.0241	59.13112
747.1745	58.42682
747.3249	57.91788
747.4753	57.70459
747.6257	62.19632
747.776	60.00659
747.9264	58.11897
748.0767	61.03299
748.2271	60.09198
748.3774	58.56822
748.5276	59.02888
748.678	58.46481
748.8282	60.63716
748.9786	54.35364
749.1288	53.04356
749.2791	57.7697
749.4294	55.33034
749.5796	53.22648
749.7299	55.45058
749.8801	56.03291
750.0303	49.6888
750.1805	58.45799
750.3307	53.55996
750.4809	53.96644
750.6311	53.0938
750.7813	56.1375
750.9314	56.79094
751.0816	52.14699
751.2318	57.80349
751.3818	53.15
751.532	52.83557
751.6821	55.23853
751.8322	58.80541
751.9823	59.0725
752.1324	58.27951
752.2825	55.32394
752.4326	56.57727
752.5826	53.55379
752.7327	53.4133
752.8827	53.12796
753.0327	54.13596
753.1827	51.6834
753.3328	54.79018
753.4828	57.55727
753.6328	53.02994
753.7828	52.71666
753.9327	54.14738
754.0827	52.29318
754.2327	53.7519
754.3826	53.65722
754.5325	53.17294
754.6825	50.25064
754.8324	49.14086
754.9823	51.6754
755.1322	55.24314
755.2821	51.88203
755.432	50.23172
755.5818	53.00607
755.7318	54.32156
755.8816	51.86895
756.0314	53.60473
756.1813	51.77108
756.3311	47.90017
756.4809	49.7518
756.6307	46.84259
756.7805	46.56529
756.9303	49.70519
757.0801	48.25393
757.2299	50.28017
757.3796	53.0344
757.5294	53.24477
757.6791	51.51867
757.8289	48.63453
757.9786	52.13651
758.1283	52.89804
758.278	52.81357
758.4277	52.33575
758.5773	45.80172
758.7271	38.70858
758.8767	42.86131
759.0264	45.00465
759.176	52.63589
759.3256	46.67471
759.4753	39.38887
759.6249	33.05811
759.7745	28.32197
759.9241	29.78795
760.0737	28.59285
760.2233	28.76589
760.3729	24.87975
760.5224	25.20822
760.6719	26.11651
760.8215	27.91992
760.971	27.73948
761.1205	26.8066
761.2701	26.44702
761.4196	29.32133
761.5691	32.96522
761.7186	34.01213
761.868	39.53098
762.0175	38.9217
762.167	36.85711
762.3164	33.74681
762.4659	36.12098
762.6153	33.08335
762.7647	27.50243
762.9141	25.8424
763.0635	29.57922
763.2129	28.82273
763.3623	34.47222
763.5117	29.94814
763.661	32.42331
763.8104	34.09616
763.9597	29.13655
764.1091	37.59268
764.2584	36.00954
764.4077	33.24459
764.557	37.65123
764.7063	32.04174
764.8556	31.35368
765.0049	34.68908
765.1541	35.68066
765.3034	41.26607
765.4526	35.81142
765.6019	37.58286
765.7511	38.99277
765.9003	36.54316
766.0496	38.35147
766.1987	38.54978
766.348	37.25683
766.4971	42.5372
766.6463	40.68071
766.7955	37.56936
766.9446	44.53817
767.0938	41.19458
767.2429	35.79502
767.392	43.1335
767.5411	42.46227
767.6902	40.06406
767.8394	39.11766
767.9884	40.25004
768.1375	42.07165
768.2866	44.44328
768.4356	48.13817
768.5847	43.09448
768.7337	37.78553
768.8828	44.37338
769.0317	41.27267
769.1808	41.27961
769.3298	43.11459
769.4788	43.26171
769.6277	47.96451
769.7767	39.01144
769.9257	42.14933
770.0746	39.98174
770.2236	44.70135
770.3725	48.3646
770.5214	41.72873
770.6703	42.93624
770.8193	43.557
770.9681	43.50986
771.1171	42.41854
771.2659	37.61766
771.4148	45.03642
771.5637	41.95369
771.7125	42.5528
771.8613	43.89185
772.0101	44.39655
772.159	42.93452
772.3078	39.55486
772.4566	38.58064
772.6054	42.96633
772.7542	47.48561
772.903	43.21255
773.0517	39.46356
773.2004	39.41989
773.3492	40.1369
773.4979	42.82203
773.6467	47.66517
773.7953	39.88205
773.944	42.60009
774.0928	34.79149
774.2415	38.07122
774.3901	42.53117
774.5388	37.60509
774.6874	45.83861
774.8361	44.84746
774.9847	38.6198
775.1334	37.97044
775.282	43.79889
775.4305	44.19126
775.5792	42.42684
775.7277	41.7612
775.8763	45.78723
776.0249	42.1361
776.1735	39.02822
776.322	44.12691
776.4705	42.65281
776.6191	39.32125
776.7676	43.71952
776.9161	43.98391
777.0646	37.73215
777.2131	36.97174
777.3616	41.16505
777.5101	39.60798
777.6585	38.37448
777.8069	39.33186
777.9554	38.23765
778.1038	39.09503
778.2523	40.64761
778.4007	37.07883
778.5491	41.27799
778.6974	38.73508
778.8459	38.12932
778.9942	36.12854
779.1426	36.82273
779.291	40.0386
779.4393	37.90987
779.5876	40.5029
779.736	33.02383
779.8843	38.22391
780.0326	41.4217
780.1809	44.94757
780.3292	41.0936
780.4775	39.97487
780.6257	41.46815
780.774	38.59818
780.9222	40.25093
781.0704	42.34819
781.2187	41.04585
781.3669	39.46483
781.5151	40.54095
781.6633	40.76791
781.8115	40.02529
781.9597	39.62306
782.1078	43.00087
782.256	36.20556
782.4042	33.87336
782.5523	39.85923
782.7004	39.09133
782.8486	36.52017
782.9967	41.80018
783.1448	40.34773
783.2929	38.68964
783.441	35.64457
783.5891	39.01984
783.7371	36.14206
783.8851	35.48747
784.0332	36.82058
784.1812	41.57147
784.3293	42.47168
784.4773	41.14938
784.6253	39.56737
784.7733	36.76884
784.9213	37.83
785.0692	37.44818
785.2172	39.83117
785.3652	35.93386
785.5131	37.09468
785.6611	40.29713
785.809	34.91121
785.9569	40.23269
786.1048	40.45917
786.2527	39.31027
786.4006	38.14015
786.5485	37.50017
786.6964	33.21741
786.8442	33.50466
786.9921	32.89438
787.1399	37.64745
787.2877	31.33969
787.4355	36.53133
787.5833	35.68609
787.7311	38.91164
787.8789	39.14206
788.0267	30.64516
788.1745	31.01157
788.3223	34.73578
788.47	32.39957
788.6177	35.73095
788.7654	41.49573
788.9132	37.63644
789.0609	33.17143
789.2086	33.39874
789.3563	33.93285
789.504	32.92081
789.6517	34.28419
789.7993	35.80159
789.947	38.80274
790.0946	33.84182
790.2422	37.19502
790.3898	34.07175
790.5375	34.90869
790.6851	37.68486
790.8326	34.82267
790.9802	33.76029
791.1278	32.44459
791.2754	32.38302
791.423	32.87885
791.5705	31.79709
791.718	34.09103
791.8655	31.39729
792.0131	36.18634
792.1606	31.5034
792.308	29.3417
792.4556	30.82191
792.603	33.76373
792.7505	30.14606
792.8979	34.7341
793.0454	33.9151
793.1928	30.82925
793.3403	32.67525
793.4877	35.85471
793.6351	34.37911
793.7825	34.2375
793.9299	31.29878
794.0772	34.86
794.2246	34.23024
794.3719	33.76754
794.5193	31.83739
794.6666	31.69879
794.814	31.31597
794.9613	30.18613
795.1086	36.7373
795.2559	35.25954
795.4032	29.51515
795.5505	32.28771
795.6978	34.29516
795.845	33.9642
795.9922	37.34775
796.1395	34.46554
796.2867	38.22338
796.4339	34.65365
796.5811	31.77748
796.7283	36.29259
796.8755	34.58275
797.0227	33.24301
797.1699	34.23721
797.317	30.16739
797.4642	29.49403
797.6113	30.6184
797.7584	31.99042
797.9056	32.73681
798.0527	34.5413
798.1998	33.19781
798.3469	34.89092
798.494	32.94909
798.641	28.27634
798.7881	28.41068
798.9351	34.20634
799.0822	29.96673
799.2292	28.74625
799.3762	30.56292
799.5232	34.16188
799.6702	30.99948
799.8172	28.89337
799.9642	32.06072
800.1111	33.0934
800.2581	31.82621
800.4051	28.56275
800.552	28.24606
800.6989	27.68989
800.8458	31.74494
800.9927	30.80922
801.1396	30.4433
801.2866	30.77404
801.4334	24.83546
801.5803	31.01517
801.7272	29.93801
801.874	27.51744
802.0209	25.94852
802.1677	24.9817
802.3145	28.1677
802.4613	31.15183
802.6081	32.02797
802.7549	30.76742
802.9017	30.63539
803.0485	27.63716
803.1952	32.8667
803.342	30.54216
803.4887	34.40574
803.6354	29.23019
803.7822	29.30119
803.9289	35.31651
804.0756	31.59426
804.2223	26.70868
804.369	30.94275
804.5156	26.48722
804.6623	30.78811
804.8089	27.91623
804.9556	27.28201
805.1022	29.65861
805.2488	24.74425
805.3954	23.53735
805.542	27.23356
805.6886	27.03884
805.8352	26.39736
805.9818	29.21889
806.1283	27.32678
806.2749	29.21423
806.4214	26.00091
806.5679	28.88192
806.7145	30.04473
806.861	26.27991
807.0074	24.24199
807.154	24.1146
807.3004	29.20507
807.4469	27.46126
807.5934	27.26629
807.7398	28.55084
807.8862	25.39743
808.0327	27.14588
808.1791	22.93419
808.3255	27.54888
808.4719	25.99745
808.6183	29.88565
808.7647	28.07445
808.9111	25.733
809.0574	22.9295
809.2037	24.21496
809.3501	23.55657
809.4965	26.90887
809.6428	27.57395
809.7891	20.57443
809.9354	22.79338
810.0817	23.02666
810.2279	24.37894
810.3742	27.87183
810.5204	23.58941
810.6667	22.17175
810.8129	21.44529
810.9592	25.97442
811.1054	22.36344
811.2516	23.54623
811.3978	26.05818
811.5439	25.66476
811.6901	23.88743
811.8363	25.83534
811.9825	26.0031
812.1286	25.57049
812.2748	26.21725
812.4209	26.4921
812.567	25.47071
812.7131	24.71536
812.8592	24.18035
813.0053	25.56505
813.1514	22.82058
813.2974	23.34375
813.4435	21.06545
813.5895	23.68833
813.7356	22.59433
813.8816	18.71053
814.0276	23.62475
814.1736	22.79663
814.3196	24.59561
814.4656	22.04746
814.6116	22.57825
814.7576	23.69324
814.9035	23.36239
815.0494	21.05751
815.1954	18.94098
815.3413	18.30536
815.4872	17.73422
815.6331	19.23335
815.779	24.1342
815.9249	22.89743
816.0707	22.95894
816.2166	19.74965
816.3625	19.09894
816.5083	20.61572
816.6542	20.56709
816.8	23.32617
816.9458	22.55879
817.0916	26.77293
817.2374	18.18674
817.3832	19.65293
817.5289	26.17895
817.6747	21.77183
817.8204	22.19301
817.9662	20.94607
818.1119	13.44646
818.2576	21.14065
818.4034	22.17864
818.5491	24.45411
818.6948	21.53729
818.8405	18.30174
818.9861	21.45275
819.1318	23.757
819.2774	25.05417
819.423	18.81664
819.5687	19.84184
819.7143	20.99782
819.8599	17.05704
820.0055	21.19354
820.1511	21.60353
820.2967	18.72025
820.4422	22.38108
820.5878	29.67425
820.7333	25.22363
820.8788	25.49724
821.0244	25.30253
821.1699	24.22788
821.3154	23.0774
821.4609	25.60918
821.6064	23.3767
821.7519	25.07585
821.8973	22.86999
822.0428	21.34286
822.1882	22.38757
822.3337	18.6343
822.4791	19.8761
822.6245	18.03798
822.7699	19.24304
822.9153	18.72843
823.0607	13.1354
823.2061	19.45806
823.3514	17.52795
823.4968	17.44696
823.6422	17.40299
823.7875	22.01404
823.9328	25.28429
824.0781	19.65007
824.2234	17.05058
824.3687	19.89941
824.514	20.18365
824.6592	19.12635
824.8045	21.31374
824.9498	24.39463
825.095	22.56258
825.2402	19.30651
825.3854	20.94857
825.5306	20.0659
825.6758	22.56216
825.821	20.16826
825.9662	20.24377
826.1114	22.36024
826.2565	22.99402
826.4017	26.29043
826.5468	20.60571
826.692	24.50223
826.837	22.46222
826.9822	21.84458
827.1273	19.75007
827.2723	18.33509
827.4174	17.65399
827.5625	20.7017
827.7075	20.96675
827.8526	21.50483
827.9976	23.86949
828.1426	21.17981
828.2877	18.8359
828.4327	21.65342
828.5776	17.36988
828.7227	24.69403
828.8676	18.76556
829.0126	18.54362
829.1575	24.19955
829.3024	26.85795
829.4474	22.06533
829.5923	21.26761
829.7372	20.51453
829.8821	25.23576
830.027	24.64595
830.1719	19.57224
830.3168	15.8699
830.4616	16.51608
830.6064	14.28683
830.7513	17.0259
830.8961	16.52075
831.041	15.92823
831.1857	17.54974
831.3306	14.15235
831.4753	16.59492
831.6201	18.30196
831.7649	14.16031
831.9096	20.71341
832.0544	17.25637
832.1991	15.37817
832.3438	16.55596
832.4885	19.87482
832.6332	19.80639
832.778	15.70043
832.9226	19.73453
833.0673	18.1525
833.2119	20.36464
833.3566	14.06359
833.5012	14.4058
833.6459	17.10325
833.7905	19.56631
833.9351	20.75392
834.0797	17.37347
834.2243	17.28075
834.3688	18.12198
834.5134	21.12845
834.658	19.88378
834.8026	22.92992
834.9471	14.00862
835.0916	20.61243
835.2361	23.1617
835.3806	23.20455
835.5251	21.01464
835.6696	22.13216
835.8141	20.54147
835.9586	18.10569
836.103	16.85125
836.2474	19.92263
836.3918	19.77322
836.5363	21.15961
836.6807	25.17525
836.8251	19.06286
836.9695	18.64561
837.1138	14.67698
837.2582	21.5141
837.4026	22.92372
837.5469	16.31921
837.6913	13.31544
837.8356	16.75316
837.9799	14.59113
838.1242	20.90525
838.2686	19.34653
838.4128	19.62655
838.5571	19.17852
838.7014	17.84581
838.8456	19.91817
838.9899	19.45687
839.1341	22.56053
839.2783	18.71864
839.4225	22.64822
839.5667	16.07601
839.7109	16.19246
839.8551	16.97725
839.9993	21.89508
840.1434	24.80689
840.2876	22.22837
840.4317	20.27419
840.5759	17.05078
840.72	16.34253
840.8641	13.0079
841.0082	18.17491
841.1523	19.53443
841.2963	12.27382
841.4404	15.37725
841.5845	21.44456
841.7285	18.4674
841.8726	16.29112
842.0165	15.53679
842.1606	16.5456
842.3046	14.2065
842.4485	18.78204
842.5925	21.3271
842.7365	16.53425
842.8805	17.96482
843.0244	13.77455
843.1684	18.76223
843.3123	15.66697
843.4562	15.61771
843.6002	16.31716
843.744	17.84826
843.8879	16.09425
844.0318	18.90001
844.1757	20.37421
844.3195	14.90603
844.4634	15.86497
844.6072	21.36959
844.751	24.15524
844.8948	20.35463
845.0386	19.36439
845.1824	20.80913
845.3262	19.04028
845.47	13.11702
845.6138	18.88802
845.7575	21.55873
845.9012	20.28444
846.045	21.44998
846.1887	17.79989
846.3324	14.63252
846.4761	17.79816
846.6198	16.28009
846.7635	16.99829
846.9071	21.50377
847.0508	19.18809
847.1944	20.18462
847.3381	21.05394
847.4817	16.25305
847.6253	20.04513
847.7689	18.11844
847.9125	20.69467
848.0561	18.5921
848.1996	18.06257
848.3432	14.08053
848.4868	16.22117
848.6303	17.03645
848.7738	17.35148
848.9174	14.35916
849.0609	15.10725
849.2043	18.73389
849.3478	13.65174
849.4913	18.53733
849.6348	20.37223
849.7782	15.60027
849.9217	11.70561
850.0651	19.92943
850.2086	18.56635
850.3519	20.3099
850.4954	19.55584
850.6387	10.78159
850.7821	19.08022
850.9255	22.19061
851.0688	16.43283
851.2122	11.01117
851.3555	17.20253
851.4988	13.0694
851.6422	14.59531
851.7855	17.39184
851.9288	17.26188
852.0721	13.41292
852.2153	13.25512
852.3586	15.13503
852.5018	17.24022
852.6451	16.13244
852.7883	18.47461
852.9315	16.09047
853.0748	16.08301
853.218	20.51309
853.3611	19.13158
853.5043	19.23053
853.6475	15.91763
853.7906	14.19372
853.9338	17.64971
854.0769	16.59543
854.22	16.77488
854.3632	14.04585
854.5063	15.59555
854.6494	16.17214
854.7924	12.47473
854.9355	15.61365
855.0786	18.78045
855.2216	16.63401
855.3647	14.83914
855.5077	15.59772
855.6507	16.97116
855.7937	15.21147
855.9367	14.83033
856.0797	14.77833
856.2227	22.59762
856.3657	17.68398
856.5086	16.62214
856.6516	17.7468
856.7945	16.0732
856.9374	15.63982
857.0803	15.76411
857.2232	17.94639
857.3661	13.26586
857.509	15.50275
857.6519	9.607201
857.7947	12.32558
857.9376	12.68404
858.0804	14.81216
858.2232	15.23401
858.366	13.78098
858.5089	13.42519
858.6516	16.56294
858.7944	16.9555
858.9372	14.1606
859.08	22.4977
859.2227	17.83432
859.3654	17.19525
859.5082	17.99697
859.6509	12.44911
859.7936	13.44759
859.9363	10.71335
860.079	14.23047
860.2217	15.32873
860.3643	12.75638
860.507	11.15688
860.6496	14.16487
860.7922	16.98747
860.9349	14.38459
861.0775	9.666144
861.2201	15.53764
861.3627	13.42351
861.5052	16.27804
861.6478	18.22978
861.7904	20.42257
861.9329	13.64654
862.0755	13.98627
862.218	14.92999
862.3605	15.74288
862.503	14.77313
862.6455	18.14505
862.788	16.76965
862.9305	14.4264
863.0729	11.84318
863.2154	15.94649
863.3578	14.3554
863.5002	10.03037
863.6426	15.06076
863.7851	16.42182
863.9275	15.50808
864.0698	12.36445
864.2122	9.2708
864.3546	10.59679
864.4969	14.97157
864.6393	12.22885
864.7816	11.02217
864.924	9.115104
865.0662	16.19623
865.2086	15.48322
865.3508	14.21423
865.4931	13.32987
865.6354	15.02006
865.7776	14.90247
865.9199	11.91985
866.0621	6.671602
866.2043	12.85838
866.3466	12.95134
866.4888	12.9908
866.6309	11.02476
866.7731	16.2924
866.9153	15.12243
867.0574	12.67611
867.1996	13.94617
867.3417	13.19561
867.4839	14.76287
867.626	13.22333
867.7681	13.97558
867.9102	14.81962
868.0522	14.16509
868.1943	10.34187
868.3364	16.48023
868.4785	15.03204
868.6205	12.77345
868.7625	15.01014
868.9045	12.86229
869.0465	12.09151
869.1885	14.37335
869.3305	17.20165
869.4725	17.41862
869.6144	14.00013
869.7564	13.62862
869.8983	11.05885
870.0403	11.04099
870.1822	16.81096
870.3241	16.70162
870.466	13.39181
870.6079	7.345128
870.7498	13.65438
870.8916	13.21275
871.0335	16.62033
871.1754	15.70375
871.3171	13.93893
871.459	14.50013
871.6008	12.45237
871.7426	11.29337
871.8844	11.51705
872.0262	13.90956
872.1679	13.09447
872.3097	15.21451
872.4514	14.37933
872.5931	9.455928
872.7349	11.05919
872.8766	10.91457
873.0183	14.36904
873.16	14.63062
873.3017	13.24887
873.4434	12.03004
873.585	14.42063
873.7266	10.60265
873.8683	11.70453
874.0099	15.2356
874.1516	13.58536
874.2932	12.57223
874.4348	13.00105
874.5763	13.18389
874.7179	12.92107
874.8594	9.405747
875.001	13.12501
875.1425	14.36701
875.2841	9.922944
875.4256	8.036146
875.5671	10.27606
875.7086	12.46321
875.85	16.48669
875.9915	15.95373
876.133	15.11933
876.2744	15.18916
876.4159	9.032815
876.5573	6.170123
876.6987	12.15889
876.8401	14.64059
876.9815	10.04148
877.1229	9.297451
877.2643	12.02194
877.4056	12.04071
877.547	14.53179
877.6884	16.41927
877.8297	12.88974
877.971	14.78724
878.1123	10.71906
878.2536	6.688793
878.3949	14.30433
878.5362	12.72787
878.6774	12.37261
878.8187	13.78029
878.9599	12.28879
879.1011	14.54412
879.2424	14.09913
879.3836	18.1329
879.5248	16.65972
879.666	11.27834
879.8071	10.63791
879.9483	12.00592
880.0895	16.65561
880.2306	14.26661
880.3718	14.95118
880.5129	11.8994
880.654	6.893262
880.7951	9.422186
880.9362	12.35017
881.0773	12.73324
881.2183	12.2135
881.3594	11.84971
881.5004	8.611221
881.6414	13.81518
881.7825	7.069568
881.9235	7.701593
882.0645	9.253156
882.2054	14.45879
882.3464	9.418647
882.4874	9.355195
882.6284	9.649874
882.7693	9.099898
882.9103	13.30113
883.0512	12.07692
883.1921	12.93399
883.333	8.533757
883.4739	10.30564
883.6147	16.80556
883.7556	11.00055
883.8965	8.398455
884.0374	9.50869
884.1782	10.64147
884.319	8.043549
884.4598	7.689714
884.6006	8.005118
884.7414	11.86779
884.8822	9.047498
885.0229	9.360407
885.1637	10.6514
885.3044	8.129085
885.4452	8.856031
885.5859	7.447309
885.7266	10.72734
885.8673	12.8285
886.008	9.477888
886.1487	9.18707
886.2894	9.184867
886.43	11.21448
886.5707	14.44642
886.7113	11.58858
886.8519	6.462079
886.9926	8.398111
887.1331	9.027911
887.2737	12.21218
887.4143	14.62253
887.5549	16.09189
887.6954	12.11806
887.836	10.83443
887.9765	10.3307
888.1171	10.10844
888.2576	8.972511
888.3981	13.56762
888.5386	11.11359
888.679	14.22155
888.8195	14.23704
888.96	8.094518
889.1004	10.66695
889.2408	9.741982
889.3813	11.31797
889.5217	7.136332
889.6621	14.69878
889.8025	7.354741
889.9429	10.49734
890.0833	5.975699
890.2236	10.32761
890.364	13.40812
890.5043	9.778107
890.6446	10.67988
890.7849	11.77316
890.9252	13.19262
891.0655	13.07287
891.2058	11.22415
891.3461	9.049739
891.4863	11.04029
891.6266	15.28351
891.7668	14.30314
891.907	8.68324
892.0472	9.495937
892.1874	11.71709
892.3276	13.2908
892.4678	12.04268
892.608	10.93609
892.7481	16.64648
892.8883	14.57632
893.0284	10.90608
893.1685	8.763859
893.3087	8.68025
893.4487	6.867734
893.5889	6.098288
893.7289	7.74775
893.869	10.30371
894.009	9.192588
894.1491	9.253858
894.2891	6.014526
894.4291	6.780787
894.5692	6.43021
894.7092	8.10441
894.8491	11.79368
894.9891	9.766677
895.1291	8.181258
895.269	9.01459
895.409	11.96907
895.549	5.199095
895.6888	6.561892
895.8288	13.35084
895.9687	11.62529
896.1086	9.520234
896.2484	6.293794
896.3883	7.741695
896.5281	9.852975
896.668	9.970183
896.8079	8.156074
896.9476	7.734237
897.0875	8.526525
897.2272	10.00367
897.3671	11.0274
897.5068	8.013762
897.6466	7.351919
897.7864	10.73382
897.9261	15.06233
898.0658	12.14568
898.2056	7.669704
898.3453	6.975217
898.4849	6.278144
898.6246	9.283072
898.7643	5.414057
898.904	10.58646
899.0436	7.592512
899.1833	4.433174
899.3229	7.057644
899.4625	9.341828
899.6021	7.974661
899.7417	5.978665
899.8813	8.514201
900.0209	7.624285
900.1605	11.74874
900.3	3.708944
900.4395	4.56262
900.579	10.51
900.7186	5.828041
900.8581	5.810352
900.9976	0.4457666
901.1371	7.960802
901.2766	8.299682
901.416	10.36788
901.5555	10.1909
901.6949	7.99596
901.8344	10.72716
901.9738	10.2715
902.1132	11.36726
902.2526	8.741037
902.3919	5.819492
902.5313	8.344119
902.6707	10.58933
