SPECTRUM DATA FILE
SpectrumCount:	1
PixelCount:	3648
UserName:	ToughBook User
SampleName:	
LightSource:	
Comments:	
DeviceName:	Qwave
DeviceManufacturer:	Broadcom
DeviceSerialNo:	11311

Name:	last spectrum
Date:	2024-05-02T15:03:32.4639299+02:00
ExposureTime:	0.02
TemporalAvg:	1
IntensityUnit:	normalizedCounts
CCDLoadLevel:	0.04367566
Temperature:	29.23276
DiagramColor:	200
ProcessingSteps:	335

Wavelength [nm]	Intensity1
334.421	10.21106
334.5891	13.74606
334.7573	12.30497
334.9254	9.769002
335.0935	12.84793
335.2616	15.82712
335.4297	11.11971
335.5978	10.14095
335.7659	12.08593
335.934	14.32029
336.1021	8.880267
336.2701	5.607115
336.4382	13.05224
336.6063	15.34502
336.7744	15.01836
336.9424	10.91914
337.1105	8.639476
337.2785	11.36546
337.4466	14.81515
337.6146	11.64824
337.7827	10.73484
337.9507	7.13246
338.1187	11.09872
338.2867	12.23509
338.4548	12.4116
338.6228	14.26883
338.7908	11.18766
338.9588	12.25578
339.1268	13.7971
339.2948	11.75976
339.4628	9.792725
339.6308	6.677319
339.7988	13.15367
339.9667	12.61272
340.1347	13.10641
340.3027	9.541961
340.4707	12.50964
340.6386	9.675808
340.8066	11.78277
340.9745	10.00981
341.1425	11.21344
341.3104	13.44015
341.4784	8.056712
341.6463	6.990686
341.8142	14.58436
341.9821	12.06719
342.1501	12.76252
342.318	10.29187
342.4859	12.80419
342.6538	14.40957
342.8217	11.65365
342.9896	12.20439
343.1575	10.40909
343.3254	12.20318
343.4933	13.96472
343.6612	10.67974
343.829	11.78384
343.9969	10.10516
344.1648	16.49057
344.3326	16.00624
344.5005	10.75918
344.6683	9.97032
344.8362	11.80246
345.004	12.22283
345.1719	11.18771
345.3397	9.423993
345.5075	11.12537
345.6754	13.52749
345.8432	14.55421
346.011	11.05497
346.1788	6.46667
346.3466	12.42357
346.5144	12.15151
346.6822	11.93757
346.85	18.374
347.0178	12.17111
347.1856	13.04189
347.3534	13.74652
347.5211	15.32017
347.6889	10.80336
347.8567	11.58469
348.0244	13.55446
348.1922	11.73768
348.3599	16.03319
348.5277	15.46978
348.6954	14.23474
348.8632	7.170313
349.0309	10.05878
349.1986	11.33579
349.3663	10.60962
349.5341	9.614957
349.7018	9.819859
349.8695	12.50268
350.0372	9.004417
350.2049	12.41555
350.3726	16.07739
350.5403	13.20743
350.7079	12.34646
350.8756	13.59665
351.0433	11.83504
351.211	11.0985
351.3786	13.76819
351.5463	13.53267
351.714	14.06201
351.8816	13.71028
352.0493	13.91357
352.2169	14.30206
352.3846	10.29044
352.5522	8.44916
352.7198	13.6926
352.8875	16.59291
353.0551	17.74926
353.2227	17.89786
353.3903	17.8294
353.5579	18.46325
353.7255	13.88311
353.8931	19.6112
354.0607	16.44957
354.2283	17.06611
354.3958	21.74438
354.5634	17.40638
354.731	15.70624
354.8986	20.2042
355.0661	17.78048
355.2337	19.03632
355.4012	19.06798
355.5688	15.07473
355.7363	12.89156
355.9039	18.14157
356.0714	18.20619
356.239	17.62695
356.4065	20.00629
356.574	11.4094
356.7415	6.55455
356.909	11.74869
357.0765	12.02577
357.244	18.14349
357.4115	14.67748
357.579	14.48159
357.7465	13.44471
357.914	11.90947
358.0815	10.52387
358.249	13.51667
358.4164	14.29736
358.5839	18.45532
358.7513	14.70988
358.9188	14.64716
359.0862	10.76913
359.2537	11.73992
359.4211	17.20444
359.5886	16.35623
359.756	19.25434
359.9234	17.6026
360.0909	16.51592
360.2583	19.77262
360.4257	14.97791
360.5931	15.16396
360.7605	13.87545
360.9279	13.15264
361.0953	15.17525
361.2627	17.25572
361.4301	17.45724
361.5974	14.50087
361.7648	16.12479
361.9322	11.93026
362.0995	14.55554
362.2669	16.48108
362.4343	18.49237
362.6016	16.71013
362.769	17.64405
362.9363	21.87367
363.1036	18.22876
363.271	14.12265
363.4383	18.1277
363.6056	21.59827
363.7729	20.97967
363.9402	20.37764
364.1075	18.21911
364.2748	21.42192
364.4421	21.54936
364.6094	15.45702
364.7767	18.73256
364.944	17.31929
365.1113	14.90048
365.2786	23.48867
365.4458	25.55874
365.6131	16.49332
365.7803	19.64012
365.9476	17.58154
366.1148	16.24908
366.2821	19.55948
366.4493	20.24607
366.6166	20.48063
366.7838	22.09926
366.951	16.97838
367.1182	19.55238
367.2855	19.57676
367.4527	19.15472
367.6199	22.63263
367.7871	17.09329
367.9543	19.46152
368.1215	18.54058
368.2886	20.4959
368.4558	23.31488
368.623	21.14497
368.7902	18.55463
368.9573	19.11877
369.1245	19.01785
369.2917	21.25328
369.4588	20.59636
369.6259	24.51914
369.7931	19.61832
369.9602	25.03824
370.1274	24.20749
370.2945	24.81611
370.4616	21.8635
370.6287	20.48834
370.7958	23.35746
370.963	22.09935
371.1301	26.31969
371.2971	23.47335
371.4643	20.08144
371.6313	22.20551
371.7984	19.46285
371.9655	19.93262
372.1326	18.97095
372.2997	16.89432
372.4667	17.71738
372.6338	20.4127
372.8008	19.98506
372.9679	17.9853
373.1349	18.24967
373.3019	22.97308
373.469	19.50199
373.636	20.45174
373.803	20.90885
373.9701	20.98718
374.1371	20.60227
374.3041	19.37167
374.4711	22.53392
374.6381	20.47763
374.8051	12.61198
374.9721	18.70599
375.1391	24.94815
375.3061	27.05354
375.473	22.18197
375.64	23.58226
375.8069	24.74405
375.9739	23.4044
376.1409	21.19945
376.3078	21.9175
376.4748	20.26763
376.6417	19.92706
376.8087	21.77293
376.9756	27.14857
377.1425	23.30939
377.3094	25.80069
377.4763	28.90073
377.6432	29.60502
377.8102	26.82344
377.9771	29.36503
378.144	31.74379
378.3109	31.00537
378.4777	26.8623
378.6446	25.25452
378.8115	25.37588
378.9784	22.41283
379.1452	22.64037
379.3121	22.15756
379.4789	23.7231
379.6458	19.78361
379.8127	20.0481
379.9795	22.98669
380.1463	25.81243
380.3131	27.34636
380.48	28.1007
380.6468	27.59957
380.8136	27.82833
380.9804	28.84882
381.1472	26.81626
381.314	23.03594
381.4808	21.75439
381.6476	24.36692
381.8144	23.44085
381.9812	19.52568
382.148	21.03636
382.3147	24.90522
382.4815	20.4639
382.6483	20.44944
382.815	18.22547
382.9818	19.48079
383.1485	22.10698
383.3153	19.66349
383.482	19.99954
383.6487	21.44179
383.8155	23.90285
383.9822	24.61092
384.1489	25.26283
384.3156	25.20908
384.4823	23.50552
384.649	27.60248
384.8157	28.07509
384.9824	26.56726
385.1491	30.09406
385.3158	27.6642
385.4825	28.02783
385.6491	26.72429
385.8158	27.74771
385.9825	28.8559
386.1491	30.10505
386.3157	31.67806
386.4824	30.24871
386.649	30.01911
386.8157	25.93848
386.9823	26.63721
387.1489	26.53505
387.3156	24.87532
387.4821	27.5606
387.6488	30.99153
387.8154	27.81141
387.982	27.90918
388.1486	29.6381
388.3152	24.72895
388.4818	25.35953
388.6483	25.4435
388.8149	28.67199
388.9815	27.99481
389.148	30.45643
389.3146	27.86528
389.4811	29.90432
389.6477	33.1419
389.8142	32.28909
389.9808	31.56105
390.1473	32.45061
390.3138	31.49534
390.4804	31.94034
390.6469	36.5713
390.8134	32.63329
390.9799	29.43064
391.1464	35.02864
391.3129	34.00372
391.4794	39.53148
391.6459	33.75572
391.8124	34.44213
391.9789	34.68562
392.1453	32.1382
392.3118	31.22514
392.4782	30.39071
392.6447	33.29316
392.8112	27.05247
392.9776	20.00285
393.144	18.42493
393.3105	21.66162
393.4769	22.24936
393.6433	24.02187
393.8098	20.20258
393.9762	24.1913
394.1426	28.14329
394.309	35.05909
394.4754	32.33889
394.6418	34.09744
394.8082	40.68441
394.9746	38.46553
395.141	38.45047
395.3073	39.74982
395.4737	39.17526
395.64	37.23756
395.8064	40.68328
395.9728	39.4562
396.1391	38.21088
396.3055	28.9144
396.4718	30.19838
396.6381	25.80696
396.8045	18.11692
396.9708	21.17899
397.1371	18.5323
397.3034	26.05943
397.4697	36.40243
397.636	38.73505
397.8023	39.49652
397.9686	36.87936
398.1349	44.92639
398.3012	50.52351
398.4675	47.07849
398.6337	48.36081
398.8	51.7264
398.9662	52.76011
399.1325	52.09245
399.2988	47.1687
399.465	48.68465
399.6313	51.28448
399.7975	54.06902
399.9637	50.74302
400.1299	52.38543
400.2961	50.48402
400.4624	49.00187
400.6286	49.18712
400.7948	49.21466
400.961	50.72657
401.1272	53.44516
401.2934	56.00461
401.4595	54.1132
401.6257	56.28383
401.7919	58.40615
401.9581	53.0477
402.1242	51.30914
402.2904	54.36472
402.4565	50.12038
402.6227	53.07943
402.7888	52.359
402.955	51.78979
403.1211	51.48304
403.2872	47.04282
403.4533	50.15782
403.6194	55.38177
403.7856	54.11871
403.9517	59.75318
404.1177	54.90518
404.2838	51.86362
404.4499	52.16003
404.616	49.28691
404.7821	52.33705
404.9482	53.39592
405.1142	56.70125
405.2803	55.73035
405.4464	55.49132
405.6124	53.8218
405.7784	49.51625
405.9445	50.05983
406.1105	55.3137
406.2766	55.37177
406.4426	49.22092
406.6086	47.63309
406.7746	55.38924
406.9406	58.03337
407.1066	56.14919
407.2726	53.19784
407.4386	56.18718
407.6046	55.75137
407.7706	60.83949
407.9366	59.36317
408.1025	57.7109
408.2685	62.46328
408.4344	64.61843
408.6004	61.15206
408.7664	59.93544
408.9323	56.62841
409.0983	65.77436
409.2642	69.4757
409.4301	65.24496
409.596	65.8714
409.762	56.98056
409.9279	58.39647
410.0938	59.20878
410.2597	50.60987
410.4256	50.50242
410.5915	57.30128
410.7574	60.5646
410.9232	66.95694
411.0891	61.16408
411.255	61.46891
411.4209	65.25594
411.5867	74.69512
411.7526	71.22456
411.9184	66.71449
412.0843	64.0241
412.2501	69.82304
412.4159	72.05179
412.5818	62.07465
412.7476	66.31906
412.9134	65.71754
413.0792	67.81779
413.245	62.03312
413.4108	63.6022
413.5766	61.68066
413.7424	64.24678
413.9082	69.50974
414.074	69.4603
414.2397	66.63219
414.4055	66.23147
414.5713	61.34768
414.737	67.12955
414.9028	73.89063
415.0685	71.4594
415.2343	66.96302
415.4	65.05108
415.5658	60.602
415.7315	62.59091
415.8972	63.0246
416.0629	68.57694
416.2286	74.31698
416.3943	70.41449
416.56	74.49986
416.7257	69.32285
416.8914	70.80981
417.0571	72.12827
417.2228	66.3773
417.3884	64.11734
417.5541	67.84527
417.7198	67.32075
417.8854	72.03558
418.0511	70.88419
418.2167	74.64059
418.3824	70.65132
418.548	67.27534
418.7136	64.9866
418.8792	63.37552
419.0449	74.19679
419.2105	76.24837
419.3761	79.69322
419.5417	73.4845
419.7073	71.61378
419.8729	67.55312
420.0385	64.06496
420.204	69.06039
420.3696	74.57001
420.5352	74.66531
420.7007	74.77168
420.8663	74.52855
421.0319	75.18977
421.1974	80.73125
421.3629	78.30194
421.5285	81.36863
421.694	74.98466
421.8595	76.59271
422.0251	81.65931
422.1906	80.67422
422.3561	78.70053
422.5216	70.12836
422.6871	65.31488
422.8526	69.25103
423.0181	69.69849
423.1835	83.4697
423.349	82.21447
423.5145	78.3886
423.68	73.41227
423.8454	76.99374
424.0109	73.20263
424.1763	77.48814
424.3418	85.73136
424.5072	83.38607
424.6726	81.10152
424.838	84.81303
425.0035	78.14782
425.1689	76.33336
425.3343	79.98347
425.4997	79.69658
425.6651	80.86526
425.8305	82.22932
425.9959	71.16855
426.1613	72.86008
426.3267	79.70062
426.492	82.41297
426.6574	82.46307
426.8228	87.26192
426.9881	77.76685
427.1534	71.80253
427.3188	67.658
427.4841	74.07314
427.6495	80.75546
427.8148	84.31755
427.9801	80.37662
428.1454	81.67101
428.3107	81.73415
428.476	80.08491
428.6414	77.40936
428.8066	79.24612
428.9719	75.50638
429.1372	73.44534
429.3025	81.20095
429.4678	76.16866
429.633	75.91094
429.7983	70.45442
429.9636	61.7265
430.1288	62.83722
430.294	57.10157
430.4593	63.50965
430.6245	63.34039
430.7897	63.931
430.955	64.57404
431.1202	64.11521
431.2854	70.59208
431.4506	79.08208
431.6158	89.28614
431.781	98.86137
431.9462	96.83087
432.1114	90.88619
432.2766	87.21957
432.4417	83.19623
432.6069	74.18899
432.772	83.22482
432.9372	90.08208
433.1024	95.32021
433.2675	101.6435
433.4326	99.09529
433.5977	96.81092
433.7629	87.26556
433.928	74.65868
434.0931	74.49214
434.2582	82.63699
434.4233	91.33868
434.5884	96.84742
434.7535	95.48181
434.9186	97.06165
435.0837	97.10083
435.2488	92.31738
435.4138	94.19643
435.5789	94.02754
435.744	95.36944
435.909	97.51579
436.0741	98.10396
436.2391	100.0653
436.4042	105.1249
436.5692	104.8148
436.7342	98.82576
436.8992	99.5332
437.0643	102.0603
437.2293	98.29713
437.3943	100.2486
437.5593	101.9197
437.7243	101.4663
437.8893	107.8696
438.0542	107.9304
438.2192	97.0117
438.3842	88.0091
438.5491	82.54039
438.7141	87.07368
438.8791	98.8602
439.044	100.7542
439.209	102.754
439.3739	101.9118
439.5388	103.7996
439.7037	107.8255
439.8687	106.4672
440.0336	108.505
440.1985	105.401
440.3634	100.9696
440.5283	100.492
440.6932	100.7708
440.8581	109.0692
441.0229	109.7445
441.1878	113.4526
441.3527	112.978
441.5175	111.577
441.6824	107.0184
441.8472	108.6672
442.0121	117.4024
442.1769	123.4924
442.3418	121.3572
442.5066	113.248
442.6714	119.0339
442.8362	118.1085
443.001	116.5001
443.1659	113.5492
443.3307	108.8381
443.4955	110.3357
443.6602	110.3481
443.825	117.3503
443.9898	123.7153
444.1546	119.8792
444.3193	116.0667
444.4841	120.4429
444.6488	121.7171
444.8136	120.3465
444.9783	117.1533
445.1431	120.2002
445.3078	115.2533
445.4725	107.844
445.6372	107.7908
445.802	114.0584
445.9667	113.7712
446.1314	105.7993
446.2961	114.6485
446.4608	116.9446
446.6255	117.8178
446.7901	116.3168
446.9548	119.6063
447.1195	118.2605
447.2841	120.6142
447.4488	131.1471
447.6134	130.5826
447.7781	130.0413
447.9427	125.9087
448.1074	121.4619
448.272	120.5525
448.4366	124.7605
448.6012	132.5045
448.7658	132.525
448.9305	129.0869
449.095	127.9842
449.2596	129.6207
449.4242	120.9156
449.5888	126.0644
449.7534	132.4012
449.9179	131.0387
450.0825	133.0734
450.2471	136.0489
450.4116	140.621
450.5762	142.4006
450.7407	141.4472
450.9052	141.2331
451.0698	138.7791
451.2343	136.6582
451.3988	137.715
451.5633	138.0278
451.7278	129.3121
451.8923	133.8956
452.0568	138.5263
452.2213	137.4624
452.3858	140.2939
452.5503	133.8161
452.7148	123.562
452.8792	116.8545
453.0437	120.3229
453.2081	127.3088
453.3726	125.9772
453.537	125.374
453.7015	134.8108
453.8659	139.0293
454.0303	143.5296
454.1947	140.4209
454.3592	138.5975
454.5236	139.7643
454.688	136.172
454.8524	134.2787
455.0168	132.3935
455.1811	128.6734
455.3455	140.118
455.5099	136.3713
455.6743	133.7235
455.8386	139.9294
456.003	141.4682
456.1673	148.6554
456.3317	138.2989
456.496	134.3263
456.6603	143.9643
456.8246	140.5385
456.989	138.8583
457.1533	143.36
457.3176	142.9706
457.4819	141.4971
457.6462	150.8289
457.8105	141.9003
457.9748	141.2891
458.1391	138.5861
458.3033	135.2639
458.4676	137.9872
458.6319	137.2683
458.7961	140.4084
458.9604	142.4642
459.1246	141.5661
459.2888	135.3667
459.4531	141.7537
459.6173	142.2926
459.7815	135.3421
459.9457	132.4586
460.11	138.349
460.2741	140.6025
460.4384	138.646
460.6025	138.7127
460.7667	141.2277
460.9309	144.9908
461.0951	148.3516
461.2592	145.4478
461.4234	144.6723
461.5876	148.7818
461.7517	151.7574
461.9159	145.8593
462.08	146.6826
462.2441	147.5239
462.4082	146.8297
462.5724	139.6336
462.7365	147.5999
462.9006	153.4227
463.0647	145.055
463.2288	145.346
463.3929	150.1261
463.557	153.6804
463.721	141.4202
463.8851	144.2941
464.0492	143.9843
464.2132	143.8317
464.3773	144.0311
464.5414	139.2169
464.7054	146.2164
464.8694	150.5675
465.0334	138.8615
465.1975	147.1165
465.3615	147.8547
465.5255	149.8933
465.6895	144.9139
465.8535	144.623
466.0175	151.9867
466.1815	153.6608
466.3455	150.0766
466.5095	147.6212
466.6734	140.9468
466.8374	136.3192
467.0014	138.0511
467.1653	140.7166
467.3293	146.1989
467.4932	151.2713
467.6571	153.02
467.8211	145.1664
467.985	144.5332
468.1489	148.3415
468.3128	145.1676
468.4767	158.6559
468.6406	154.1452
468.8045	152.1996
468.9684	148.1476
469.1323	148.642
469.2962	156.1781
469.46	157.9236
469.6239	152.8174
469.7878	150.4537
469.9516	149.9
470.1154	149.1762
470.2793	147.7681
470.4431	147.999
470.607	148.5644
470.7708	149.9224
470.9346	145.3025
471.0984	151.555
471.2622	151.8563
471.426	150.7239
471.5898	150.7155
471.7536	162.4404
471.9174	160.7939
472.0811	160.7923
472.2449	165.075
472.4087	164.8431
472.5724	159.7585
472.7362	153.8703
472.8999	156.3088
473.0637	150.6701
473.2274	158.1859
473.3911	154.0916
473.5548	156.9365
473.7185	155.3734
473.8822	154.8856
474.0459	161.6083
474.2096	159.913
474.3733	154.6173
474.537	159.4196
474.7007	160.1917
474.8643	161.9535
475.028	156.6279
475.1917	157.4129
475.3553	154.1109
475.519	156.1221
475.6826	156.3711
475.8463	155.5505
476.0099	160.0961
476.1735	162.8581
476.3371	157.1408
476.5007	152.2224
476.6643	154.4179
476.8279	155.3522
476.9915	159.0561
477.1551	164.6696
477.3187	165.9849
477.4823	164.2287
477.6458	162.0956
477.8094	158.9678
477.9729	164.9639
478.1365	165.6989
478.3	163.6985
478.4636	164.5248
478.6271	162.6217
478.7906	155.8325
478.9541	158.96
479.1176	162.3295
479.2812	169.5356
479.4447	169.2667
479.6082	164.4656
479.7716	166.3046
479.9351	163.845
480.0986	165.2556
480.2621	165.9236
480.4255	158.6474
480.589	164.6974
480.7524	160.8482
480.9159	161.0351
481.0793	162.5207
481.2428	167.5556
481.4062	163.6719
481.5696	161.6443
481.733	161.3252
481.8964	165.2693
482.0598	164.7385
482.2232	161.3785
482.3866	157.1525
482.55	162.4289
482.7134	163.8408
482.8768	165.3997
483.0401	159.1715
483.2035	159.8804
483.3668	164.4076
483.5302	166.1778
483.6935	159.9912
483.8568	159.1744
484.0202	161.1281
484.1835	158.9786
484.3468	171.4708
484.5101	167.9709
484.6734	154.33
484.8367	158.7977
485	168.7421
485.1633	161.3264
485.3266	155.8891
485.4899	155.4274
485.6531	148.4691
485.8164	147.3288
485.9796	133.9472
486.1429	127.0751
486.3061	127.2761
486.4694	138.2938
486.6326	148.2011
486.7958	153.7661
486.959	153.6651
487.1223	151.3667
487.2855	149.6865
487.4486	161.1053
487.6118	161.7087
487.775	168.8983
487.9382	168.3569
488.1014	165.8705
488.2646	164.3394
488.4277	167.2487
488.5909	158.6635
488.754	156.533
488.9171	150.4452
489.0803	151.6477
489.2434	152.4268
489.4066	161.7638
489.5697	172.3605
489.7328	176.7521
489.8959	172.6549
490.059	170.0341
490.2221	165.1236
490.3852	158.5336
490.5482	166.5289
490.7113	160.3349
490.8744	167.7699
491.0374	171.4722
491.2005	167.0812
491.3636	162.558
491.5266	165.8902
491.6896	168.8048
491.8527	164.3414
492.0157	164.6529
492.1787	155.9775
492.3417	160.54
492.5047	169.5589
492.6677	177.5376
492.8307	181.5194
492.9937	169.4824
493.1567	174.9228
493.3196	171.9902
493.4826	172.6199
493.6456	168.3344
493.8085	162.6569
493.9715	158.2661
494.1344	164.0981
494.2974	180.3652
494.4603	185.0924
494.6232	185.7635
494.7861	179.313
494.949	180.9611
495.1119	175.614
495.2748	181.9188
495.4377	178.1836
495.6006	170.8955
495.7635	158.1695
495.9264	166.9033
496.0892	169.1729
496.2521	173.6532
496.4149	175.8878
496.5778	179.4334
496.7407	169.0091
496.9035	167.4653
497.0663	180.1391
497.2291	170.7003
497.3919	173.293
497.5547	170.4314
497.7176	178.0543
497.8804	173.8671
498.0432	167.4174
498.2059	165.4816
498.3687	163.7384
498.5315	167.1215
498.6942	164.6994
498.857	172.888
499.0198	175.7677
499.1825	175.8164
499.3452	174.6678
499.508	176.253
499.6707	171.8962
499.8334	176.5802
499.9962	170.8546
500.1589	168.7714
500.3216	167.8925
500.4843	168.6865
500.6469	162.3654
500.8096	166.0933
500.9723	175.1773
501.135	175.3246
501.2976	174.8311
501.4603	171.6964
501.623	172.5987
501.7856	160.1303
501.9482	169.1734
502.1109	165.013
502.2735	166.2888
502.4361	171.0193
502.5987	174.8639
502.7614	177.2166
502.924	169.9063
503.0865	184.3868
503.2491	186.2186
503.4117	179.5917
503.5743	183.138
503.7368	177.0013
503.8994	170.503
504.062	168.8849
504.2245	167.7975
504.3871	175.2131
504.5496	181.905
504.7121	189.4851
504.8746	187.65
505.0372	185.7219
505.1997	185.1772
505.3622	177.1201
505.5247	184.3022
505.6872	188.6888
505.8497	186.0079
506.0121	189.1985
506.1746	186.3691
506.3371	188.7165
506.4995	186.0473
506.662	181.861
506.8244	179.6248
506.9869	184.2807
507.1493	188.0901
507.3117	190.3963
507.4742	188.5859
507.6366	187.8185
507.799	184.2111
507.9614	182.6001
508.1238	178.692
508.2862	179.3062
508.4485	179.9829
508.6109	183.9944
508.7733	189.8876
508.9357	182.4441
509.098	185.3555
509.2604	188.0479
509.4227	185.8115
509.5851	182.5656
509.7474	185.0366
509.9097	184.2627
510.072	183.6922
510.2343	180.9287
510.3966	180.3956
510.5589	183.3369
510.7212	180.9619
510.8835	179.9506
511.0458	175.4292
511.2081	182.9076
511.3703	178.9099
511.5326	188.53
511.6949	193.3478
511.8571	197.8573
512.0193	192.7311
512.1816	186.5966
512.3438	181.616
512.506	179.2947
512.6682	172.1169
512.8304	179.745
512.9926	178.02
513.1548	175.7672
513.317	183.9027
513.4792	177.3875
513.6414	175.5275
513.8035	175.3765
513.9657	168.035
514.1279	168.0498
514.29	176.4193
514.4521	179.1251
514.6143	180.7921
514.7764	174.5801
514.9385	178.6361
515.1006	176.8059
515.2628	184.908
515.4249	175.3564
515.587	182.9184
515.7491	183.9371
515.9111	184.6116
516.0732	183.196
516.2353	183.2685
516.3973	176.737
516.5594	165.2528
516.7214	157.5447
516.8835	154.6687
517.0455	155.7104
517.2076	150.2735
517.3696	150.9837
517.5316	163.0754
517.6937	177.4658
517.8557	185.8764
518.0176	182.2071
518.1796	167.6089
518.3416	157.4904
518.5036	156.5543
518.6656	168.3057
518.8275	174.8071
518.9895	179.9725
519.1514	178.7337
519.3134	185.6777
519.4753	178.855
519.6373	176.9347
519.7992	184.1805
519.9611	178.8237
520.123	183.0191
520.2849	187.1573
520.4468	183.0755
520.6087	177.9887
520.7706	172.9372
520.9325	175.9113
521.0944	182.761
521.2562	184.5315
521.4181	185.0458
521.58	182.7652
521.7418	178.8957
521.9036	181.8316
522.0655	187.7479
522.2273	196.3191
522.3891	196.6589
522.551	183.9553
522.7128	172.0976
522.8746	175.5812
523.0363	187.002
523.1981	180.4534
523.3599	181.0149
523.5217	181.3817
523.6835	189.5602
523.8452	193.5633
524.007	193.7042
524.1687	194.6998
524.3304	200.7126
524.4922	194.555
524.6539	196.4657
524.8157	196.2652
524.9774	193.3001
525.1391	186.6527
525.3008	193.7199
525.4625	189.3667
525.6241	196.9945
525.7858	196.6727
525.9475	195.616
526.1092	194.0845
526.2709	187.3322
526.4325	179.9672
526.5942	172.4262
526.7558	173.4859
526.9174	168.7921
527.079	168.8799
527.2407	176.3358
527.4023	181.8227
527.5639	190.4668
527.7255	194.8154
527.8871	191.8643
528.0487	194.7027
528.2103	190.512
528.3718	190.1281
528.5334	190.9945
528.695	195.6244
528.8565	196.3217
529.0181	201.3669
529.1796	202.6519
529.3412	204.3102
529.5027	204.7235
529.6642	195.1291
529.8257	191.2002
529.9872	185.2048
530.1487	188.3436
530.3102	198.2766
530.4717	200.4694
530.6332	206.3323
530.7947	201.4501
530.9562	207.1483
531.1176	208.3093
531.2791	204.0551
531.4405	205.3593
531.6019	200.7461
531.7634	202.688
531.9248	202.7099
532.0862	196.4251
532.2477	191.7322
532.4091	190.8288
532.5704	185.3347
532.7319	192.1967
532.8932	184.9779
533.0546	187.5022
533.216	191.1807
533.3774	191.7467
533.5388	196.9468
533.7001	199.6533
533.8615	196.9473
534.0228	190.7459
534.1841	185.1097
534.3455	188.075
534.5068	192.8432
534.6681	192.5226
534.8293	201.4673
534.9907	191.787
535.152	195.8479
535.3132	200.779
535.4745	199.8644
535.6358	206.1227
535.7971	206.9391
535.9583	207.2733
536.1196	197.1204
536.2808	191.8461
536.4421	191.7625
536.6033	194.7638
536.7645	193.3844
536.9258	187.8218
537.087	180.7941
537.2482	184.3068
537.4094	185.7297
537.5706	186.9603
537.7318	193.9681
537.8929	192.0962
538.0541	194.8445
538.2153	196.9396
538.3764	191.1315
538.5376	189.9928
538.6987	195.2572
538.8599	195.9127
539.021	192.8087
539.1821	186.3773
539.3432	191.6403
539.5043	189.9579
539.6655	185.2206
539.8265	187.7672
539.9876	180.1645
540.1487	179.4356
540.3098	179.7267
540.4708	176.9845
540.6319	181.6279
540.793	187.0541
540.954	184.2555
541.1151	182.9773
541.2761	187.7946
541.4371	187.9944
541.5981	188.226
541.7592	184.5576
541.9202	185.955
542.0812	188.604
542.2422	182.4189
542.4031	189.7223
542.5641	191.0779
542.7251	186.8329
542.886	188.8237
543.0471	186.6043
543.208	192.6553
543.369	184.8563
543.5298	186.0259
543.6908	184.8866
543.8517	191.5369
544.0126	194.8824
544.1736	190.369
544.3345	193.3504
544.4954	194.4937
544.6563	188.0257
544.8171	183.7021
544.978	193.8635
545.1389	196.2328
545.2997	201.4691
545.4606	190.0283
545.6215	184.7711
545.7823	187.7243
545.9432	194.1121
546.104	197.7391
546.2648	184.1144
546.4256	187.2893
546.5864	187.4543
546.7473	189.2889
546.908	190.7025
547.0688	194.147
547.2296	194.6042
547.3904	191.7757
547.5511	183.1509
547.7119	181.193
547.8727	186.9995
548.0334	182.4873
548.1942	190.7915
548.3549	191.0253
548.5156	200.3148
548.6763	200.0545
548.837	191.2141
548.9977	190.3947
549.1584	191.0429
549.3192	198.0799
549.4798	197.6261
549.6405	195.3797
549.8011	188.3057
549.9619	191.4975
550.1225	193.7073
550.2831	190.3278
550.4438	194.7616
550.6044	189.2032
550.765	194.8059
550.9257	197.7184
551.0863	191.0825
551.2469	190.3297
551.4075	199.8714
551.5681	194.7235
551.7287	198.6143
551.8893	195.5087
552.0498	196.8678
552.2104	203.2006
552.371	198.0909
552.5315	201.1354
552.6921	194.5528
552.8526	187.004
553.0131	186.6651
553.1736	196.8841
553.3342	201.5266
553.4947	189.9266
553.6552	190.7644
553.8157	186.9735
553.9762	190.0891
554.1367	195.5115
554.2971	200.0371
554.4576	201.3746
554.618	195.8277
554.7785	203.8939
554.939	197.501
555.0994	193.5406
555.2598	197.3232
555.4203	193.9848
555.5807	191.2994
555.7411	186.3343
555.9015	190.0668
556.0619	189.972
556.2223	188.9684
556.3827	186.3143
556.5431	189.5403
556.7034	188.4806
556.8638	187.445
557.0242	186.956
557.1845	187.8927
557.3448	189.9548
557.5052	189.8246
557.6655	186.2817
557.8259	189.9203
557.9861	185.0777
558.1465	190.3925
558.3068	190.7916
558.467	187.1632
558.6274	182.9127
558.7877	174.4946
558.9479	177.1591
559.1082	182.3481
559.2684	184.005
559.4287	182.0659
559.5889	179.0612
559.7491	185.1993
559.9094	185.7999
560.0696	180.955
560.2299	184.6457
560.3901	182.7984
560.5502	187.5996
560.7104	191.1546
560.8707	190.7525
561.0308	187.2018
561.191	185.0295
561.3511	189.8382
561.5114	186.3013
561.6714	176.2352
561.8316	177.4776
561.9918	185.8525
562.1519	181.8975
562.312	181.9906
562.4722	184.9364
562.6323	183.8902
562.7924	179.9933
562.9525	184.076
563.1125	182.6658
563.2726	181.7711
563.4327	184.0488
563.5928	186.5597
563.7528	190.4314
563.9129	187.8791
564.0729	181.4935
564.233	178.767
564.393	181.2152
564.553	185.1897
564.7131	183.0283
564.873	192.9539
565.0331	183.1102
565.1931	175.6033
565.353	181.4468
565.5131	185.8228
565.673	179.0281
565.833	180.4695
565.9929	180.9145
566.1529	181.1561
566.3129	180.1897
566.4728	175.7556
566.6328	175.6434
566.7927	179.1019
566.9526	181.3046
567.1125	180.551
567.2724	181.1575
567.4323	179.1032
567.5922	178.3578
567.7521	187.2799
567.9119	186.7769
568.0718	184.4811
568.2317	186.2203
568.3915	184.3179
568.5514	174.6705
568.7112	175.6781
568.871	177.7711
569.0309	181.4566
569.1907	179.7175
569.3505	182.4081
569.5103	181.9863
569.6701	172.7709
569.8299	174.6261
569.9897	177.9001
570.1495	173.4626
570.3092	173.4117
570.469	184.8785
570.6287	172.3775
570.7885	169.1837
570.9482	168.0068
571.108	174.7991
571.2677	170.4187
571.4274	173.2297
571.5871	171.9513
571.7468	181.6425
571.9066	188.2296
572.0662	189.3423
572.2259	177.1716
572.3856	179.6951
572.5452	176.4196
572.7049	179.3431
572.8646	190.4949
573.0242	182.1598
573.1838	181.6661
573.3435	186.1186
573.5031	179.4312
573.6627	179.4323
573.8223	179.7908
573.9819	175.877
574.1415	177.3745
574.3011	179.6838
574.4607	185.6227
574.6203	186.5191
574.7798	178.4814
574.9394	179.2182
575.099	180.0038
575.2585	176.4152
575.418	176.8812
575.5776	176.5417
575.7371	170.5995
575.8966	171.2921
576.0562	174.2443
576.2156	174.4754
576.3751	176.1513
576.5346	176.8926
576.6941	181.1663
576.8536	184.7337
577.0131	180.8394
577.1725	174.9659
577.332	179.8712
577.4914	176.3359
577.6508	182.1439
577.8103	178.3033
577.9697	169.7912
578.1291	174.3639
578.2885	177.8963
578.4479	168.3775
578.6073	167.7804
578.7667	167.7825
578.9261	177.1216
579.0854	180.3725
579.2448	181.0027
579.4042	178.9132
579.5635	179.7366
579.7229	172.6958
579.8822	172.7823
580.0416	172.2476
580.2009	166.9166
580.3602	175.2036
580.5195	170.421
580.6788	172.6225
580.8381	182.5513
580.9974	168.4745
581.1566	168.8495
581.3159	174.858
581.4752	169.7575
581.6345	174.0741
581.7937	180.4245
581.9529	180.6467
582.1122	181.6443
582.2714	177.0066
582.4306	169.5847
582.5898	173.8871
582.749	169.4884
582.9082	174.1509
583.0674	171.1116
583.2266	170.9459
583.3857	171.7241
583.5449	168.1012
583.7041	175.9674
583.8633	172.2349
584.0224	169.8576
584.1815	170.656
584.3407	169.86
584.4998	165.3863
584.6589	163.0341
584.818	164.1245
584.9771	169.6914
585.1362	171.5187
585.2953	170.6389
585.4544	169.4678
585.6135	161.5401
585.7725	163.0504
585.9316	163.1992
586.0906	165.2942
586.2497	164.1384
586.4087	171.0291
586.5677	168.308
586.7267	168.5647
586.8858	164.6876
587.0448	164.0326
587.2038	168.7477
587.3628	164.9099
587.5218	170.3633
587.6807	168.7809
587.8397	164.5464
587.9987	168.5889
588.1577	172.445
588.3166	158.1644
588.4755	160.9079
588.6345	159.3756
588.7934	149.7681
588.9523	155.0621
589.1112	142.2912
589.2701	148.0828
589.429	148.2785
589.5879	155.7125
589.7468	147.0879
589.9056	150.9897
590.0645	156.0219
590.2234	152.9855
590.3822	154.0223
590.5411	155.4423
590.6999	152.7612
590.8588	153.9595
591.0176	161.624
591.1764	159.8487
591.3352	152.9884
591.494	156.9911
591.6528	152.1628
591.8116	154.438
591.9703	158.1332
592.1291	162.9919
592.2878	159.4054
592.4467	161.1076
592.6053	161.0092
592.7641	163.1017
592.9229	158.7088
593.0816	154.5186
593.2403	150.4603
593.399	156.5045
593.5577	159.0523
593.7164	158.0815
593.8751	158.7016
594.0338	153.4211
594.1924	161.7992
594.3511	158.1567
594.5098	153.0388
594.6684	156.2902
594.8271	150.6274
594.9857	152.2463
595.1443	150.5609
595.303	158.8886
595.4615	157.875
595.6202	147.7223
595.7787	155.4458
595.9374	155.5653
596.0959	156.5109
596.2545	161.3074
596.4131	153.2152
596.5717	152.8269
596.7302	162.7209
596.8887	155.5779
597.0473	157.7735
597.2058	160.7692
597.3644	157.2845
597.5229	154.7403
597.6814	157.8464
597.8399	151.3709
597.9984	159.6907
598.1569	163.8951
598.3154	153.2144
598.4738	150.3367
598.6323	157.4417
598.7908	157.3603
598.9492	154.1268
599.1076	156.0018
599.2661	151.4981
599.4245	157.1871
599.5829	160.3871
599.7413	157.8835
599.8997	155.0769
600.0581	151.2154
600.2165	150.1351
600.3749	158.6782
600.5333	154.9844
600.6917	155.0596
600.85	158.231
601.0084	158.4045
601.1667	164.0402
601.325	160.4308
601.4833	162.5994
601.6417	156.1473
601.8	149.3684
601.9583	150.7943
602.1166	154.3037
602.2749	158.0042
602.4332	160.1578
602.5914	158.6542
602.7498	161.1992
602.908	160.3387
603.0662	148.53
603.2245	153.7531
603.3828	157.6339
603.541	161.1328
603.6992	154.1812
603.8574	153.5007
604.0156	150.0159
604.1738	153.8867
604.332	157.5901
604.4902	152.9017
604.6484	145.7117
604.8065	152.973
604.9647	155.5959
605.1229	149.0954
605.281	153.2619
605.4391	160.0509
605.5973	151.0621
605.7554	151.1171
605.9135	156.2989
606.0717	156.3962
606.2297	158.7629
606.3878	155.6849
606.5459	153.3759
606.704	149.4341
606.8621	152.9449
607.0201	151.6103
607.1782	154.6676
607.3362	158.1575
607.4943	165.0113
607.6523	163.631
607.8104	158.9444
607.9684	156.6569
608.1264	157.1926
608.2844	150.9379
608.4424	147.4891
608.6003	151.2167
608.7584	156.5725
608.9163	152.3001
609.0743	147.8434
609.2322	156.7683
609.3902	157.873
609.5482	149.5477
609.7061	160.6839
609.864	154.6727
610.0219	149.979
610.1798	140.7683
610.3377	145.2505
610.4956	148.2487
610.6535	148.1578
610.8114	144.9987
610.9693	154.1843
611.1271	151.3972
611.285	150.876
611.4429	152.1951
611.6007	155.8116
611.7585	154.0553
611.9164	150.856
612.0742	153.312
612.232	147.8556
612.3898	142.4531
612.5476	147.2992
612.7054	144.2263
612.8632	139.1111
613.0209	150.1948
613.1787	151.7287
613.3365	146.7769
613.4942	148.0567
613.652	146.4941
613.8097	142.7537
613.9674	143.3662
614.1252	148.9943
614.2829	145.3871
614.4406	148.8179
614.5983	144.9604
614.756	145.1918
614.9136	141.9235
615.0714	149.5561
615.229	145.4215
615.3867	144.4427
615.5443	141.8166
615.702	150.4446
615.8596	146.0265
616.0172	137.4441
616.1748	142.3208
616.3325	140.3597
616.4901	142.6151
616.6476	134.9607
616.8052	141.5174
616.9628	138.8086
617.1204	143.4003
617.278	147.1425
617.4355	143.4906
617.5931	145.8236
617.7506	145.444
617.9081	142.9172
618.0657	139.6713
618.2232	144.656
618.3807	144.8826
618.5382	143.8405
618.6957	146.2901
618.8532	146.0832
619.0107	145.1463
619.1682	146.3747
619.3256	146.7993
619.4831	140.0109
619.6406	142.9016
619.798	143.6597
619.9554	144.5168
620.1129	144.0718
620.2703	140.9599
620.4277	145.3026
620.5851	144.6194
620.7425	148.2444
620.8998	140.9237
621.0573	138.3699
621.2146	140.8539
621.372	139.0058
621.5294	138.3792
621.6867	142.4071
621.8441	138.03
622.0013	133.5579
622.1587	136.8598
622.316	139.1615
622.4733	134.7153
622.6306	135.8926
622.7879	135.4948
622.9452	136.9792
623.1025	140.2472
623.2598	140.4277
623.4171	138.9033
623.5743	136.4731
623.7316	141.2071
623.8888	144.1081
624.046	138.7182
624.2032	137.266
624.3605	137.3188
624.5176	137.0842
624.6749	134.2886
624.8321	136.2599
624.9893	140.2272
625.1464	136.2808
625.3036	140.0114
625.4608	137.4934
625.6179	126.9425
625.7751	135.6632
625.9322	136.1262
626.0894	128.2177
626.2465	141.1486
626.4036	140.3919
626.5607	129.0287
626.7178	133.6474
626.8749	137.0072
627.032	137.7828
627.189	134.4502
627.3461	137.5291
627.5032	140.019
627.6602	130.1122
627.8173	130.2739
627.9743	126.7141
628.1313	127.1064
628.2884	128.4356
628.4454	130.3771
628.6024	131.2787
628.7594	130.3716
628.9164	133.1287
629.0734	133.7755
629.2303	132.1581
629.3873	131.306
629.5443	132.7818
629.7012	130.7565
629.8582	124.9558
630.0151	130.4703
630.172	128.5451
630.3289	131.4785
630.4858	127.5399
630.6428	137.5103
630.7996	135.5427
630.9565	135.5682
631.1134	138.4883
631.2703	136.6911
631.4272	131.0519
631.584	127.3271
631.7408	131.1212
631.8977	128.8777
632.0546	130.3378
632.2114	128.9008
632.3682	133.1536
632.525	132.8003
632.6818	138.1529
632.8386	135.0214
632.9954	137.7481
633.1522	136.1901
633.3089	132.5505
633.4657	132.9543
633.6224	135.9346
633.7792	131.7541
633.9359	127.9052
634.0927	125.9737
634.2494	129.4445
634.4061	136.4695
634.5628	129.3773
634.7195	130.6119
634.8762	129.3711
635.0329	134.8385
635.1895	132.548
635.3462	131.7663
635.5029	129.7997
635.6595	128.093
635.8162	131.724
635.9728	130.2589
636.1295	130.3966
636.2861	128.8934
636.4427	130.8324
636.5992	133.6317
636.7559	131.9288
636.9124	133.9402
637.069	136.6713
637.2256	130.0786
637.3821	130.278
637.5387	132.1945
637.6953	127.9469
637.8518	128.3027
638.0084	125.9878
638.1649	133.2528
638.3214	131.1774
638.4779	130.2207
638.6344	132.5243
638.7909	124.7814
638.9474	130.7005
639.1038	127.7771
639.2603	128.0688
639.4167	124.7446
639.5732	123.7146
639.7297	131.1401
639.8861	131.3428
640.0425	126.4998
640.199	129.5998
640.3553	131.419
640.5118	133.155
640.6682	124.8022
640.8245	119.2634
640.981	122.0335
641.1373	127.1547
641.2936	123.9379
641.45	124.7287
641.6064	127.332
641.7627	127.1668
641.9191	122.2112
642.0754	122.0289
642.2317	121.8236
642.388	123.2364
642.5443	126.2491
642.7006	126.4931
642.8569	125.6776
643.0131	126.4969
643.1694	125.4726
643.3257	130.4812
643.4819	129.4771
643.6382	121.8254
643.7944	118.6191
643.9506	120.0174
644.1069	127.2339
644.2631	130.9413
644.4193	125.6235
644.5754	125.6328
644.7316	126.6596
644.8878	127.0111
645.044	122.3824
645.2002	120.8499
645.3563	124.9009
645.5125	125.9019
645.6686	113.7255
645.8248	112.4223
645.9809	114.9031
646.137	122.21
646.2931	121.0978
646.4492	117.9477
646.6053	117.4369
646.7614	122.7133
646.9174	119.7731
647.0735	120.9608
647.2296	123.5784
647.3856	122.6335
647.5417	117.2357
647.6977	114.7354
647.8537	118.8578
648.0098	116.9523
648.1658	119.0964
648.3218	121.1326
648.4777	117.8095
648.6337	116.1785
648.7897	117.1249
648.9457	120.0035
649.1016	115.9725
649.2576	117.1552
649.4135	116.3676
649.5695	109.5467
649.7254	104.3556
649.8813	111.6234
650.0372	112.208
650.1932	112.6714
650.3491	116.7406
650.5049	118.0218
650.6608	119.0879
650.8167	118.5486
650.9725	111.1732
651.1284	119.7048
651.2842	119.9352
651.4401	118.7634
651.5959	110.1534
651.7518	108.4993
651.9076	110.7154
652.0634	114.2341
652.2192	117.0136
652.3749	115.2667
652.5308	117.287
652.6865	117.9209
652.8423	116.5994
652.998	120.0949
653.1538	116.169
653.3096	116.2908
653.4653	112.6344
653.621	115.4221
653.7767	114.5135
653.9324	114.1639
654.0881	114.0825
654.2438	109.6978
654.3995	117.8616
654.5552	115.0133
654.7109	116.8203
654.8665	113.5903
655.0222	111.5619
655.1778	107.1867
655.3334	108.0477
655.4891	111.9551
655.6447	105.8909
655.8003	108.7735
655.9559	101.7912
656.1115	91.14079
656.2671	92.16732
656.4227	93.94355
656.5782	96.7813
656.7338	107.1257
656.8893	111.7055
657.0449	105.4781
657.2004	106.2748
657.356	110.104
657.5115	108.3374
657.667	111.1939
657.8225	109.957
657.978	112.3439
658.1335	115.4625
658.289	115.6356
658.4445	119.8898
658.5999	109.1342
658.7554	110.0034
658.9108	113.8047
659.0663	109.0099
659.2217	107.7453
659.3771	108.2652
659.5325	109.5565
659.6879	108.2288
659.8433	108.3367
659.9987	112.6763
660.1541	117.0674
660.3095	111.0429
660.4648	108.5113
660.6202	108.4531
660.7756	105.1632
660.9309	110.9487
661.0862	113.4306
661.2416	115.49
661.3969	113.1133
661.5522	106.2857
661.7075	107.3594
661.8628	114.9128
662.0181	113.2817
662.1733	111.2007
662.3286	113.828
662.4839	110.1317
662.6391	114.0343
662.7944	109.4028
662.9496	108.3441
663.1048	112.7662
663.26	116.9235
663.4152	113.2836
663.5704	108.925
663.7256	106.4582
663.8808	110.4062
664.036	111.622
664.1912	117.245
664.3463	117.0233
664.5015	111.9922
664.6566	120.1908
664.8118	110.4478
664.9669	119.4126
665.122	114.5452
665.2771	113.9664
665.4322	111.1457
665.5873	113.1437
665.7424	112.2536
665.8975	112.4578
666.0526	108.7745
666.2076	114.1346
666.3627	107.3916
666.5177	107.9713
666.6727	108.2952
666.8278	109.9883
666.9828	111.4043
667.1378	112.2473
667.2928	113.8569
667.4478	111.2555
667.6028	111.7808
667.7578	109.001
667.9127	101.1018
668.0677	107.1501
668.2226	107.2299
668.3776	104.0591
668.5325	111.7378
668.6874	114.9657
668.8423	111.5158
668.9973	109.9242
669.1522	110.2021
669.3071	112.798
669.4619	113.175
669.6168	111.0598
669.7717	106.9454
669.9265	110.8905
670.0814	111.0814
670.2362	106.2349
670.3911	106.6744
670.5459	110.6698
670.7007	113.0107
670.8555	109.1764
671.0103	109.906
671.1651	111.3089
671.3199	108.5092
671.4747	102.4007
671.6295	104.5872
671.7842	108.4613
671.939	104.215
672.0937	102.595
672.2484	106.843
672.4031	102.5036
672.5579	106.8397
672.7126	106.4507
672.8673	107.4644
673.022	105.4898
673.1767	111.6576
673.3314	112.1317
673.486	112.1993
673.6407	110.7823
673.7953	105.5942
673.95	109.9758
674.1046	106.8809
674.2592	103.9782
674.4138	101.2193
674.5684	104.724
674.723	107.5157
674.8776	106.2662
675.0322	111.602
675.1868	102.9311
675.3414	106.3548
675.4959	107.758
675.6505	105.255
675.805	100.9727
675.9595	108.6092
676.1141	104.1197
676.2686	100.6286
676.4231	100.6675
676.5776	105.139
676.7321	103.9239
676.8866	104.6158
677.041	105.1776
677.1955	106.7349
677.35	106.9207
677.5044	104.6437
677.6589	102.8688
677.8133	104.9649
677.9677	102.4944
678.1221	103.0515
678.2766	103.5387
678.4309	105.3966
678.5853	100.451
678.7397	101.2525
678.8941	103.6109
679.0485	101.3508
679.2028	101.7902
679.3571	100.4978
679.5115	98.29292
679.6658	100.7477
679.8201	99.68555
679.9744	96.1115
680.1288	98.42735
680.2831	100.3607
680.4373	101.7779
680.5916	98.81548
680.7459	100.699
680.9001	101.1649
681.0544	99.89485
681.2087	99.19403
681.3629	103.9571
681.5171	100.1274
681.6713	99.00784
681.8256	101.0669
681.9797	99.22798
682.134	92.27542
682.2881	95.59698
682.4423	95.8195
682.5965	101.4028
682.7507	94.351
682.9048	94.2478
683.059	99.63547
683.2131	100.0564
683.3672	96.60673
683.5213	94.35085
683.6754	97.70834
683.8295	94.07741
683.9836	94.77793
684.1377	89.74938
684.2918	93.45063
684.4459	92.92577
684.5999	95.39652
684.754	97.05189
684.908	91.48821
685.062	93.27052
685.2161	94.16867
685.3701	97.34485
685.5241	96.13057
685.6781	94.79993
685.8321	86.01486
685.9861	90.07028
686.14	92.79847
686.294	92.81547
686.4479	89.15943
686.6019	81.79594
686.7559	80.09384
686.9098	69.79087
687.0637	71.60043
687.2176	78.3177
687.3715	75.79452
687.5254	78.26706
687.6793	75.5995
687.8332	81.16962
687.9871	79.34956
688.1409	84.37337
688.2947	81.59396
688.4486	84.16398
688.6024	83.35829
688.7563	76.83285
688.9101	77.85714
689.0639	82.62559
689.2177	81.46609
689.3715	81.90446
689.5253	84.87585
689.6791	83.99442
689.8328	89.45586
689.9866	87.42297
690.1403	87.05426
690.2941	82.0455
690.4478	84.93644
690.6015	80.81102
690.7552	83.33048
690.9089	82.28973
691.0626	83.144
691.2164	83.17526
691.37	76.83707
691.5237	77.68802
691.6774	83.72192
691.831	78.32889
691.9847	78.84601
692.1383	87.07617
692.2919	82.76294
692.4456	81.65161
692.5992	86.92548
692.7527	83.67033
692.9064	83.65128
693.0599	86.0554
693.2136	85.71091
693.3671	85.65794
693.5207	80.61487
693.6742	82.52613
693.8278	81.41494
693.9813	80.1001
694.1348	80.61423
694.2883	77.66625
694.4418	77.63428
694.5953	78.47851
694.7488	83.90555
694.9023	80.82442
695.0558	83.65778
695.2093	80.57176
695.3627	81.56055
695.5162	80.53838
695.6696	80.96029
695.8231	83.12751
695.9764	85.64355
696.1299	90.62038
696.2833	86.50949
696.4367	79.70076
696.5901	82.81307
696.7435	83.76006
696.8968	86.10282
697.0502	84.95197
697.2036	84.13098
697.3569	82.51138
697.5102	84.60046
697.6635	83.34777
697.8168	81.31125
697.9702	76.15028
698.1235	80.86043
698.2768	84.84887
698.4301	86.86449
698.5833	81.79373
698.7366	78.63825
698.8898	80.12814
699.0431	83.27396
699.1964	80.37997
699.3495	79.99811
699.5028	82.62015
699.656	78.30785
699.8092	76.92135
699.9624	74.77305
700.1156	77.92451
700.2688	79.59957
700.4219	74.22501
700.5751	82.1227
700.7283	80.18474
700.8814	84.05689
701.0345	82.56277
701.1877	80.7408
701.3408	81.62777
701.4939	76.96398
701.647	71.35217
701.8001	77.00291
701.9532	82.46191
702.1063	78.55756
702.2593	78.18993
702.4124	70.28788
702.5654	76.70008
702.7184	79.07423
702.8715	78.51811
703.0245	79.46462
703.1776	77.31911
703.3305	76.77904
703.4835	79.56336
703.6365	74.73178
703.7895	75.60915
703.9424	77.22468
704.0954	79.56239
704.2484	74.71131
704.4013	75.79709
704.5543	73.56859
704.7072	76.35449
704.8601	76.40782
705.013	79.18182
705.1659	84.86662
705.3188	84.26705
705.4717	79.40216
705.6246	77.40999
705.7774	78.87674
705.9303	77.66371
706.0831	79.85382
706.236	80.20694
706.3888	81.05532
706.5416	82.17976
706.6944	80.61541
706.8472	79.19802
707	77.53778
707.1528	75.80729
707.3056	81.81136
707.4583	77.11518
707.6111	73.92561
707.7639	79.17013
707.9166	76.68238
708.0693	78.78198
708.222	81.3307
708.3748	81.6663
708.5275	82.96779
708.6802	78.99312
708.8328	79.13213
708.9855	80.99042
709.1382	78.56142
709.2909	75.03043
709.4435	76.9104
709.5962	79.40334
709.7488	78.75858
709.9014	76.06683
710.054	75.7931
710.2067	74.32964
710.3593	80.3557
710.5118	75.4572
710.6644	79.31072
710.817	78.99123
710.9695	73.41819
711.1221	78.40092
711.2747	76.37456
711.4272	79.27524
711.5797	77.37566
711.7322	78.65609
711.8848	73.69318
712.0373	75.43002
712.1898	77.03811
712.3422	75.97127
712.4948	72.75488
712.6472	71.5262
712.7996	74.63684
712.9521	78.47594
713.1046	79.88755
713.257	79.88668
713.4094	73.23541
713.5618	75.68234
713.7142	78.06665
713.8666	77.68808
714.019	76.23679
714.1714	79.53876
714.3237	79.21264
714.4761	76.59914
714.6285	71.82455
714.7808	78.79646
714.9331	77.00502
715.0854	76.70109
715.2378	72.96748
715.3901	72.89664
715.5424	72.57279
715.6947	73.39326
715.8469	68.45755
715.9992	71.13758
716.1515	73.78802
716.3037	71.77533
716.456	70.13512
716.6082	69.94728
716.7604	72.27418
716.9127	71.76659
717.0649	68.79949
717.2171	61.27365
717.3693	67.86807
717.5214	65.48952
717.6736	64.04603
717.8258	66.85622
717.978	65.61936
718.1301	61.41889
718.2822	64.46742
718.4344	63.32956
718.5865	63.42081
718.7386	60.0136
718.8907	59.73935
719.0428	66.89819
719.1949	60.68661
719.3469	65.91407
719.499	65.55787
719.6511	60.02653
719.8031	65.06512
719.9551	63.30416
720.1072	57.83456
720.2592	60.2583
720.4112	61.05162
720.5632	64.66679
720.7152	60.06953
720.8672	64.957
721.0192	63.81677
721.1711	65.29987
721.3231	65.56062
721.475	67.44101
721.627	68.32696
721.7789	68.76571
721.9308	65.74697
722.0828	66.10083
722.2347	65.93819
722.3866	65.1793
722.5385	65.10201
722.6903	67.70569
722.8422	65.77364
722.9941	68.37041
723.1459	63.96824
723.2977	62.35905
723.4496	58.85194
723.6014	55.84189
723.7532	57.90236
723.905	64.62607
724.0568	65.18853
724.2086	61.66931
724.3604	60.49514
724.5121	63.2108
724.6639	62.35666
724.8157	65.02723
724.9674	70.76905
725.1191	63.33128
725.2709	59.90172
725.4226	58.6118
725.5743	59.37776
725.726	62.93469
725.8777	68.54063
726.0294	65.04405
726.181	59.65605
726.3327	63.43541
726.4844	59.6056
726.636	58.40398
726.7877	62.10318
726.9393	64.48049
727.0909	61.95065
727.2425	61.52861
727.3941	57.87939
727.5457	55.47618
727.6973	58.18081
727.8488	60.83919
728.0004	54.862
728.1519	63.37212
728.3035	60.03238
728.455	64.37801
728.6066	62.79586
728.7581	59.69233
728.9095	57.49985
729.0611	57.90699
729.2126	59.37204
729.364	57.41488
729.5155	58.07589
729.667	63.09651
729.8184	62.78766
729.9698	65.27579
730.1213	60.96165
730.2727	61.80954
730.4241	60.76937
730.5756	62.42941
730.7269	63.4747
730.8784	69.02984
731.0297	62.79066
731.1811	60.49423
731.3325	63.32217
731.4838	64.41727
731.6351	62.70372
731.7865	61.51656
731.9378	59.23079
732.0891	63.47443
732.2404	69.32076
732.3917	63.75602
732.543	59.58158
732.6943	58.05555
732.8456	64.66464
732.9968	63.68361
733.1481	63.56623
733.2993	64.94615
733.4506	61.55878
733.6018	63.9167
733.753	63.61638
733.9042	60.95401
734.0554	65.40868
734.2066	67.8143
734.3578	59.36761
734.509	61.80177
734.6602	59.74098
734.8113	63.52519
734.9624	61.13318
735.1136	56.29341
735.2647	60.10268
735.4158	66.69592
735.5669	66.83537
735.718	66.72482
735.8691	68.34872
736.0201	64.2328
736.1713	62.02066
736.3223	62.1094
736.4733	60.32865
736.6244	63.20833
736.7755	65.51238
736.9265	62.87201
737.0775	61.69309
737.2285	62.77584
737.3795	59.501
737.5305	67.78743
737.6815	68.00636
737.8324	68.9291
737.9834	65.95276
738.1343	67.86991
738.2853	64.45564
738.4362	66.07666
738.5871	62.83247
738.738	59.12242
738.8889	60.7511
739.0399	64.29742
739.1907	67.63205
739.3416	62.1335
739.4925	53.91809
739.6433	59.41949
739.7942	65.13299
739.945	64.56825
740.0958	63.41991
740.2467	62.43622
740.3975	61.81761
740.5483	65.69573
740.6991	62.83449
740.8499	62.58683
741.0007	67.58624
741.1514	63.03522
741.3022	63.1633
741.4529	62.39285
741.6036	62.66434
741.7544	66.09019
741.9051	62.14003
742.0558	62.33978
742.2065	63.59268
742.3572	63.03539
742.5079	56.12427
742.6586	60.37083
742.8093	61.193
742.9599	63.67076
743.1105	62.22406
743.2612	59.16229
743.4118	59.09785
743.5624	61.29091
743.7131	61.91743
743.8636	62.94692
744.0142	65.15401
744.1648	67.17034
744.3154	61.81255
744.4659	61.81888
744.6165	58.88839
744.767	55.76688
744.9176	60.17811
745.0681	62.34313
745.2186	61.46087
745.3691	60.5174
745.5197	62.53049
745.6702	61.15345
745.8206	60.97277
745.9711	58.28413
746.1215	60.35897
746.272	67.22217
746.4224	55.75885
746.5729	58.4292
746.7233	62.80596
746.8737	60.56599
747.0241	61.46103
747.1745	59.88394
747.3249	59.46297
747.4753	58.51894
747.6257	59.5821
747.776	59.65876
747.9264	57.63741
748.0767	55.62504
748.2271	57.00649
748.3774	55.42882
748.5276	63.56887
748.678	64.30849
748.8282	55.90448
748.9786	55.85637
749.1288	62.03984
749.2791	57.68607
749.4294	58.40406
749.5796	59.01222
749.7299	59.94653
749.8801	56.5374
750.0303	58.6667
750.1805	61.19004
750.3307	56.17165
750.4809	55.39633
750.6311	62.08528
750.7813	54.41432
750.9314	52.69221
751.0816	56.57296
751.2318	57.2832
751.3818	60.31248
751.532	55.94303
751.6821	51.76153
751.8322	52.39384
751.9823	54.2475
752.1324	55.75875
752.2825	61.05119
752.4326	54.25234
752.5826	55.18015
752.7327	56.01701
752.8827	54.93037
753.0327	57.35456
753.1827	58.44677
753.3328	58.50536
753.4828	55.11727
753.6328	59.38737
753.7828	57.59312
753.9327	56.35014
754.0827	53.84467
754.2327	53.02512
754.3826	56.39484
754.5325	58.48048
754.6825	57.60595
754.8324	54.9922
754.9823	58.69856
755.1322	58.62152
755.2821	53.80955
755.432	54.70263
755.5818	55.12268
755.7318	53.0772
755.8816	56.1479
756.0314	55.6176
756.1813	54.8742
756.3311	51.89207
756.4809	51.16748
756.6307	56.30825
756.7805	53.76152
756.9303	48.8764
757.0801	53.14353
757.2299	53.37022
757.3796	49.37019
757.5294	58.26376
757.6791	53.43789
757.8289	49.30497
757.9786	49.54704
758.1283	51.64443
758.278	57.0544
758.4277	57.91534
758.5773	50.91983
758.7271	48.0551
758.8767	54.31354
759.0264	52.77416
759.176	51.74586
759.3256	45.93904
759.4753	42.16259
759.6249	31.81601
759.7745	30.95047
759.9241	26.59148
760.0737	29.35155
760.2233	25.66807
760.3729	21.67951
760.5224	22.29115
760.6719	24.50633
760.8215	23.73546
760.971	27.05636
761.1205	26.29898
761.2701	25.01917
761.4196	28.29619
761.5691	36.41374
761.7186	39.60702
761.868	43.03627
762.0175	42.91994
762.167	41.66355
762.3164	35.98235
762.4659	38.01256
762.6153	38.03494
762.7647	31.40343
762.9141	25.37938
763.0635	32.95224
763.2129	31.32151
763.3623	32.93758
763.5117	31.54812
763.661	31.92282
763.8104	32.40864
763.9597	34.11833
764.1091	31.83654
764.2584	36.74303
764.4077	33.81181
764.557	34.95067
764.7063	40.7108
764.8556	35.78245
765.0049	42.63395
765.1541	42.30374
765.3034	39.33287
765.4526	35.5401
765.6019	40.0601
765.7511	37.49529
765.9003	41.78515
766.0496	38.9097
766.1987	39.87394
766.348	42.47724
766.4971	40.5668
766.6463	40.12941
766.7955	44.94914
766.9446	46.80121
767.0938	44.94411
767.2429	43.16858
767.392	43.37983
767.5411	43.1957
767.6902	48.6448
767.8394	47.03379
767.9884	45.95095
768.1375	43.61487
768.2866	47.30058
768.4356	51.43253
768.5847	46.09569
768.7337	47.71333
768.8828	43.81722
769.0317	43.50635
769.1808	46.98502
769.3298	42.39542
769.4788	45.02399
769.6277	48.89919
769.7767	44.21819
769.9257	42.38467
770.0746	44.35897
770.2236	41.65643
770.3725	45.84266
770.5214	45.91318
770.6703	46.85898
770.8193	49.1564
770.9681	47.91341
771.1171	46.81626
771.2659	45.47367
771.4148	43.66024
771.5637	41.22598
771.7125	43.65277
771.8613	44.0516
772.0101	44.57063
772.159	45.99925
772.3078	45.07512
772.4566	50.44849
772.6054	44.19298
772.7542	39.51028
772.903	42.50581
773.0517	44.95728
773.2004	37.49624
773.3492	41.96917
773.4979	47.94775
773.6467	42.15186
773.7953	45.93283
773.944	45.9826
774.0928	42.61901
774.2415	45.31145
774.3901	42.66085
774.5388	45.44562
774.6874	46.38986
774.8361	44.69427
774.9847	43.48338
775.1334	42.67624
775.282	43.25843
775.4305	43.37277
775.5792	40.39278
775.7277	40.82685
775.8763	43.39787
776.0249	39.01337
776.1735	43.00711
776.322	45.45183
776.4705	41.13035
776.6191	40.97347
776.7676	38.73218
776.9161	45.79991
777.0646	44.73066
777.2131	43.41685
777.3616	40.23473
777.5101	42.59867
777.6585	38.28822
777.8069	44.30833
777.9554	40.49051
778.1038	39.12373
778.2523	39.51186
778.4007	39.20006
778.5491	42.69002
778.6974	44.984
778.8459	40.94437
778.9942	36.88425
779.1426	34.80201
779.291	37.82412
779.4393	43.0033
779.5876	39.85975
779.736	43.34047
779.8843	35.50542
780.0326	34.90159
780.1809	39.2072
780.3292	36.89841
780.4775	35.18371
780.6257	37.16982
780.774	37.25126
780.9222	44.75892
781.0704	39.3139
781.2187	42.0673
781.3669	40.77747
781.5151	44.0098
781.6633	39.10749
781.8115	44.41527
781.9597	35.22216
782.1078	34.63886
782.256	44.06274
782.4042	40.53978
782.5523	42.76611
782.7004	39.33183
782.8486	37.7401
782.9967	37.43378
783.1448	37.84339
783.2929	36.98175
783.441	39.98082
783.5891	40.46432
783.7371	33.29153
783.8851	33.83001
784.0332	37.84012
784.1812	39.14764
784.3293	40.06113
784.4773	39.31182
784.6253	35.39454
784.7733	36.4974
784.9213	35.75281
785.0692	39.08897
785.2172	36.17823
785.3652	35.90207
785.5131	41.26725
785.6611	37.12336
785.809	35.41423
785.9569	36.07554
786.1048	37.44297
786.2527	34.57745
786.4006	35.34367
786.5485	37.23037
786.6964	38.65942
786.8442	38.24033
786.9921	39.51183
787.1399	40.07268
787.2877	37.08664
787.4355	41.94697
787.5833	35.81385
787.7311	39.55301
787.8789	40.06616
788.0267	35.94785
788.1745	31.98373
788.3223	33.71461
788.47	36.36631
788.6177	39.89913
788.7654	34.07887
788.9132	36.59966
789.0609	39.73634
789.2086	36.45933
789.3563	34.15131
789.504	42.22963
789.6517	43.02029
789.7993	35.90369
789.947	38.17257
790.0946	35.99584
790.2422	32.33703
790.3898	34.65073
790.5375	36.66446
790.6851	31.38606
790.8326	35.69975
790.9802	36.73779
791.1278	36.19408
791.2754	33.63237
791.423	34.91356
791.5705	37.93968
791.718	35.51583
791.8655	33.49346
792.0131	34.95873
792.1606	34.9066
792.308	40.20678
792.4556	37.57211
792.603	35.39573
792.7505	38.03916
792.8979	39.30457
793.0454	33.86892
793.1928	40.4028
793.3403	37.24587
793.4877	33.94204
793.6351	35.20321
793.7825	35.71188
793.9299	32.93513
794.0772	34.61289
794.2246	40.04884
794.3719	37.21833
794.5193	32.63821
794.6666	29.95813
794.814	32.63708
794.9613	37.26997
795.1086	36.26007
795.2559	33.71688
795.4032	29.89387
795.5505	34.32801
795.6978	33.68743
795.845	31.07325
795.9922	36.00737
796.1395	35.99775
796.2867	34.16953
796.4339	30.79362
796.5811	37.11929
796.7283	37.23928
796.8755	34.5568
797.0227	35.71801
797.1699	31.85066
797.317	32.61076
797.4642	29.57148
797.6113	32.01434
797.7584	32.19246
797.9056	30.84098
798.0527	29.70682
798.1998	33.03017
798.3469	35.75039
798.494	33.08843
798.641	31.3815
798.7881	33.88479
798.9351	30.2551
799.0822	33.39236
799.2292	30.92335
799.3762	31.25167
799.5232	30.96043
799.6702	32.31242
799.8172	28.42614
799.9642	27.58672
800.1111	29.64074
800.2581	33.66043
800.4051	34.45914
800.552	33.98344
800.6989	30.22108
800.8458	34.93769
800.9927	31.18588
801.1396	30.39909
801.2866	30.02534
801.4334	34.8727
801.5803	32.74983
801.7272	30.9566
801.874	34.92084
802.0209	34.93869
802.1677	27.36978
802.3145	31.89785
802.4613	30.61563
802.6081	35.68397
802.7549	36.97568
802.9017	33.20365
803.0485	31.11328
803.1952	27.23397
803.342	24.911
803.4887	27.69671
803.6354	31.05674
803.7822	32.29642
803.9289	31.17992
804.0756	32.43358
804.2223	30.59458
804.369	32.98995
804.5156	33.12641
804.6623	29.54594
804.8089	29.56032
804.9556	31.09188
805.1022	29.15504
805.2488	28.33551
805.3954	32.04116
805.542	29.99717
805.6886	30.59199
805.8352	29.48499
805.9818	32.96125
806.1283	32.39728
806.2749	29.80896
806.4214	29.52887
806.5679	26.77273
806.7145	31.15067
806.861	30.84607
807.0074	33.15651
807.154	30.01214
807.3004	32.51727
807.4469	28.77565
807.5934	28.09635
807.7398	30.97405
807.8862	31.21675
808.0327	34.63539
808.1791	31.17677
808.3255	29.45138
808.4719	29.1895
808.6183	24.98385
808.7647	31.08178
808.9111	31.68444
809.0574	32.32349
809.2037	28.16658
809.3501	29.51463
809.4965	24.60172
809.6428	24.94575
809.7891	24.54198
809.9354	27.61301
810.0817	26.31535
810.2279	26.49288
810.3742	26.28971
810.5204	28.12954
810.6667	29.93208
810.8129	23.22775
810.9592	25.26364
811.1054	27.61787
811.2516	28.08252
811.3978	28.00495
811.5439	30.73265
811.6901	28.47974
811.8363	24.22282
811.9825	22.89079
812.1286	24.18502
812.2748	27.76097
812.4209	25.65224
812.567	23.79735
812.7131	21.03844
812.8592	23.85836
813.0053	24.41835
813.1514	25.91085
813.2974	26.4629
813.4435	24.64673
813.5895	23.69331
813.7356	29.31162
813.8816	25.16339
814.0276	25.04314
814.1736	25.62561
814.3196	28.50952
814.4656	31.2244
814.6116	25.14502
814.7576	25.68224
814.9035	23.99928
815.0494	20.75796
815.1954	21.4676
815.3413	23.60145
815.4872	28.1925
815.6331	26.43809
815.779	21.79127
815.9249	24.97243
816.0707	28.48466
816.2166	26.03004
816.3625	19.59786
816.5083	20.85426
816.6542	20.94072
816.8	22.11934
816.9458	22.69851
817.0916	24.07882
817.2374	19.78201
817.3832	21.58942
817.5289	21.06973
817.6747	16.94781
817.8204	23.42218
817.9662	21.11461
818.1119	22.3117
818.2576	26.40829
818.4034	24.20337
818.5491	25.32697
818.6948	23.47284
818.8405	21.47237
818.9861	20.23945
819.1318	17.25977
819.2774	23.75716
819.423	16.86948
819.5687	20.27829
819.7143	20.95595
819.8599	19.77
820.0055	20.24705
820.1511	22.04567
820.2967	24.42884
820.4422	24.48546
820.5878	21.57707
820.7333	24.73467
820.8788	24.36831
821.0244	24.22609
821.1699	22.83623
821.3154	20.99006
821.4609	21.56156
821.6064	25.86317
821.7519	27.49011
821.8973	21.67406
822.0428	22.96756
822.1882	18.57607
822.3337	21.46985
822.4791	19.33164
822.6245	17.29485
822.7699	20.19621
822.9153	15.2213
823.0607	14.67243
823.2061	19.22662
823.3514	19.04858
823.4968	21.43692
823.6422	23.83346
823.7875	20.99002
823.9328	20.81828
824.0781	19.11263
824.2234	16.65309
824.3687	18.39339
824.514	22.59165
824.6592	23.2212
824.8045	20.65024
824.9498	23.96443
825.095	21.53922
825.2402	24.11883
825.3854	23.77607
825.5306	20.23363
825.6758	20.53299
825.821	21.34411
825.9662	23.14917
826.1114	20.96055
826.2565	19.56903
826.4017	17.75331
826.5468	21.87613
826.692	25.04551
826.837	24.54524
826.9822	21.80508
827.1273	18.77946
827.2723	15.09477
827.4174	17.20046
827.5625	19.34692
827.7075	23.66087
827.8526	19.8206
827.9976	15.73641
828.1426	15.1052
828.2877	18.66678
828.4327	20.50604
828.5776	24.13004
828.7227	15.18569
828.8676	20.40222
829.0126	24.2211
829.1575	18.54302
829.3024	20.8852
829.4474	19.94876
829.5923	16.39283
829.7372	18.50064
829.8821	21.84326
830.027	20.71715
830.1719	17.91102
830.3168	23.23016
830.4616	23.14059
830.6064	23.99621
830.7513	23.87969
830.8961	22.18504
831.041	21.49655
831.1857	24.27357
831.3306	23.04769
831.4753	24.35414
831.6201	23.50101
831.7649	17.3297
831.9096	19.8778
832.0544	21.7671
832.1991	21.45713
832.3438	20.6517
832.4885	21.10641
832.6332	16.49983
832.778	13.59113
832.9226	17.6181
833.0673	16.31814
833.2119	17.19681
833.3566	18.36112
833.5012	15.41962
833.6459	21.20265
833.7905	16.6951
833.9351	19.52033
834.0797	16.02358
834.2243	20.65676
834.3688	20.80278
834.5134	20.67538
834.658	23.20221
834.8026	25.52865
834.9471	20.42055
835.0916	17.02989
835.2361	14.35596
835.3806	19.9388
835.5251	22.03826
835.6696	19.12675
835.8141	21.15891
835.9586	23.95958
836.103	21.25659
836.2474	21.87753
836.3918	24.36405
836.5363	18.39235
836.6807	20.4023
836.8251	18.71229
836.9695	16.82877
837.1138	17.77279
837.2582	17.11147
837.4026	16.64404
837.5469	19.61523
837.6913	17.41744
837.8356	22.81481
837.9799	19.36842
838.1242	19.21933
838.2686	19.45409
838.4128	21.49895
838.5571	20.6942
838.7014	18.94543
838.8456	18.28426
838.9899	23.93212
839.1341	25.99084
839.2783	22.91354
839.4225	18.23577
839.5667	16.68966
839.7109	18.09776
839.8551	19.58477
839.9993	20.74416
840.1434	19.70762
840.2876	21.00156
840.4317	16.9084
840.5759	17.42277
840.72	18.07059
840.8641	21.35088
841.0082	19.87303
841.1523	18.85369
841.2963	17.91488
841.4404	14.70423
841.5845	15.8875
841.7285	18.32135
841.8726	21.78869
842.0165	16.84134
842.1606	22.67793
842.3046	21.62206
842.4485	18.04467
842.5925	18.47655
842.7365	16.8744
842.8805	22.1614
843.0244	18.67662
843.1684	23.97279
843.3123	21.756
843.4562	20.54238
843.6002	19.13859
843.744	20.5366
843.8879	18.0067
844.0318	15.21328
844.1757	16.93698
844.3195	17.39428
844.4634	22.28219
844.6072	21.27197
844.751	17.83886
844.8948	20.69516
845.0386	19.31888
845.1824	19.3621
845.3262	19.47194
845.47	19.74273
845.6138	15.20362
845.7575	16.99374
845.9012	15.61475
846.045	20.49689
846.1887	19.40814
846.3324	17.50816
846.4761	23.07951
846.6198	19.65477
846.7635	15.18207
846.9071	20.09525
847.0508	21.78507
847.1944	19.26721
847.3381	17.97715
847.4817	26.50475
847.6253	22.06033
847.7689	19.63611
847.9125	18.79061
848.0561	18.6507
848.1996	16.40388
848.3432	17.47697
848.4868	16.66474
848.6303	17.46337
848.7738	19.874
848.9174	17.02491
849.0609	16.3434
849.2043	16.28939
849.3478	21.107
849.4913	23.17655
849.6348	20.03715
849.7782	16.08874
849.9217	19.73966
850.0651	14.81399
850.2086	16.66899
850.3519	16.12903
850.4954	20.7688
850.6387	17.31691
850.7821	13.56614
850.9255	13.56442
851.0688	16.36095
851.2122	18.35466
851.3555	16.18367
851.4988	17.42201
851.6422	23.21831
851.7855	16.43268
851.9288	16.15526
852.0721	17.87937
852.2153	19.25822
852.3586	19.38727
852.5018	16.53325
852.6451	16.56449
852.7883	18.46499
852.9315	17.38421
853.0748	17.01333
853.218	18.59362
853.3611	15.87438
853.5043	18.48963
853.6475	23.64968
853.7906	19.19385
853.9338	15.86791
854.0769	7.897865
854.22	17.79826
854.3632	15.74584
854.5063	10.83554
854.6494	13.66566
854.7924	12.74092
854.9355	15.18672
855.0786	15.62906
855.2216	19.55339
855.3647	18.62658
855.5077	15.98762
855.6507	20.33983
855.7937	16.82694
855.9367	17.9257
856.0797	17.21237
856.2227	15.85959
856.3657	15.15801
856.5086	20.10265
856.6516	19.10966
856.7945	16.61599
856.9374	13.69252
857.0803	16.76911
857.2232	16.89835
857.3661	14.17726
857.509	13.59518
857.6519	23.2888
857.7947	17.07706
857.9376	14.84371
858.0804	15.4479
858.2232	16.5568
858.366	16.09563
858.5089	13.23008
858.6516	12.54639
858.7944	17.40023
858.9372	17.98161
859.08	18.44589
859.2227	14.75488
859.3654	17.60726
859.5082	16.74923
859.6509	22.04801
859.7936	14.82417
859.9363	17.49109
860.079	14.64388
860.2217	15.08735
860.3643	12.34823
860.507	13.76556
860.6496	16.02481
860.7922	15.76183
860.9349	14.25784
861.0775	15.75119
861.2201	17.35208
861.3627	14.81439
861.5052	19.34177
861.6478	16.28557
861.7904	16.52997
861.9329	17.92957
862.0755	15.68302
862.218	11.42684
862.3605	12.26265
862.503	17.4606
862.6455	19.08389
862.788	19.01151
862.9305	20.08583
863.0729	17.76488
863.2154	18.13388
863.3578	19.08758
863.5002	17.39801
863.6426	19.42918
863.7851	18.28888
863.9275	14.76126
864.0698	16.03459
864.2122	14.98719
864.3546	15.27316
864.4969	15.61142
864.6393	14.33816
864.7816	12.9116
864.924	11.22903
865.0662	14.0023
865.2086	13.33404
865.3508	8.911493
865.4931	15.67031
865.6354	16.16308
865.7776	10.33209
865.9199	15.19319
866.0621	15.96052
866.2043	17.61472
866.3466	13.67438
866.4888	9.253419
866.6309	13.75911
866.7731	14.17585
866.9153	12.90629
867.0574	14.71992
867.1996	19.47462
867.3417	13.12893
867.4839	16.04487
867.626	14.24755
867.7681	19.49574
867.9102	11.12895
868.0522	16.47809
868.1943	14.96301
868.3364	16.13757
868.4785	18.76056
868.6205	12.33629
868.7625	14.25741
868.9045	18.77021
869.0465	15.38111
869.1885	15.61385
869.3305	15.77727
869.4725	19.04747
869.6144	15.85137
869.7564	19.53493
869.8983	18.24576
870.0403	15.92921
870.1822	10.75233
870.3241	13.4674
870.466	15.38717
870.6079	13.26635
870.7498	16.2021
870.8916	16.4248
871.0335	9.367557
871.1754	15.54435
871.3171	9.149397
871.459	11.70047
871.6008	13.99435
871.7426	12.85387
871.8844	12.23401
872.0262	17.80316
872.1679	15.89441
872.3097	10.92275
872.4514	15.67302
872.5931	18.20285
872.7349	15.36724
872.8766	16.52161
873.0183	15.81659
873.16	16.15238
873.3017	14.66645
873.4434	13.95398
873.585	13.90348
873.7266	13.85289
873.8683	14.68992
874.0099	15.75119
874.1516	16.23548
874.2932	18.11633
874.4348	10.61067
874.5763	10.0988
874.7179	11.11736
874.8594	12.50389
875.001	11.90166
875.1425	8.928387
875.2841	10.30746
875.4256	14.77905
875.5671	13.55276
875.7086	11.21008
875.85	10.99347
875.9915	11.54676
876.133	7.473616
876.2744	9.263312
876.4159	12.80631
876.5573	11.52858
876.6987	14.93968
876.8401	15.62422
876.9815	12.93203
877.1229	11.7099
877.2643	14.9116
877.4056	11.88281
877.547	12.68065
877.6884	12.9892
877.8297	9.529852
877.971	12.23069
878.1123	12.34706
878.2536	8.406893
878.3949	10.91466
878.5362	16.67723
878.6774	15.50691
878.8187	16.72537
878.9599	15.23011
879.1011	11.36456
879.2424	9.119136
879.3836	8.829683
879.5248	8.363451
879.666	14.52407
879.8071	15.9256
879.9483	16.39476
880.0895	15.19627
880.2306	11.66614
880.3718	9.052308
880.5129	7.56359
880.654	11.10176
880.7951	13.88816
880.9362	15.12125
881.0773	14.38211
881.2183	17.29668
881.3594	11.76435
881.5004	14.01872
881.6414	15.56583
881.7825	14.61047
881.9235	13.1838
882.0645	10.97213
882.2054	12.92824
882.3464	8.677097
882.4874	9.004462
882.6284	11.78199
882.7693	11.94121
882.9103	7.527232
883.0512	9.359567
883.1921	10.02633
883.333	15.26983
883.4739	10.72518
883.6147	12.67118
883.7556	10.33
883.8965	10.5794
884.0374	13.57321
884.1782	11.13425
884.319	10.97785
884.4598	12.51688
884.6006	12.83688
884.7414	13.40802
884.8822	14.84588
885.0229	10.44711
885.1637	10.95952
885.3044	8.862287
885.4452	4.252811
885.5859	13.68881
885.7266	11.58403
885.8673	10.33398
886.008	13.19858
886.1487	15.07924
886.2894	13.69428
886.43	15.98843
886.5707	13.86371
886.7113	12.18015
886.8519	10.22506
886.9926	9.455238
887.1331	15.17552
887.2737	12.5543
887.4143	14.60631
887.5549	11.61421
887.6954	7.428694
887.836	8.518299
887.9765	8.784078
888.1171	9.392838
888.2576	7.231653
888.3981	14.55211
888.5386	13.77317
888.679	12.43558
888.8195	10.55414
888.96	15.46659
889.1004	14.13569
889.2408	7.139861
889.3813	12.75501
889.5217	14.94695
889.6621	11.66311
889.8025	14.1909
889.9429	10.35853
890.0833	9.255475
890.2236	10.83346
890.364	13.04305
890.5043	6.570719
890.6446	8.830363
890.7849	8.672243
890.9252	12.35735
891.0655	12.52018
891.2058	11.67625
891.3461	8.502385
891.4863	10.61122
891.6266	12.60874
891.7668	12.28857
891.907	8.999306
892.0472	4.632841
892.1874	8.124734
892.3276	11.28734
892.4678	10.70773
892.608	8.678102
892.7481	6.46723
892.8883	10.86573
893.0284	12.4537
893.1685	13.85364
893.3087	9.875027
893.4487	10.93455
893.5889	14.03771
893.7289	11.50529
893.869	14.54646
894.009	11.92607
894.1491	8.128833
894.2891	10.22143
894.4291	11.26854
894.5692	7.921954
894.7092	7.135273
894.8491	11.82755
894.9891	6.733757
895.1291	8.352831
895.269	7.796683
895.409	4.421422
895.549	8.892563
895.6888	9.946731
895.8288	9.448042
895.9687	12.17353
896.1086	12.61694
896.2484	7.716078
896.3883	7.406453
896.5281	8.472053
896.668	9.869028
896.8079	7.286447
896.9476	9.535423
897.0875	5.103321
897.2272	10.03522
897.3671	10.21067
897.5068	7.75086
897.6466	11.62892
897.7864	11.73131
897.9261	11.25485
898.0658	15.06804
898.2056	10.27316
898.3453	7.125103
898.4849	9.855691
898.6246	10.58354
898.7643	7.845566
898.904	5.040851
899.0436	8.056173
899.1833	8.044036
899.3229	6.893774
899.4625	5.720344
899.6021	9.097052
899.7417	10.0585
899.8813	12.33893
900.0209	10.16098
900.1605	6.132481
900.3	8.891065
900.4395	10.27655
900.579	10.16486
900.7186	10.04131
900.8581	6.642327
900.9976	9.189549
901.1371	12.93188
901.2766	9.619772
901.416	5.920769
901.5555	8.627733
901.6949	5.656144
901.8344	7.19193
901.9738	9.591314
902.1132	10.0622
902.2526	9.475729
902.3919	7.431278
902.5313	7.014404
902.6707	10.27466
