SPECTRUM DATA FILE
SpectrumCount:	1
PixelCount:	3648
UserName:	ToughBook User
SampleName:	
LightSource:	
Comments:	
DeviceName:	Qwave
DeviceManufacturer:	Broadcom
DeviceSerialNo:	11311

Name:	last spectrum
Date:	2024-05-02T15:03:00.9515492+02:00
ExposureTime:	0.02
TemporalAvg:	1
IntensityUnit:	normalizedCounts
CCDLoadLevel:	0.04994079
Temperature:	29.33926
DiagramColor:	200
ProcessingSteps:	335

Wavelength [nm]	Intensity1
334.421	15.06081
334.5891	14.18254
334.7573	7.184496
334.9254	9.01288
335.0935	8.767276
335.2616	16.1502
335.4297	11.96024
335.5978	10.92412
335.7659	10.3956
335.934	12.56826
336.1021	11.72325
336.2701	11.11854
336.4382	10.27357
336.6063	10.18485
336.7744	12.51532
336.9424	13.45288
337.1105	7.735678
337.2785	11.61659
337.4466	13.776
337.6146	8.110743
337.7827	14.66015
337.9507	10.19316
338.1187	15.68055
338.2867	10.14621
338.4548	9.150667
338.6228	13.43032
338.7908	11.03566
338.9588	14.23429
339.1268	9.223709
339.2948	11.91263
339.4628	10.98326
339.6308	9.522256
339.7988	12.14348
339.9667	13.43468
340.1347	12.75537
340.3027	15.65128
340.4707	10.28559
340.6386	14.73826
340.8066	14.81748
340.9745	11.30035
341.1425	10.676
341.3104	12.86593
341.4784	18.43477
341.6463	12.81486
341.8142	10.40416
341.9821	11.32195
342.1501	16.47652
342.318	13.23937
342.4859	14.50571
342.6538	14.87145
342.8217	14.65473
342.9896	11.42001
343.1575	14.65433
343.3254	10.35747
343.4933	11.99061
343.6612	13.80242
343.829	18.78823
343.9969	17.68328
344.1648	15.47051
344.3326	16.77217
344.5005	17.4318
344.6683	12.16235
344.8362	11.61576
345.004	18.99316
345.1719	14.9568
345.3397	11.35306
345.5075	16.1356
345.6754	17.00344
345.8432	19.03211
346.011	17.19678
346.1788	19.21473
346.3466	14.47604
346.5144	9.918845
346.6822	21.09426
346.85	18.23109
347.0178	13.04076
347.1856	13.66238
347.3534	17.2329
347.5211	12.95652
347.6889	12.09755
347.8567	13.76582
348.0244	10.90375
348.1922	14.07364
348.3599	18.96264
348.5277	16.61087
348.6954	12.61008
348.8632	13.73067
349.0309	15.30875
349.1986	12.62396
349.3663	12.82782
349.5341	11.20865
349.7018	13.80186
349.8695	14.27394
350.0372	11.58161
350.2049	14.08137
350.3726	13.6346
350.5403	15.91579
350.7079	19.65899
350.8756	14.6966
351.0433	15.31615
351.211	17.8666
351.3786	15.26828
351.5463	15.35731
351.714	16.10126
351.8816	12.05958
352.0493	16.04287
352.2169	16.25649
352.3846	15.92805
352.5522	14.61474
352.7198	13.93864
352.8875	14.32174
353.0551	18.90478
353.2227	20.88045
353.3903	18.53785
353.5579	23.77696
353.7255	20.86937
353.8931	17.98721
354.0607	17.41301
354.2283	16.67762
354.3958	22.81366
354.5634	21.66975
354.731	20.91503
354.8986	16.76656
355.0661	13.72406
355.2337	17.33021
355.4012	18.00203
355.5688	16.97302
355.7363	15.57552
355.9039	17.54485
356.0714	16.90884
356.239	13.22025
356.4065	14.90427
356.574	11.89983
356.7415	16.07092
356.909	14.53022
357.0765	13.16294
357.244	12.97922
357.4115	16.74339
357.579	15.60256
357.7465	16.67754
357.914	16.04358
358.0815	15.13528
358.249	18.47038
358.4164	16.16004
358.5839	15.97347
358.7513	13.02738
358.9188	11.76531
359.0862	15.30363
359.2537	15.26152
359.4211	19.2779
359.5886	21.31059
359.756	17.17183
359.9234	17.83186
360.0909	17.5005
360.2583	12.95952
360.4257	19.53257
360.5931	17.26472
360.7605	20.60893
360.9279	16.52162
361.0953	10.20794
361.2627	18.03535
361.4301	16.2043
361.5974	19.96728
361.7648	19.56002
361.9322	11.08183
362.0995	16.26985
362.2669	19.69009
362.4343	20.90656
362.6016	16.22914
362.769	21.65966
362.9363	17.44027
363.1036	14.76694
363.271	17.51266
363.4383	16.41333
363.6056	16.25624
363.7729	17.62842
363.9402	14.99485
364.1075	19.51718
364.2748	21.25392
364.4421	22.41755
364.6094	20.9603
364.7767	20.36036
364.944	23.89949
365.1113	20.57285
365.2786	20.07476
365.4458	18.34485
365.6131	16.81925
365.7803	19.46948
365.9476	24.65681
366.1148	25.26342
366.2821	20.87765
366.4493	21.67587
366.6166	21.4703
366.7838	20.93866
366.951	21.43222
367.1182	21.53761
367.2855	19.90986
367.4527	22.68389
367.6199	23.48233
367.7871	20.93944
367.9543	22.27085
368.1215	21.62528
368.2886	24.15854
368.4558	20.14767
368.623	23.16871
368.7902	21.57941
368.9573	21.48929
369.1245	21.93133
369.2917	22.52842
369.4588	21.3898
369.6259	23.15474
369.7931	23.64688
369.9602	23.70853
370.1274	21.59927
370.2945	21.82106
370.4616	22.0976
370.6287	18.61927
370.7958	25.96058
370.963	23.18833
371.1301	21.02774
371.2971	24.59938
371.4643	28.4708
371.6313	25.82141
371.7984	23.5088
371.9655	24.31124
372.1326	19.40709
372.2997	24.81248
372.4667	22.80724
372.6338	22.47954
372.8008	28.51646
372.9679	27.96127
373.1349	25.78019
373.3019	24.34529
373.469	24.61275
373.636	18.30345
373.803	19.03212
373.9701	23.97752
374.1371	27.30027
374.3041	25.34381
374.4711	21.93215
374.6381	22.5154
374.8051	21.53497
374.9721	22.44848
375.1391	24.66095
375.3061	26.66613
375.473	29.26721
375.64	28.12797
375.8069	29.55793
375.9739	28.62253
376.1409	27.14564
376.3078	21.44421
376.4748	19.00695
376.6417	20.96286
376.8087	27.71246
376.9756	26.6712
377.1425	28.50187
377.3094	27.4348
377.4763	30.82598
377.6432	26.6904
377.8102	27.40853
377.9771	27.77227
378.144	32.08199
378.3109	30.92114
378.4777	27.51944
378.6446	29.73529
378.8115	28.92124
378.9784	26.26539
379.1452	23.97475
379.3121	24.94828
379.4789	23.86358
379.6458	23.44617
379.8127	24.27804
379.9795	26.75279
380.1463	29.26641
380.3131	28.75162
380.48	27.71572
380.6468	23.11549
380.8136	29.73959
380.9804	32.21012
381.1472	26.27443
381.314	26.9036
381.4808	24.95917
381.6476	24.43439
381.8144	27.91409
381.9812	27.98574
382.148	26.93611
382.3147	24.43833
382.4815	23.10997
382.6483	22.36426
382.815	20.37436
382.9818	22.31556
383.1485	23.38463
383.3153	21.07641
383.482	25.35675
383.6487	25.46892
383.8155	25.42001
383.9822	28.60624
384.1489	29.88256
384.3156	25.51124
384.4823	29.27659
384.649	32.46389
384.8157	30.81016
384.9824	28.99171
385.1491	28.11074
385.3158	30.84978
385.4825	31.9617
385.6491	27.62395
385.8158	29.63003
385.9825	31.25764
386.1491	27.45163
386.3157	32.98901
386.4824	32.96396
386.649	35.28347
386.8157	29.37877
386.9823	31.39172
387.1489	28.22874
387.3156	28.25492
387.4821	28.86614
387.6488	30.05844
387.8154	31.14267
387.982	25.07769
388.1486	24.543
388.3152	31.10472
388.4818	27.73386
388.6483	30.82029
388.8149	30.70879
388.9815	36.30334
389.148	35.57801
389.3146	32.18041
389.4811	37.72564
389.6477	37.01458
389.8142	38.98493
389.9808	35.77921
390.1473	33.56529
390.3138	34.53941
390.4804	32.83885
390.6469	28.12752
390.8134	28.36101
390.9799	35.72741
391.1464	42.46019
391.3129	39.26847
391.4794	40.32816
391.6459	39.09344
391.8124	39.74318
391.9789	37.825
392.1453	30.68652
392.3118	33.16702
392.4782	32.51311
392.6447	28.89579
392.8112	32.65607
392.9776	28.06177
393.144	25.64637
393.3105	21.7067
393.4769	22.30448
393.6433	25.28903
393.8098	30.10733
393.9762	29.50393
394.1426	32.34575
394.309	30.45605
394.4754	34.68703
394.6418	35.10435
394.8082	35.83825
394.9746	41.17236
395.141	40.47869
395.3073	43.90598
395.4737	40.62863
395.64	42.00466
395.8064	44.30093
395.9728	38.96963
396.1391	36.98944
396.3055	34.68585
396.4718	31.79669
396.6381	29.87051
396.8045	23.95551
396.9708	27.94989
397.1371	27.73238
397.3034	27.10736
397.4697	33.62023
397.636	43.29204
397.8023	44.88466
397.9686	48.837
398.1349	46.55945
398.3012	50.47172
398.4675	45.77684
398.6337	45.81969
398.8	51.78939
398.9662	48.16882
399.1325	53.29618
399.2988	53.75235
399.465	49.96341
399.6313	52.79599
399.7975	49.64864
399.9637	53.13274
400.1299	51.29269
400.2961	52.37733
400.4624	48.55827
400.6286	52.44474
400.7948	53.93666
400.961	52.458
401.1272	54.98256
401.2934	53.47489
401.4595	59.75629
401.6257	58.72207
401.7919	57.78533
401.9581	61.90397
402.1242	61.53426
402.2904	55.66914
402.4565	55.67916
402.6227	58.62706
402.7888	61.82933
402.955	58.77326
403.1211	54.24466
403.2872	46.24163
403.4533	49.29182
403.6194	62.2072
403.7856	64.23272
403.9517	61.07638
404.1177	65.32088
404.2838	59.30184
404.4499	54.58434
404.616	52.17135
404.7821	54.49097
404.9482	61.47752
405.1142	60.74641
405.2803	58.07289
405.4464	57.08451
405.6124	55.96782
405.7784	52.46109
405.9445	53.41555
406.1105	54.49292
406.2766	59.02239
406.4426	57.45428
406.6086	58.24027
406.7746	63.61959
406.9406	68.33332
407.1066	66.15173
407.2726	60.46627
407.4386	63.30774
407.6046	63.44681
407.7706	59.68321
407.9366	62.66507
408.1025	63.09676
408.2685	69.85506
408.4344	69.34008
408.6004	66.79745
408.7664	69.16447
408.9323	73.7923
409.0983	68.75659
409.2642	74.91109
409.4301	72.25422
409.596	67.34565
409.762	66.7029
409.9279	63.07094
410.0938	60.07737
410.2597	60.55236
410.4256	65.3463
410.5915	63.83235
410.7574	69.41817
410.9232	65.65305
411.0891	66.98043
411.255	72.44559
411.4209	72.06438
411.5867	76.8488
411.7526	77.89404
411.9184	71.79913
412.0843	64.78025
412.2501	67.23689
412.4159	72.87218
412.5818	75.51501
412.7476	74.73378
412.9134	66.08391
413.0792	73.46673
413.245	69.67162
413.4108	67.48576
413.5766	73.12843
413.7424	74.43176
413.9082	77.88028
414.074	74.8493
414.2397	75.49076
414.4055	69.67959
414.5713	73.28639
414.737	69.89489
414.9028	75.10237
415.0685	72.99005
415.2343	70.89023
415.4	70.11662
415.5658	68.2061
415.7315	72.37766
415.8972	74.72511
416.0629	80.91454
416.2286	80.9593
416.3943	73.98574
416.56	77.57027
416.7257	80.49955
416.8914	78.11102
417.0571	71.99171
417.2228	72.32265
417.3884	62.38289
417.5541	64.4492
417.7198	72.54736
417.8854	70.23537
418.0511	70.44554
418.2167	72.82378
418.3824	79.12789
418.548	76.04478
418.7136	72.55536
418.8792	72.95773
419.0449	77.44599
419.2105	80.22267
419.3761	80.19811
419.5417	77.35017
419.7073	76.28837
419.8729	73.18672
420.0385	67.93966
420.204	69.92921
420.3696	79.30369
420.5352	78.52956
420.7007	81.28888
420.8663	80.40141
421.0319	82.74271
421.1974	84.229
421.3629	88.28938
421.5285	84.46061
421.694	79.78919
421.8595	81.82974
422.0251	88.11544
422.1906	87.21958
422.3561	79.86024
422.5216	79.23711
422.6871	73.48657
422.8526	71.79591
423.0181	76.59562
423.1835	88.29041
423.349	89.22306
423.5145	85.34559
423.68	85.17168
423.8454	79.15755
424.0109	85.19252
424.1763	90.48057
424.3418	90.95808
424.5072	89.16572
424.6726	86.07285
424.838	84.82087
425.0035	84.7541
425.1689	84.34468
425.3343	85.67691
425.4997	83.18521
425.6651	88.38858
425.8305	88.83324
425.9959	83.20828
426.1613	80.55007
426.3267	86.04475
426.492	92.99107
426.6574	87.42159
426.8228	89.99282
426.9881	78.92127
427.1534	73.53323
427.3188	81.85777
427.4841	85.47587
427.6495	84.86623
427.8148	88.90791
427.9801	87.3279
428.1454	92.69091
428.3107	84.65225
428.476	90.95961
428.6414	90.25086
428.8066	82.11191
428.9719	88.37498
429.1372	91.88849
429.3025	85.37788
429.4678	83.11162
429.633	82.07482
429.7983	79.03512
429.9636	71.05255
430.1288	70.58937
430.294	70.17075
430.4593	70.73247
430.6245	70.32018
430.7897	62.73343
430.955	66.18433
431.1202	73.88229
431.2854	79.76201
431.4506	87.34122
431.6158	96.94843
431.781	96.75115
431.9462	106.8518
432.1114	105.6344
432.2766	92.56758
432.4417	81.82172
432.6069	84.15205
432.772	92.79186
432.9372	99.05586
433.1024	104.9836
433.2675	103.4598
433.4326	99.78317
433.5977	95.54082
433.7629	91.30412
433.928	85.31781
434.0931	83.28275
434.2582	85.30491
434.4233	91.46471
434.5884	95.83614
434.7535	98.97743
434.9186	103.8084
435.0837	103.4035
435.2488	92.92011
435.4138	95.34422
435.5789	96.9762
435.744	101.3013
435.909	105.4976
436.0741	113.1145
436.2391	113.2785
436.4042	111.4298
436.5692	119.3874
436.7342	115.2295
436.8992	114.3525
437.0643	113.8736
437.2293	110.2679
437.3943	104.2963
437.5593	107.0793
437.7243	112.2345
437.8893	112.1671
438.0542	110.3277
438.2192	108.2074
438.3842	98.50004
438.5491	94.07314
438.7141	98.21113
438.8791	102.486
439.044	107.8833
439.209	111.3485
439.3739	109.9146
439.5388	117.8135
439.7037	108.7898
439.8687	110.5584
440.0336	111.4479
440.1985	117.6968
440.3634	115.8707
440.5283	111.7719
440.6932	111.0354
440.8581	114.6425
441.0229	113.2421
441.1878	127.2277
441.3527	125.8189
441.5175	112.8033
441.6824	113.6773
441.8472	126.4957
442.0121	127.4554
442.1769	125.5969
442.3418	126.1477
442.5066	116.2831
442.6714	114.0765
442.8362	122.1528
443.001	124.5858
443.1659	130.3481
443.3307	116.6571
443.4955	125.0325
443.6602	119.1517
443.825	125.8355
443.9898	130.8385
444.1546	127.4137
444.3193	123.4659
444.4841	131.9967
444.6488	129.2802
444.8136	123.9227
444.9783	129.3163
445.1431	129.3846
445.3078	131.7206
445.4725	127.7711
445.6372	120.229
445.802	118.2703
445.9667	120.4297
446.1314	122.9258
446.2961	129.0012
446.4608	126.3393
446.6255	125.3963
446.7901	128.3829
446.9548	131.4265
447.1195	129.186
447.2841	134.3671
447.4488	141.0759
447.6134	134.2665
447.7781	133.4443
447.9427	137.7688
448.1074	129.9312
448.272	132.0059
448.4366	135.0192
448.6012	137.0307
448.7658	134.8985
448.9305	134.4681
449.095	138.2548
449.2596	140.7866
449.4242	139.7585
449.5888	135.0826
449.7534	138.9824
449.9179	144.026
450.0825	138.9431
450.2471	144.976
450.4116	152.3324
450.5762	150.0702
450.7407	151.2962
450.9052	148.801
451.0698	146.868
451.2343	149.4116
451.3988	146.1861
451.5633	142.8525
451.7278	145.2388
451.8923	147.7553
452.0568	148.8511
452.2213	144.7466
452.3858	143.9021
452.5503	143.2003
452.7148	139.2734
452.8792	137.8522
453.0437	128.0345
453.2081	132.445
453.3726	137.9539
453.537	137.5821
453.7015	144.385
453.8659	151.4448
454.0303	150.9996
454.1947	155.9208
454.3592	157.0817
454.5236	151.1627
454.688	142.5595
454.8524	139.9129
455.0168	145.7174
455.1811	140.527
455.3455	146.7988
455.5099	146.9043
455.6743	147.0781
455.8386	155.5087
456.003	159.7686
456.1673	160.1032
456.3317	161.8497
456.496	157.2736
456.6603	151.4291
456.8246	156.4894
456.989	155.4285
457.1533	152.7191
457.3176	150.0571
457.4819	147.5573
457.6462	156.8087
457.8105	155.9642
457.9748	154.0137
458.1391	147.8111
458.3033	142.4592
458.4676	149.7213
458.6319	157.5511
458.7961	150.6609
458.9604	155.4033
459.1246	154.8971
459.2888	151.6044
459.4531	151.6384
459.6173	146.8129
459.7815	156.5027
459.9457	152.373
460.11	154.3128
460.2741	155.6935
460.4384	157.0383
460.6025	151.0535
460.7667	156.2047
460.9309	164.4598
461.0951	160.4854
461.2592	158.4326
461.4234	152.7099
461.5876	155.422
461.7517	158.4851
461.9159	162.555
462.08	161.5502
462.2441	160.9745
462.4082	155.6222
462.5724	156.3171
462.7365	160.2337
462.9006	154.8233
463.0647	162.7199
463.2288	160.5489
463.3929	162.8707
463.557	164.6266
463.721	157.4198
463.8851	151.6161
464.0492	156.6887
464.2132	162.4895
464.3773	161.967
464.5414	160.7079
464.7054	155.1455
464.8694	155.4952
465.0334	162.2076
465.1975	160.5995
465.3615	166.0364
465.5255	157.3727
465.6895	162.0524
465.8535	161.0748
466.0175	158.6577
466.1815	162.8606
466.3455	160.8553
466.5095	157.2168
466.6734	147.7665
466.8374	147.5921
467.0014	151.2818
467.1653	158.8986
467.3293	164.9983
467.4932	169.1473
467.6571	164.5324
467.8211	160.2363
467.985	160.2732
468.1489	161.9502
468.3128	173.4549
468.4767	166.6225
468.6406	163.8095
468.8045	171.6898
468.9684	170.8357
469.1323	163.053
469.2962	164.4341
469.46	170.3835
469.6239	165.8922
469.7878	167.3565
469.9516	158.0948
470.1154	157.9895
470.2793	159.9993
470.4431	157.6443
470.607	162.212
470.7708	168.9686
470.9346	161.3719
471.0984	161.9905
471.2622	171.2516
471.426	171.1356
471.5898	167.726
471.7536	171.3211
471.9174	174.0672
472.0811	184.4531
472.2449	177.8792
472.4087	180.4041
472.5724	176.0282
472.7362	173.3307
472.8999	172.2863
473.0637	167.5408
473.2274	168.8084
473.3911	163.1906
473.5548	168.4589
473.7185	165.2337
473.8822	163.5031
474.0459	165.8004
474.2096	175.6524
474.3733	176.472
474.537	176.7274
474.7007	166.2547
474.8643	174.5977
475.028	182.3876
475.1917	182.0806
475.3553	178.694
475.519	171.1508
475.6826	169.899
475.8463	170.5758
476.0099	171.2148
476.1735	171.9924
476.3371	172.149
476.5007	163.8312
476.6643	167.2872
476.8279	167.3009
476.9915	171.0017
477.1551	169.1071
477.3187	173.8269
477.4823	177.5417
477.6458	182.5503
477.8094	180.6227
477.9729	172.1631
478.1365	174.302
478.3	173.3937
478.4636	175.1477
478.6271	175.6562
478.7906	175.2876
478.9541	174.7985
479.1176	176.7178
479.2812	176.4466
479.4447	180.1364
479.6082	178.7863
479.7716	180.0875
479.9351	177.6934
480.0986	178.5872
480.2621	177.8143
480.4255	178.0268
480.589	179.2872
480.7524	178.6131
480.9159	177.9559
481.0793	170.7985
481.2428	176.0826
481.4062	177.8795
481.5696	183.4778
481.733	181.2718
481.8964	182.6065
482.0598	181.602
482.2232	183.3775
482.3866	178.3717
482.55	174.2268
482.7134	179.4394
482.8768	182.3257
483.0401	184.1369
483.2035	178.059
483.3668	174.2999
483.5302	180.0444
483.6935	183.8192
483.8568	182.5206
484.0202	170.8027
484.1835	174.856
484.3468	175.5458
484.5101	176.7125
484.6734	173.641
484.8367	172.2065
485	169.3767
485.1633	176.6371
485.3266	178.9061
485.4899	168.9987
485.6531	167.4249
485.8164	158.6763
485.9796	141.7116
486.1429	137.9175
486.3061	136.4193
486.4694	155.5754
486.6326	164.8261
486.7958	166.8076
486.959	164.8977
487.1223	162.5982
487.2855	166.4902
487.4486	169.5863
487.6118	170.3755
487.775	170.942
487.9382	179.5842
488.1014	185.6791
488.2646	176.9917
488.4277	175.2981
488.5909	183.6485
488.754	176.5083
488.9171	174.7239
489.0803	174.7367
489.2434	171.0398
489.4066	176.8429
489.5697	187.4875
489.7328	191.896
489.8959	189.3755
490.059	187.6032
490.2221	187.4298
490.3852	180.8703
490.5482	182.1302
490.7113	185.3066
490.8744	182.9594
491.0374	187.4282
491.2005	186.4209
491.3636	189.7756
491.5266	193.9217
491.6896	189.5053
491.8527	176.2118
492.0157	168.0748
492.1787	169.5504
492.3417	173.0884
492.5047	177.5524
492.6677	187.159
492.8307	187.4284
492.9937	198.8634
493.1567	191.3772
493.3196	190.4979
493.4826	180.8044
493.6456	178.5492
493.8085	176.816
493.9715	178.8497
494.1344	179.8796
494.2974	182.8612
494.4603	188.8173
494.6232	192.8844
494.7861	196.3971
494.949	192.7158
495.1119	194.5391
495.2748	188.5862
495.4377	194.6897
495.6006	185.0266
495.7635	180.4629
495.9264	185.3808
496.0892	183.8637
496.2521	195.6002
496.4149	194.9883
496.5778	197.1808
496.7407	195.0648
496.9035	190.868
497.0663	187.8044
497.2291	189.8685
497.3919	194.6756
497.5547	197.4025
497.7176	195.9199
497.8804	187.3472
498.0432	182.955
498.2059	184.9455
498.3687	187.0267
498.5315	183.2915
498.6942	183.224
498.857	189.2267
499.0198	191.0075
499.1825	188.3036
499.3452	189.553
499.508	193.4248
499.6707	197.5346
499.8334	192.3769
499.9962	183.4655
500.1589	185.4065
500.3216	181.8498
500.4843	183.5582
500.6469	187.0253
500.8096	185.757
500.9723	192.4413
501.135	189.9711
501.2976	180.31
501.4603	176.5813
501.623	177.9392
501.7856	184.7578
501.9482	181.7396
502.1109	184.0065
502.2735	190.5984
502.4361	191.0385
502.5987	199.1551
502.7614	193.0373
502.924	190.5752
503.0865	200.3639
503.2491	203.4106
503.4117	200.1268
503.5743	198.7495
503.7368	198.5759
503.8994	187.5815
504.062	184.8466
504.2245	185.1908
504.3871	192.1593
504.5496	200.3347
504.7121	201.8644
504.8746	201.802
505.0372	196.2382
505.1997	202.147
505.3622	198.9252
505.5247	204.338
505.6872	204.6404
505.8497	206.4298
506.0121	213.3427
506.1746	216.2278
506.3371	208.0912
506.4995	199.7375
506.662	200.7138
506.8244	194.8618
506.9869	202.2453
507.1493	202.4346
507.3117	202.4981
507.4742	197.2202
507.6366	198.5126
507.799	200.1788
507.9614	195.7584
508.1238	195.1613
508.2862	198.5774
508.4485	199.8426
508.6109	207.8518
508.7733	203.8877
508.9357	210.8634
509.098	212.0204
509.2604	204.4775
509.4227	201.0155
509.5851	206.2048
509.7474	196.7388
509.9097	189.9914
510.072	195.0063
510.2343	204.2865
510.3966	208.8906
510.5589	212.1875
510.7212	201.6695
510.8835	203.0555
511.0458	202.2836
511.2081	199.9517
511.3703	208.6301
511.5326	210.1344
511.6949	206.5106
511.8571	211.2121
512.0193	213.3052
512.1816	210.3873
512.3438	210.8928
512.506	202.7831
512.6682	190.5526
512.8304	196.2902
512.9926	197.7557
513.1548	197.6553
513.317	199.232
513.4792	195.0861
513.6414	196.4943
513.8035	192.9565
513.9657	188.8838
514.1279	197.2496
514.29	192.0818
514.4521	194.2773
514.6143	201.5654
514.7764	203.9991
514.9385	205.1215
515.1006	204.4374
515.2628	196.3424
515.4249	198.7885
515.587	190.7469
515.7491	196.1248
515.9111	197.2612
516.0732	198.2955
516.2353	200.6727
516.3973	196.096
516.5594	185.4091
516.7214	174.2611
516.8835	177.1701
517.0455	174.4947
517.2076	170.6701
517.3696	166.2285
517.5316	175.4535
517.6937	195.911
517.8557	207.841
518.0176	204.5871
518.1796	185.7069
518.3416	172.6532
518.5036	169.5931
518.6656	182.8347
518.8275	189.2181
518.9895	197.2639
519.1514	200.5207
519.3134	192.5732
519.4753	189.1597
519.6373	194.2108
519.7992	193.9729
519.9611	202.6143
520.123	205.1881
520.2849	207.5168
520.4468	198.8728
520.6087	193.4827
520.7706	190.1524
520.9325	191.81
521.0944	199.0752
521.2562	207.7952
521.4181	210.3018
521.58	205.3179
521.7418	206.1381
521.9036	203.9835
522.0655	201.9912
522.2273	207.3839
522.3891	208.7457
522.551	203.3367
522.7128	195.9455
522.8746	195.2906
523.0363	201.5441
523.1981	201.4603
523.3599	197.3668
523.5217	196.3254
523.6835	208.4988
523.8452	218.0897
524.007	221.4871
524.1687	214.0329
524.3304	215.5992
524.4922	212.1459
524.6539	215.3034
524.8157	219.9529
524.9774	213.0259
525.1391	200.8237
525.3008	204.7622
525.4625	209.7761
525.6241	209.1519
525.7858	217.4869
525.9475	216.9887
526.1092	212.8181
526.2709	207.0587
526.4325	187.0349
526.5942	185.1147
526.7558	186.4697
526.9174	186.7627
527.079	189.7563
527.2407	191.4045
527.4023	197.313
527.5639	207.1987
527.7255	214.3307
527.8871	216.0867
528.0487	213.3827
528.2103	211.2427
528.3718	210.3755
528.5334	212.7056
528.695	217.1818
528.8565	218.3794
529.0181	230.6692
529.1796	234.8248
529.3412	225.3375
529.5027	218.7352
529.6642	212.8297
529.8257	213.2081
529.9872	212.3446
530.1487	217.9111
530.3102	219.6155
530.4717	211.8698
530.6332	219.466
530.7947	221.926
530.9562	225.0039
531.1176	223.6575
531.2791	223.9129
531.4405	224.2929
531.6019	219.2233
531.7634	221.0916
531.9248	223.7564
532.0862	225.0125
532.2477	212.5713
532.4091	217.8281
532.5704	209.9804
532.7319	198.6286
532.8932	201.2531
533.0546	202.8871
533.216	212.2665
533.3774	223.1709
533.5388	218.2042
533.7001	214.4763
533.8615	211.0548
534.0228	211.6637
534.1841	214.2936
534.3455	214.1652
534.5068	223.8224
534.6681	216.7432
534.8293	211.4503
534.9907	219.9391
535.152	214.9908
535.3132	213.6226
535.4745	219.9226
535.6358	222.9827
535.7971	224.4954
535.9583	224.5663
536.1196	225.8239
536.2808	218.2683
536.4421	210.9726
536.6033	219.9923
536.7645	214.5703
536.9258	208.9501
537.087	206.8744
537.2482	206.3736
537.4094	209.8793
537.5706	206.8864
537.7318	217.6759
537.8929	219.7716
538.0541	211.4151
538.2153	219.5296
538.3764	216.4708
538.5376	220.3469
538.6987	212.4865
538.8599	213.3314
539.021	207.9141
539.1821	203.0923
539.3432	200.1775
539.5043	203.5065
539.6655	207.1083
539.8265	214.1829
539.9876	210.6776
540.1487	213.129
540.3098	208.0975
540.4708	207.9949
540.6319	200.9403
540.793	198.9907
540.954	206.6007
541.1151	207.979
541.2761	205.6253
541.4371	205.8964
541.5981	213.3836
541.7592	213.4974
541.9202	214.6213
542.0812	208.3965
542.2422	203.4996
542.4031	195.3246
542.5641	202.0002
542.7251	211.4115
542.886	218.3446
543.0471	209.3676
543.208	207.4797
543.369	210.1142
543.5298	207.2321
543.6908	199.1062
543.8517	213.156
544.0126	220.6975
544.1736	217.7172
544.3345	211.2345
544.4954	207.9663
544.6563	207.2313
544.8171	207.7528
544.978	208.8786
545.1389	217.1605
545.2997	220.3502
545.4606	214.4077
545.6215	207.3847
545.7823	204.4241
545.9432	216.8502
546.104	221.9114
546.2648	214.2646
546.4256	207.5549
546.5864	214.9839
546.7473	213.4904
546.908	218.9911
547.0688	212.3401
547.2296	214.3365
547.3904	213.3626
547.5511	204.8361
547.7119	202.7845
547.8727	197.0689
548.0334	205.3673
548.1942	215.6772
548.3549	212.6842
548.5156	215.8621
548.6763	215.9674
548.837	214.4915
548.9977	212.1788
549.1584	221.5049
549.3192	219.446
549.4798	210.88
549.6405	210.7533
549.8011	212.3092
549.9619	212.4427
550.1225	213.2744
550.2831	218.5331
550.4438	220.4962
550.6044	215.4173
550.765	216.7888
550.9257	211.4704
551.0863	211.2866
551.2469	211.6512
551.4075	210.1671
551.5681	208.3642
551.7287	214.1815
551.8893	218.4606
552.0498	226.7449
552.2104	222.9027
552.371	218.5768
552.5315	213.3962
552.6921	211.8838
552.8526	204.4656
553.0131	207.7319
553.1736	210.5471
553.3342	217.3511
553.4947	210.6509
553.6552	209.827
553.8157	216.1178
553.9762	218.4076
554.1367	220.0349
554.2971	217.8101
554.4576	227.5584
554.618	219.7863
554.7785	221.8183
554.939	212.4899
555.0994	210.7116
555.2598	218.2435
555.4203	217.1093
555.5807	213.2175
555.7411	212.8087
555.9015	214.7986
556.0619	213.6355
556.2223	219.4261
556.3827	214.9341
556.5431	209.1825
556.7034	203.4865
556.8638	205.8832
557.0242	211.3811
557.1845	208.9425
557.3448	203.7147
557.5052	204.7217
557.6655	212.3115
557.8259	208.689
557.9861	212.073
558.1465	213.1851
558.3068	208.5785
558.467	205.6302
558.6274	200.9015
558.7877	202.3122
558.9479	198.0926
559.1082	204.6895
559.2684	206.2388
559.4287	200.128
559.5889	203.3612
559.7491	208.5716
559.9094	212.546
560.0696	206.2596
560.2299	207.6741
560.3901	203.0297
560.5502	207.6501
560.7104	208.811
560.8707	208.8937
561.0308	215.6212
561.191	210.7708
561.3511	204.4379
561.5114	203.0313
561.6714	197.8544
561.8316	197.4288
561.9918	199.5816
562.1519	214.1759
562.312	212.1421
562.4722	208.6215
562.6323	200.8381
562.7924	199.2324
562.9525	209.2253
563.1125	209.5927
563.2726	210.3384
563.4327	202.106
563.5928	198.2955
563.7528	209.6853
563.9129	202.4589
564.0729	205.4615
564.233	201.9922
564.393	202.1364
564.553	194.6281
564.7131	204.8518
564.873	206.1445
565.0331	200.4664
565.1931	205.8917
565.353	202.1808
565.5131	200.4431
565.673	198.9294
565.833	200.9035
565.9929	197.3114
566.1529	202.5315
566.3129	192.7804
566.4728	198.2254
566.6328	200.3801
566.7927	195.6885
566.9526	201.4608
567.1125	206.8269
567.2724	207.0272
567.4323	205.239
567.5922	211.5305
567.7521	202.9926
567.9119	208.5554
568.0718	207.8609
568.2317	200.9549
568.3915	194.0365
568.5514	189.4273
568.7112	192.0551
568.871	196.0652
569.0309	197.6069
569.1907	197.7554
569.3505	202.7188
569.5103	202.4625
569.6701	199.3995
569.8299	203.1079
569.9897	195.154
570.1495	196.5276
570.3092	194.3706
570.469	197.112
570.6287	195.0572
570.7885	187.5891
570.9482	185.38
571.108	188.9488
571.2677	190.654
571.4274	200.0488
571.5871	200.2054
571.7468	195.4366
571.9066	201.0963
572.0662	200.122
572.2259	198.4186
572.3856	204.6811
572.5452	198.6938
572.7049	200.3055
572.8646	200.2668
573.0242	202.6182
573.1838	205.3897
573.3435	200.5432
573.5031	199.3801
573.6627	202.9964
573.8223	206.4769
573.9819	205.1183
574.1415	199.7087
574.3011	205.5769
574.4607	206.1673
574.6203	201.0953
574.7798	199.1703
574.9394	201.0631
575.099	198.7738
575.2585	195.6264
575.418	192.198
575.5776	198.4115
575.7371	198.8389
575.8966	196.2078
576.0562	196.6135
576.2156	197.8714
576.3751	195.6252
576.5346	193.0131
576.6941	207.8661
576.8536	204.878
577.0131	193.6626
577.1725	193.7675
577.332	198.0427
577.4914	193.624
577.6508	198.5391
577.8103	200.9352
577.9697	191.202
578.1291	198.4852
578.2885	192.7319
578.4479	187.6943
578.6073	192.0018
578.7667	200.9196
578.9261	199.9435
579.0854	197.5187
579.2448	191.2552
579.4042	194.8414
579.5635	193.7965
579.7229	188.7242
579.8822	188.5524
580.0416	191.6781
580.2009	202.2836
580.3602	197.8031
580.5195	191.6382
580.6788	196.0524
580.8381	187.9489
580.9974	190.9577
581.1566	202.0453
581.3159	196.1782
581.4752	191.0958
581.6345	192.9514
581.7937	200.6482
581.9529	198.4125
582.1122	198.2162
582.2714	197.1111
582.4306	199.8036
582.5898	201.1219
582.749	196.9262
582.9082	198.6537
583.0674	189.7449
583.2266	191.1565
583.3857	196.065
583.5449	193.6434
583.7041	189.229
583.8633	188.4994
584.0224	188.5702
584.1815	193.142
584.3407	188.9913
584.4998	193.1934
584.6589	200.3747
584.818	197.5297
584.9771	193.8277
585.1362	185.2576
585.2953	188.6302
585.4544	189.9458
585.6135	182.0511
585.7725	186.2393
585.9316	183.7915
586.0906	183.8418
586.2497	187.728
586.4087	190.54
586.5677	189.427
586.7267	191.6486
586.8858	183.6815
587.0448	185.2189
587.2038	185.857
587.3628	191.3447
587.5218	183.5406
587.6807	183.1924
587.8397	184.0441
587.9987	183.0943
588.1577	185.8275
588.3166	185.4133
588.4755	180.1054
588.6345	176.5753
588.7934	178.9556
588.9523	174.4051
589.1112	168.9496
589.2701	169.4191
589.429	170.9027
589.5879	170.8138
589.7468	163.8373
589.9056	169.051
590.0645	168.7473
590.2234	183.0879
590.3822	185.1015
590.5411	175.2298
590.6999	180.72
590.8588	180.9678
591.0176	177.1641
591.1764	178.8847
591.3352	175.8656
591.494	177.4793
591.6528	184.3787
591.8116	183.229
591.9703	179.2006
592.1291	175.8102
592.2878	182.2839
592.4467	179.2668
592.6053	181.5333
592.7641	184.7327
592.9229	178.6681
593.0816	180.013
593.2403	179.7467
593.399	180.6113
593.5577	179.7076
593.7164	174.8629
593.8751	178.3172
594.0338	180.5048
594.1924	184.5828
594.3511	174.6217
594.5098	174.1241
594.6684	174.6935
594.8271	178.6669
594.9857	180.5878
595.1443	169.2477
595.303	178.6505
595.4615	176.721
595.6202	175.623
595.7787	174.8667
595.9374	171.5544
596.0959	171.4075
596.2545	180.8988
596.4131	173.8923
596.5717	175.3703
596.7302	179.3447
596.8887	171.9692
597.0473	172.2678
597.2058	176.7556
597.3644	176.0055
597.5229	172.073
597.6814	177.245
597.8399	176.0068
597.9984	175.3603
598.1569	178.2777
598.3154	185.3519
598.4738	178.5804
598.6323	176.1687
598.7908	181.5695
598.9492	174.7876
599.1076	177.6178
599.2661	179.0577
599.4245	181.0238
599.5829	182.731
599.7413	176.916
599.8997	175.8418
600.0581	180.561
600.2165	175.6295
600.3749	175.9527
600.5333	180.2439
600.6917	171.8655
600.85	180.601
601.0084	180.5799
601.1667	178.6475
601.325	177.8896
601.4833	171.1115
601.6417	174.6194
601.8	175.1241
601.9583	180.773
602.1166	176.5135
602.2749	171.4439
602.4332	181.2239
602.5914	172.4537
602.7498	173.9202
602.908	170.5997
603.0662	173.9426
603.2245	176.585
603.3828	179.5233
603.541	182.4605
603.6992	170.3401
603.8574	172.8377
604.0156	170.6357
604.1738	172.7506
604.332	178.1346
604.4902	173.8595
604.6484	173.2134
604.8065	178.8472
604.9647	177.376
605.1229	169.3591
605.281	174.4573
605.4391	181.7611
605.5973	173.8103
605.7554	168.7961
605.9135	176.7421
606.0717	177.9122
606.2297	169.5064
606.3878	173.2082
606.5459	175.3401
606.704	176.2068
606.8621	175.4407
607.0201	178.7695
607.1782	179.6128
607.3362	179.1819
607.4943	177.1487
607.6523	173.451
607.8104	175.9458
607.9684	175.8138
608.1264	175.2538
608.2844	168.2022
608.4424	170.5137
608.6003	174.5315
608.7584	176.6902
608.9163	173.3609
609.0743	168.8257
609.2322	176.747
609.3902	174.7073
609.5482	172.4236
609.7061	170.6967
609.864	166.0951
610.0219	170.8241
610.1798	165.3793
610.3377	158.3532
610.4956	164.8645
610.6535	170.9508
610.8114	179.4761
610.9693	173.1192
611.1271	172.7082
611.285	165.7815
611.4429	164.9702
611.6007	166.5927
611.7585	173.0383
611.9164	172.0213
612.0742	167.1735
612.232	163.9776
612.3898	165.7254
612.5476	164.4969
612.7054	167.7091
612.8632	165.8679
613.0209	164.2658
613.1787	167.4091
613.3365	174.9615
613.4942	170.0776
613.652	166.3624
613.8097	165.1032
613.9674	158.8986
614.1252	167.9246
614.2829	167.9807
614.4406	164.4436
614.5983	167.37
614.756	169.6879
614.9136	162.6606
615.0714	167.2036
615.229	164.7304
615.3867	163.4081
615.5443	167.2065
615.702	170.4303
615.8596	160.0973
616.0172	158.425
616.1748	157.748
616.3325	159.2374
616.4901	165.3547
616.6476	165.9989
616.8052	165.8658
616.9628	159.0493
617.1204	155.815
617.278	160.3913
617.4355	160.7313
617.5931	159.3884
617.7506	161.3581
617.9081	156.647
618.0657	163.5892
618.2232	168.4733
618.3807	162.8541
618.5382	162.5602
618.6957	164.7173
618.8532	159.4889
619.0107	157.8569
619.1682	156.1046
619.3256	157.3289
619.4831	163.617
619.6406	164.5385
619.798	166.1576
619.9554	157.2011
620.1129	171.6246
620.2703	164.5399
620.4277	162.6216
620.5851	161.2199
620.7425	160.9152
620.8998	164.9055
621.0573	157.5432
621.2146	158.9459
621.372	159.3539
621.5294	160.3692
621.6867	155.9686
621.8441	154.6019
622.0013	158.2918
622.1587	159.3733
622.316	158.5973
622.4733	161.4427
622.6306	161.4601
622.7879	159.7727
622.9452	159.1785
623.1025	161.7767
623.2598	159.0151
623.4171	154.2403
623.5743	157.5751
623.7316	153.5023
623.8888	161.9168
624.046	162.7958
624.2032	157.9983
624.3605	159.8347
624.5176	159.4736
624.6749	149.0116
624.8321	159.4473
624.9893	159.004
625.1464	153.3663
625.3036	155.341
625.4608	152.0222
625.6179	153.372
625.7751	155.4816
625.9322	149.1726
626.0894	155.8119
626.2465	158.9721
626.4036	162.3332
626.5607	158.4714
626.7178	160.5214
626.8749	157.7276
627.032	157.3938
627.189	153.8774
627.3461	157.9293
627.5032	157.2528
627.6602	155.5791
627.8173	145.9212
627.9743	148.5536
628.1313	149.454
628.2884	149.7121
628.4454	151.3662
628.6024	150.9912
628.7594	157.3785
628.9164	158.674
629.0734	154.4671
629.2303	150.2703
629.3873	152.5724
629.5443	152.3563
629.7012	147.2316
629.8582	145.8232
630.0151	142.9089
630.172	147.1214
630.3289	148.6534
630.4858	151.0219
630.6428	154.9518
630.7996	154.3153
630.9565	152.677
631.1134	149.0248
631.2703	146.13
631.4272	149.9983
631.584	145.4776
631.7408	146.1266
631.8977	148.756
632.0546	148.4648
632.2114	147.1213
632.3682	150.0546
632.525	154.2512
632.6818	151.8284
632.8386	145.2819
632.9954	155.9702
633.1522	155.679
633.3089	156.0187
633.4657	148.4637
633.6224	147.7365
633.7792	153.4905
633.9359	148.3764
634.0927	146.2439
634.2494	149.8057
634.4061	145.756
634.5628	150.7554
634.7195	153.6475
634.8762	154.7632
635.0329	149.7618
635.1895	149.5031
635.3462	155.2485
635.5029	152.2199
635.6595	155.1674
635.8162	147.7132
635.9728	147.1412
636.1295	142.4236
636.2861	144.2653
636.4427	143.5533
636.5992	148.2325
636.7559	153.6555
636.9124	151.4267
637.069	156.4757
637.2256	149.4658
637.3821	152.136
637.5387	151.1643
637.6953	152.0064
637.8518	152.2073
638.0084	149.3074
638.1649	150.0391
638.3214	148.7827
638.4779	146.2112
638.6344	156.2456
638.7909	155.1072
638.9474	152.1959
639.1038	146.3185
639.2603	141.1813
639.4167	144.4746
639.5732	141.5358
639.7297	150.7137
639.8861	152.6835
640.0425	145.7597
640.199	140.7276
640.3553	146.8121
640.5118	148.6997
640.6682	148.4414
640.8245	144.5397
640.981	139.9278
641.1373	141.4216
641.2936	151.6343
641.45	145.7398
641.6064	146.1583
641.7627	146.4772
641.9191	150.0049
642.0754	144.6993
642.2317	147.7431
642.388	140.14
642.5443	146.3607
642.7006	147.7467
642.8569	154.3564
643.0131	149.5376
643.1694	143.0833
643.3257	147.2743
643.4819	144.354
643.6382	139.2332
643.7944	142.0054
643.9506	142.662
644.1069	144.6608
644.2631	139.9696
644.4193	141.797
644.5754	150.5144
644.7316	142.9248
644.8878	141.4749
645.044	146.3682
645.2002	141.9814
645.3563	143.0088
645.5125	134.9188
645.6686	139.6394
645.8248	143.0934
645.9809	140.2816
646.137	139.035
646.2931	143.1283
646.4492	136.802
646.6053	142.3531
646.7614	141.2776
646.9174	140.7845
647.0735	140.4917
647.2296	134.4788
647.3856	137.3877
647.5417	137.634
647.6977	136.0964
647.8537	141.0046
648.0098	144.363
648.1658	136.6864
648.3218	133.5285
648.4777	133.6197
648.6337	137.0784
648.7897	131.5765
648.9457	133.9304
649.1016	136.6318
649.2576	130.1393
649.4135	136.5467
649.5695	132.3073
649.7254	134.2989
649.8813	134.4396
650.0372	139.228
650.1932	136.979
650.3491	141.7327
650.5049	144.6461
650.6608	135.4919
650.8167	135.8862
650.9725	136.0086
651.1284	136.9321
651.2842	138.6435
651.4401	135.0389
651.5959	130.0195
651.7518	125.8938
651.9076	136.0499
652.0634	132.717
652.2192	132.3437
652.3749	142.0899
652.5308	139.8521
652.6865	137.6681
652.8423	139.3422
652.998	137.9521
653.1538	133.2325
653.3096	130.1167
653.4653	133.5362
653.621	137.2236
653.7767	138.5924
653.9324	133.7505
654.0881	128.6087
654.2438	130.401
654.3995	131.8909
654.5552	129.0814
654.7109	130.1551
654.8665	129.1239
655.0222	125.2719
655.1778	126.5133
655.3334	130.8414
655.4891	129.5869
655.6447	124.8961
655.8003	125.2473
655.9559	126.0101
656.1115	114.9852
656.2671	112.0307
656.4227	108.1048
656.5782	112.0417
656.7338	122.4525
656.8893	129.956
657.0449	128.4592
657.2004	127.2287
657.356	123.4575
657.5115	125.54
657.667	128.5698
657.8225	134.4156
657.978	132.4168
658.1335	130.0694
658.289	131.5717
658.4445	133.3474
658.5999	129.4567
658.7554	126.901
658.9108	128.4523
659.0663	131.3653
659.2217	130.4652
659.3771	127.5213
659.5325	125.748
659.6879	128.1243
659.8433	130.5491
659.9987	129.337
660.1541	138.6629
660.3095	134.484
660.4648	133.0479
660.6202	129.9271
660.7756	130.0065
660.9309	132.8382
661.0862	127.8932
661.2416	130.073
661.3969	134.2754
661.5522	132.3198
661.7075	134.5952
661.8628	133.7083
662.0181	137.5877
662.1733	135.5622
662.3286	133.4323
662.4839	131.0298
662.6391	131.8711
662.7944	128.385
662.9496	133.4592
663.1048	129.4794
663.26	130.038
663.4152	126.1096
663.5704	131.7034
663.7256	126.1452
663.8808	127.6801
664.036	127.051
664.1912	130.3891
664.3463	131.1195
664.5015	126.6815
664.6566	126.7187
664.8118	132.9646
664.9669	133.3488
665.122	132.061
665.2771	133.8972
665.4322	140.9095
665.5873	131.571
665.7424	131.1435
665.8975	127.001
666.0526	126.6119
666.2076	127.9708
666.3627	126.9365
666.5177	126.9686
666.6727	127.5992
666.8278	125.991
666.9828	127.0844
667.1378	129.2173
667.2928	129.1671
667.4478	127.5842
667.6028	126.8556
667.7578	127.3182
667.9127	121.6551
668.0677	123.1092
668.2226	126.8784
668.3776	129.1604
668.5325	129.4838
668.6874	126.589
668.8423	129.6762
668.9973	128.578
669.1522	124.8532
669.3071	126.4543
669.4619	127.4428
669.6168	127.8469
669.7717	122.9274
669.9265	126.01
670.0814	125.6274
670.2362	130.118
670.3911	130.0681
670.5459	131.8215
670.7007	122.4082
670.8555	124.0795
671.0103	124.1067
671.1651	128.5435
671.3199	131.3589
671.4747	126.3279
671.6295	125.6155
671.7842	129.1989
671.939	125.6971
672.0937	123.2332
672.2484	120.4764
672.4031	124.9923
672.5579	126.0964
672.7126	129.3773
672.8673	127.8965
673.022	121.337
673.1767	127.8181
673.3314	124.4069
673.486	124.0828
673.6407	123.7251
673.7953	123.1063
673.95	123.9019
674.1046	126.6511
674.2592	125.0828
674.4138	124.6369
674.5684	118.5469
674.723	116.6059
674.8776	124.184
675.0322	116.2852
675.1868	117.3764
675.3414	122.3489
675.4959	122.2249
675.6505	121.9477
675.805	129.0383
675.9595	126.9398
676.1141	120.3375
676.2686	123.5858
676.4231	124.5736
676.5776	116.5865
676.7321	113.4532
676.8866	121.6766
677.041	121.428
677.1955	122.3146
677.35	116.8207
677.5044	122.8508
677.6589	121.0274
677.8133	121.5506
677.9677	121.2376
678.1221	119.2566
678.2766	120.9603
678.4309	118.0996
678.5853	120.6529
678.7397	117.9551
678.8941	117.2774
679.0485	119.1451
679.2028	117.6767
679.3571	113.2432
679.5115	117.1219
679.6658	119.356
679.8201	116.2764
679.9744	116.1996
680.1288	115.8376
680.2831	115.3032
680.4373	114.6513
680.5916	112.9651
680.7459	113.6822
680.9001	114.7834
681.0544	114.6645
681.2087	116.5088
681.3629	117.083
681.5171	115.1137
681.6713	110.5571
681.8256	112.6938
681.9797	117.4625
682.134	115.2766
682.2881	115.0448
682.4423	110.5204
682.5965	110.5422
682.7507	115.6097
682.9048	111.988
683.059	109.5222
683.2131	114.4522
683.3672	112.7391
683.5213	111.7158
683.6754	112.1145
683.8295	106.4105
683.9836	104.9404
684.1377	108.8716
684.2918	106.709
684.4459	107.6357
684.5999	108.4478
684.754	109.8907
684.908	105.8368
685.062	107.7225
685.2161	112.7242
685.3701	111.2636
685.5241	113.939
685.6781	106.8511
685.8321	110.7434
685.9861	110.3757
686.14	110.4151
686.294	111.863
686.4479	108.6246
686.6019	106.3093
686.7559	94.69994
686.9098	88.59296
687.0637	82.98319
687.2176	89.37775
687.3715	91.97154
687.5254	85.7392
687.6793	90.79731
687.8332	92.67252
687.9871	95.3287
688.1409	103.799
688.2947	103.2963
688.4486	103.7554
688.6024	101.5383
688.7563	99.78561
688.9101	93.35719
689.0639	91.98085
689.2177	95.80751
689.3715	95.79928
689.5253	94.58844
689.6791	99.86422
689.8328	94.48495
689.9866	96.49335
690.1403	99.29383
690.2941	98.92189
690.4478	101.6956
690.6015	103.5429
690.7552	99.7709
690.9089	96.0901
691.0626	99.68695
691.2164	97.37273
691.37	99.5007
691.5237	98.8428
691.6774	98.49816
691.831	97.68991
691.9847	95.2738
692.1383	99.68642
692.2919	101.9806
692.4456	100.1314
692.5992	101.8807
692.7527	100.9584
692.9064	101.859
693.0599	95.16847
693.2136	96.43441
693.3671	101.1484
693.5207	101.2073
693.6742	99.98596
693.8278	99.59205
693.9813	97.52522
694.1348	95.73238
694.2883	95.31249
694.4418	99.27344
694.5953	94.86256
694.7488	95.71597
694.9023	99.82392
695.0558	92.71597
695.2093	93.77724
695.3627	95.71483
695.5162	95.95325
695.6696	92.68266
695.8231	96.66875
695.9764	95.55585
696.1299	94.40656
696.2833	97.10663
696.4367	96.4294
696.5901	99.24144
696.7435	94.17453
696.8968	93.14259
697.0502	98.53188
697.2036	103.5133
697.3569	97.82424
697.5102	96.80901
697.6635	97.4545
697.8168	104.6022
697.9702	106.6935
698.1235	95.56329
698.2768	98.75558
698.4301	93.49789
698.5833	94.35516
698.7366	92.46861
698.8898	94.44302
699.0431	94.57495
699.1964	95.29899
699.3495	100.3123
699.5028	102.6845
699.656	95.71931
699.8092	92.25333
699.9624	97.70059
700.1156	91.95501
700.2688	92.06676
700.4219	85.12341
700.5751	89.20242
700.7283	94.19928
700.8814	93.93311
701.0345	98.93328
701.1877	97.14182
701.3408	94.9736
701.4939	97.25131
701.647	93.01141
701.8001	96.65343
701.9532	93.38734
702.1063	89.6266
702.2593	90.90367
702.4124	90.75511
702.5654	93.44842
702.7184	99.0158
702.8715	101.5414
703.0245	96.26463
703.1776	98.0452
703.3305	95.33054
703.4835	97.33926
703.6365	93.20266
703.7895	94.56461
703.9424	94.47152
704.0954	91.44022
704.2484	97.81994
704.4013	96.8651
704.5543	97.55583
704.7072	93.11053
704.8601	93.34527
705.013	89.65737
705.1659	89.3131
705.3188	88.69376
705.4717	93.02836
705.6246	92.01228
705.7774	93.84681
705.9303	88.94071
706.0831	91.92961
706.236	92.62623
706.3888	94.62888
706.5416	91.9593
706.6944	89.91078
706.8472	91.30925
707	95.59452
707.1528	91.44006
707.3056	97.70172
707.4583	93.77287
707.6111	90.50709
707.7639	97.82473
707.9166	92.51693
708.0693	88.98611
708.222	93.48588
708.3748	91.365
708.5275	87.33129
708.6802	91.43362
708.8328	94.67435
708.9855	87.67738
709.1382	90.41196
709.2909	93.06257
709.4435	83.89275
709.5962	91.20333
709.7488	92.22083
709.9014	93.10133
710.054	95.08221
710.2067	95.2839
710.3593	90.55215
710.5118	93.24978
710.6644	93.49155
710.817	90.08117
710.9695	90.36298
711.1221	89.19173
711.2747	90.36566
711.4272	87.53659
711.5797	91.16124
711.7322	91.64235
711.8848	94.05332
712.0373	91.35587
712.1898	89.40086
712.3422	87.38432
712.4948	88.27586
712.6472	90.87974
712.7996	91.14774
712.9521	86.47131
713.1046	90.71738
713.257	90.62222
713.4094	94.19707
713.5618	95.11444
713.7142	90.9244
713.8666	91.36203
714.019	89.17864
714.1714	89.90074
714.3237	86.23465
714.4761	86.28008
714.6285	88.23473
714.7808	87.2436
714.9331	88.90301
715.0854	89.29977
715.2378	92.90105
715.3901	88.5593
715.5424	91.43631
715.6947	92.54875
715.8469	87.24208
715.9992	91.25828
716.1515	90.14809
716.3037	92.32931
716.456	85.01248
716.6082	81.57021
716.7604	78.41174
716.9127	75.58765
717.0649	74.6554
717.2171	75.86111
717.3693	75.03436
717.5214	72.55293
717.6736	71.44073
717.8258	78.48269
717.978	77.71255
718.1301	83.43706
718.2822	75.745
718.4344	75.59463
718.5865	75.77972
718.7386	73.05429
718.8907	72.08118
719.0428	78.13215
719.1949	75.93891
719.3469	74.49673
719.499	75.2409
719.6511	77.60168
719.8031	78.17865
719.9551	73.16964
720.1072	72.07186
720.2592	74.12542
720.4112	68.83651
720.5632	78.16328
720.7152	76.26339
720.8672	78.24982
721.0192	74.27227
721.1711	79.95118
721.3231	85.8989
721.475	83.21278
721.627	82.29137
721.7789	80.32143
721.9308	86.71339
722.0828	80.41551
722.2347	83.32095
722.3866	81.11733
722.5385	78.67084
722.6903	80.76525
722.8422	79.96457
722.9941	81.17908
723.1459	76.99142
723.2977	78.22827
723.4496	75.69533
723.6014	69.96514
723.7532	66.82885
723.905	75.52061
724.0568	77.46437
724.2086	74.75702
724.3604	71.86943
724.5121	75.70788
724.6639	76.06696
724.8157	76.97151
724.9674	72.47488
725.1191	76.37939
725.2709	70.26653
725.4226	71.11144
725.5743	71.09986
725.726	73.08863
725.8777	77.69394
726.0294	76.09179
726.181	73.99876
726.3327	71.81261
726.4844	73.28378
726.636	72.98423
726.7877	71.91301
726.9393	79.71623
727.0909	75.98641
727.2425	69.6214
727.3941	73.21098
727.5457	72.15639
727.6973	69.67159
727.8488	65.66668
728.0004	76.26581
728.1519	74.94301
728.3035	76.57384
728.455	74.674
728.6066	73.87507
728.7581	67.38055
728.9095	66.26017
729.0611	65.03708
729.2126	69.13094
729.364	68.91829
729.5155	73.10869
729.667	75.38055
729.8184	76.07621
729.9698	80.18677
730.1213	74.58534
730.2727	70.34093
730.4241	64.61915
730.5756	73.6182
730.7269	74.46068
730.8784	76.39915
731.0297	80.46721
731.1811	80.18291
731.3325	72.93002
731.4838	66.70808
731.6351	73.15437
731.7865	70.8138
731.9378	71.46665
732.0891	82.21531
732.2404	77.83117
732.3917	78.98013
732.543	74.74956
732.6943	74.20524
732.8456	76.97411
732.9968	77.43548
733.1481	79.58834
733.2993	77.32622
733.4506	69.8812
733.6018	71.85135
733.753	78.22499
733.9042	73.65871
734.0554	77.89547
734.2066	80.8713
734.3578	76.10735
734.509	77.33335
734.6602	77.51698
734.8113	75.66908
734.9624	77.07465
735.1136	77.14588
735.2647	77.29501
735.4158	72.96385
735.5669	73.61583
735.718	79.09307
735.8691	72.19895
736.0201	71.70928
736.1713	72.41166
736.3223	76.44853
736.4733	75.32183
736.6244	72.50321
736.7755	77.11715
736.9265	79.52027
737.0775	72.4039
737.2285	72.79289
737.3795	74.12377
737.5305	80.67165
737.6815	77.8484
737.8324	79.28307
737.9834	76.1969
738.1343	79.56266
738.2853	74.68531
738.4362	73.65208
738.5871	76.31976
738.738	71.57514
738.8889	80.88663
739.0399	75.75916
739.1907	71.86056
739.3416	76.31695
739.4925	75.60566
739.6433	75.63881
739.7942	74.79151
739.945	75.12962
740.0958	74.40423
740.2467	79.16718
740.3975	72.87268
740.5483	80.49552
740.6991	77.02631
740.8499	72.89322
741.0007	68.56601
741.1514	74.15742
741.3022	76.73586
741.4529	74.20956
741.6036	75.84354
741.7544	69.46981
741.9051	74.0294
742.0558	77.65935
742.2065	69.50354
742.3572	74.1481
742.5079	73.57973
742.6586	77.05655
742.8093	71.78244
742.9599	73.58576
743.1105	77.80799
743.2612	77.57697
743.4118	71.9712
743.5624	72.814
743.7131	70.5897
743.8636	72.99147
744.0142	72.63063
744.1648	72.6602
744.3154	69.14075
744.4659	69.48006
744.6165	74.10509
744.767	74.28533
744.9176	75.39397
745.0681	73.2613
745.2186	70.62312
745.3691	72.31433
745.5197	73.32664
745.6702	72.1216
745.8206	76.03654
745.9711	74.30405
746.1215	70.26631
746.272	67.57742
746.4224	74.22782
746.5729	71.91135
746.7233	70.77943
746.8737	69.98978
747.0241	73.54167
747.1745	66.30769
747.3249	67.64481
747.4753	68.9938
747.6257	70.14928
747.776	68.49511
747.9264	66.30463
748.0767	69.2654
748.2271	69.73985
748.3774	73.98579
748.5276	73.3978
748.678	74.36835
748.8282	74.09702
748.9786	69.61781
749.1288	70.44572
749.2791	64.48393
749.4294	72.48489
749.5796	72.86143
749.7299	70.94435
749.8801	69.94852
750.0303	66.46936
750.1805	69.62735
750.3307	71.96691
750.4809	71.09661
750.6311	66.3567
750.7813	73.07207
750.9314	71.05662
751.0816	73.90036
751.2318	65.379
751.3818	66.38937
751.532	69.65974
751.6821	69.42225
751.8322	68.26859
751.9823	66.29401
752.1324	68.36588
752.2825	70.30772
752.4326	72.70998
752.5826	70.20454
752.7327	68.15266
752.8827	65.40828
753.0327	61.53621
753.1827	62.92461
753.3328	62.31686
753.4828	70.22591
753.6328	62.886
753.7828	65.64079
753.9327	65.08688
754.0827	65.28123
754.2327	64.72813
754.3826	61.0033
754.5325	61.80893
754.6825	63.87685
754.8324	62.33728
754.9823	67.08757
755.1322	63.46408
755.2821	64.01062
755.432	61.22231
755.5818	65.29016
755.7318	65.15681
755.8816	61.5221
756.0314	62.35687
756.1813	63.17891
756.3311	61.49339
756.4809	62.32959
756.6307	62.02331
756.7805	62.23803
756.9303	65.31242
757.0801	66.34378
757.2299	62.62097
757.3796	62.94436
757.5294	65.55466
757.6791	62.34298
757.8289	62.07911
757.9786	60.92895
758.1283	60.71262
758.278	66.52992
758.4277	61.52973
758.5773	61.85547
758.7271	64.41584
758.8767	52.12577
759.0264	57.99718
759.176	56.46524
759.3256	58.36203
759.4753	49.59921
759.6249	46.97594
759.7745	39.40418
759.9241	43.11099
760.0737	33.27419
760.2233	37.20067
760.3729	41.19813
760.5224	33.57602
760.6719	30.87776
760.8215	33.15121
760.971	33.90569
761.1205	34.88649
761.2701	37.76024
761.4196	39.35674
761.5691	44.90345
761.7186	47.87352
761.868	48.10682
762.0175	49.58995
762.167	47.26544
762.3164	40.10374
762.4659	41.98733
762.6153	37.36732
762.7647	36.38937
762.9141	35.84929
763.0635	35.54849
763.2129	35.39911
763.3623	39.31548
763.5117	38.90371
763.661	36.07766
763.8104	37.55377
763.9597	41.28378
764.1091	42.39463
764.2584	40.45452
764.4077	42.07362
764.557	45.98641
764.7063	45.92518
764.8556	44.55809
765.0049	47.49539
765.1541	47.11973
765.3034	46.68965
765.4526	44.73454
765.6019	46.68464
765.7511	46.75581
765.9003	46.43414
766.0496	49.68519
766.1987	50.92776
766.348	46.70454
766.4971	48.02142
766.6463	46.71286
766.7955	53.11972
766.9446	53.08572
767.0938	50.75965
767.2429	47.77819
767.392	48.94821
767.5411	48.8611
767.6902	55.42487
767.8394	48.60913
767.9884	49.26161
768.1375	49.50372
768.2866	47.70036
768.4356	49.2958
768.5847	48.90806
768.7337	55.77314
768.8828	56.22419
769.0317	50.30802
769.1808	54.48558
769.3298	57.21486
769.4788	56.38329
769.6277	54.68525
769.7767	59.01656
769.9257	55.59906
770.0746	52.71334
770.2236	48.93554
770.3725	48.7732
770.5214	54.75724
770.6703	50.67984
770.8193	47.34434
770.9681	48.73565
771.1171	49.1334
771.2659	53.545
771.4148	51.65344
771.5637	56.30639
771.7125	55.09909
771.8613	53.09524
772.0101	53.70107
772.159	53.34816
772.3078	53.48547
772.4566	51.79877
772.6054	49.86277
772.7542	49.95281
772.903	54.75338
773.0517	54.71226
773.2004	49.26327
773.3492	51.06371
773.4979	50.72629
773.6467	50.14
773.7953	51.49364
773.944	50.35931
774.0928	49.93537
774.2415	49.99257
774.3901	52.04148
774.5388	52.2817
774.6874	50.58608
774.8361	50.02362
774.9847	55.237
775.1334	55.12633
775.282	52.52691
775.4305	47.2714
775.5792	52.7006
775.7277	51.98844
775.8763	49.6346
776.0249	51.14194
776.1735	48.66067
776.322	52.00335
776.4705	50.89227
776.6191	50.43043
776.7676	47.27506
776.9161	47.61706
777.0646	44.95135
777.2131	49.27262
777.3616	51.40502
777.5101	43.42187
777.6585	48.98349
777.8069	51.63585
777.9554	52.02414
778.1038	49.71065
778.2523	47.46011
778.4007	50.59981
778.5491	53.77341
778.6974	52.501
778.8459	54.60417
778.9942	52.80138
779.1426	45.78893
779.291	46.36447
779.4393	47.21426
779.5876	42.18116
779.736	48.13394
779.8843	49.35605
780.0326	47.33926
780.1809	47.48333
780.3292	49.11053
780.4775	46.09882
780.6257	48.08825
780.774	47.05619
780.9222	50.45428
781.0704	50.84478
781.2187	49.72791
781.3669	45.45833
781.5151	48.86414
781.6633	44.73651
781.8115	44.85917
781.9597	47.61346
782.1078	46.09758
782.256	46.07845
782.4042	47.90053
782.5523	50.514
782.7004	48.15157
782.8486	45.58841
782.9967	50.25375
783.1448	46.69174
783.2929	48.70829
783.441	47.9795
783.5891	49.91233
783.7371	48.1132
783.8851	43.50717
784.0332	44.15185
784.1812	44.50257
784.3293	47.58784
784.4773	45.73789
784.6253	46.02626
784.7733	43.63452
784.9213	43.64615
785.0692	43.17704
785.2172	44.65998
785.3652	48.99104
785.5131	46.39882
785.6611	46.33199
785.809	45.18238
785.9569	48.09154
786.1048	52.01608
786.2527	47.25571
786.4006	46.62641
786.5485	46.36117
786.6964	46.33928
786.8442	39.65175
786.9921	42.99436
787.1399	44.3573
787.2877	45.47681
787.4355	44.14593
787.5833	45.78899
787.7311	45.28075
787.8789	51.94384
788.0267	47.84061
788.1745	44.1285
788.3223	43.29597
788.47	42.17635
788.6177	41.32407
788.7654	42.83411
788.9132	39.07671
789.0609	41.31424
789.2086	47.65323
789.3563	40.76444
789.504	41.61074
789.6517	45.56767
789.7993	43.73759
789.947	43.87952
790.0946	40.60723
790.2422	42.42145
790.3898	43.73524
790.5375	47.21424
790.6851	40.76141
790.8326	37.46838
790.9802	41.29058
791.1278	43.35435
791.2754	41.3357
791.423	44.20773
791.5705	42.01991
791.718	42.93955
791.8655	47.38515
792.0131	47.06103
792.1606	39.66274
792.308	38.3919
792.4556	38.33254
792.603	40.9217
792.7505	42.38734
792.8979	40.3209
793.0454	43.56346
793.1928	39.17938
793.3403	34.54958
793.4877	39.38292
793.6351	40.64217
793.7825	44.06227
793.9299	41.68902
794.0772	40.4297
794.2246	42.42323
794.3719	42.44004
794.5193	41.10545
794.6666	42.12273
794.814	41.09063
794.9613	38.76131
795.1086	41.05706
795.2559	36.68373
795.4032	44.24549
795.5505	42.84243
795.6978	41.69571
795.845	42.09397
795.9922	42.19021
796.1395	41.64585
796.2867	41.63799
796.4339	41.58904
796.5811	40.97371
796.7283	42.4695
796.8755	40.40516
797.0227	45.83901
797.1699	40.20816
797.317	41.38769
797.4642	36.87406
797.6113	40.37421
797.7584	36.7965
797.9056	40.21796
798.0527	37.57715
798.1998	35.21844
798.3469	39.02901
798.494	42.20807
798.641	42.69345
798.7881	39.4691
798.9351	43.47136
799.0822	38.48262
799.2292	36.71603
799.3762	40.76295
799.5232	40.14426
799.6702	42.64762
799.8172	40.33076
799.9642	33.39591
800.1111	35.3871
800.2581	35.58897
800.4051	38.57756
800.552	38.446
800.6989	39.79646
800.8458	40.5856
800.9927	35.85806
801.1396	40.41198
801.2866	37.50028
801.4334	36.77048
801.5803	38.88374
801.7272	37.76025
801.874	42.20762
802.0209	41.06799
802.1677	39.2367
802.3145	36.90361
802.4613	32.7309
802.6081	33.85856
802.7549	39.2704
802.9017	37.91633
803.0485	37.53526
803.1952	38.16793
803.342	39.59079
803.4887	39.56041
803.6354	37.78838
803.7822	31.92618
803.9289	34.09489
804.0756	36.3951
804.2223	36.34749
804.369	32.6753
804.5156	36.23131
804.6623	34.69234
804.8089	36.50874
804.9556	36.17166
805.1022	32.83318
805.2488	32.51035
805.3954	34.85486
805.542	35.03074
805.6886	34.81894
805.8352	35.12928
805.9818	35.62904
806.1283	39.12112
806.2749	33.25327
806.4214	36.4774
806.5679	31.91847
806.7145	36.58991
806.861	37.09266
807.0074	40.1993
807.154	33.63409
807.3004	33.7553
807.4469	34.43495
807.5934	32.47616
807.7398	35.57777
807.8862	35.25296
808.0327	36.00583
808.1791	29.36121
808.3255	32.9152
808.4719	35.14629
808.6183	30.82335
808.7647	33.3074
808.9111	34.09206
809.0574	30.84609
809.2037	34.10715
809.3501	30.45017
809.4965	32.92426
809.6428	36.22733
809.7891	32.4662
809.9354	33.60996
810.0817	33.72873
810.2279	26.24477
810.3742	32.99195
810.5204	32.26847
810.6667	34.03513
810.8129	33.21523
810.9592	29.90062
811.1054	32.66113
811.2516	29.45039
811.3978	30.24419
811.5439	37.65291
811.6901	33.7571
811.8363	31.06276
811.9825	31.24677
812.1286	36.50038
812.2748	33.89639
812.4209	30.78499
812.567	33.00853
812.7131	34.81455
812.8592	34.32507
813.0053	32.63155
813.1514	30.06856
813.2974	24.45627
813.4435	31.78643
813.5895	30.90659
813.7356	29.62943
813.8816	32.21462
814.0276	32.67721
814.1736	29.22265
814.3196	28.97234
814.4656	30.43567
814.6116	31.1679
814.7576	25.58626
814.9035	26.2214
815.0494	26.96478
815.1954	32.08797
815.3413	30.88423
815.4872	23.6068
815.6331	30.56694
815.779	26.96226
815.9249	24.94222
816.0707	26.09657
816.2166	30.11648
816.3625	28.01499
816.5083	29.19717
816.6542	28.91951
816.8	28.81124
816.9458	30.31951
817.0916	30.96284
817.2374	27.0073
817.3832	26.2914
817.5289	25.26558
817.6747	25.71162
817.8204	22.18005
817.9662	21.88135
818.1119	22.17091
818.2576	26.83646
818.4034	21.44904
818.5491	26.19497
818.6948	21.31417
818.8405	27.93944
818.9861	26.93739
819.1318	28.74853
819.2774	26.4214
819.423	27.17581
819.5687	26.92745
819.7143	30.62478
819.8599	25.2296
820.0055	24.04128
820.1511	21.40102
820.2967	25.09519
820.4422	29.93423
820.5878	23.1554
820.7333	30.26308
820.8788	29.74129
821.0244	25.72826
821.1699	24.00512
821.3154	25.64714
821.4609	29.89284
821.6064	27.2743
821.7519	27.63138
821.8973	28.87687
822.0428	27.662
822.1882	26.1259
822.3337	27.82927
822.4791	25.88214
822.6245	23.14712
822.7699	24.20657
822.9153	23.16567
823.0607	23.42247
823.2061	26.6986
823.3514	23.62945
823.4968	25.04002
823.6422	24.95414
823.7875	26.55483
823.9328	30.55977
824.0781	25.95093
824.2234	26.99988
824.3687	29.91697
824.514	29.42071
824.6592	29.39034
824.8045	29.68429
824.9498	31.54646
825.095	32.29211
825.2402	27.8477
825.3854	25.21768
825.5306	28.00878
825.6758	28.82655
825.821	30.10265
825.9662	29.49727
826.1114	26.25093
826.2565	29.24993
826.4017	28.8394
826.5468	27.27554
826.692	26.08696
826.837	30.25487
826.9822	28.4399
827.1273	26.78646
827.2723	25.60094
827.4174	24.45685
827.5625	26.49475
827.7075	24.19563
827.8526	25.71572
827.9976	22.16972
828.1426	26.39335
828.2877	25.72009
828.4327	22.33068
828.5776	25.76251
828.7227	26.70969
828.8676	28.75949
829.0126	21.20551
829.1575	25.52366
829.3024	22.71995
829.4474	23.45414
829.5923	21.05743
829.7372	20.14015
829.8821	22.96601
830.027	23.4724
830.1719	30.07303
830.3168	25.8368
830.4616	25.93254
830.6064	21.30672
830.7513	22.65632
830.8961	28.22409
831.041	22.24213
831.1857	20.98129
831.3306	24.27559
831.4753	22.53998
831.6201	22.85451
831.7649	27.13461
831.9096	26.526
832.0544	26.2738
832.1991	22.01211
832.3438	28.39894
832.4885	21.26155
832.6332	25.18439
832.778	25.72789
832.9226	24.84248
833.0673	22.82734
833.2119	22.85403
833.3566	21.86894
833.5012	28.42226
833.6459	23.43156
833.7905	24.03858
833.9351	27.84113
834.0797	20.56441
834.2243	25.41922
834.3688	28.20269
834.5134	25.93584
834.658	26.32045
834.8026	28.70213
834.9471	22.28909
835.0916	22.87838
835.2361	28.55301
835.3806	24.18864
835.5251	25.04136
835.6696	24.91794
835.8141	23.06629
835.9586	19.97409
836.103	19.45145
836.2474	23.11797
836.3918	24.70226
836.5363	25.19222
836.6807	26.19198
836.8251	28.35175
836.9695	29.71976
837.1138	24.92152
837.2582	21.96834
837.4026	23.77581
837.5469	22.10468
837.6913	19.12904
837.8356	22.3383
837.9799	22.56617
838.1242	25.36725
838.2686	24.82272
838.4128	24.77417
838.5571	24.57294
838.7014	25.69548
838.8456	18.63843
838.9899	23.56798
839.1341	23.36181
839.2783	24.93818
839.4225	24.17035
839.5667	24.831
839.7109	26.74673
839.8551	26.64825
839.9993	24.31967
840.1434	25.46257
840.2876	25.58219
840.4317	25.34127
840.5759	22.59707
840.72	20.48785
840.8641	26.33976
841.0082	21.0822
841.1523	22.32139
841.2963	22.9754
841.4404	21.44374
841.5845	24.04054
841.7285	20.63768
841.8726	14.87458
842.0165	19.32965
842.1606	22.04869
842.3046	24.41232
842.4485	24.44029
842.5925	21.6295
842.7365	25.83921
842.8805	26.82539
843.0244	22.59054
843.1684	21.12453
843.3123	25.69262
843.4562	23.6098
843.6002	24.88414
843.744	23.02903
843.8879	18.3555
844.0318	26.04354
844.1757	23.73482
844.3195	26.36203
844.4634	25.36327
844.6072	22.84217
844.751	24.1871
844.8948	24.56367
845.0386	21.62202
845.1824	19.36909
845.3262	19.31738
845.47	21.47272
845.6138	22.98967
845.7575	23.5165
845.9012	21.84086
846.045	21.90287
846.1887	21.78247
846.3324	21.85206
846.4761	22.91074
846.6198	19.32059
846.7635	17.43859
846.9071	23.43905
847.0508	24.75033
847.1944	22.54334
847.3381	24.66064
847.4817	21.98536
847.6253	23.17416
847.7689	21.84054
847.9125	22.47834
848.0561	24.81069
848.1996	23.79655
848.3432	22.65189
848.4868	22.42476
848.6303	23.19334
848.7738	18.98191
848.9174	16.84938
849.0609	22.48685
849.2043	24.65931
849.3478	21.98757
849.4913	23.07534
849.6348	25.51048
849.7782	22.36257
849.9217	19.59051
850.0651	19.30387
850.2086	19.16961
850.3519	17.72619
850.4954	18.95521
850.6387	19.93048
850.7821	17.05246
850.9255	19.85604
851.0688	20.41626
851.2122	21.18191
851.3555	23.57404
851.4988	23.33547
851.6422	18.75357
851.7855	20.74538
851.9288	20.50842
852.0721	21.5677
852.2153	17.62483
852.3586	22.17271
852.5018	22.08645
852.6451	24.05322
852.7883	21.31869
852.9315	19.87111
853.0748	19.3982
853.218	20.21636
853.3611	20.16198
853.5043	20.79915
853.6475	21.26069
853.7906	18.18221
853.9338	19.17921
854.0769	20.71104
854.22	13.69092
854.3632	19.1301
854.5063	15.876
854.6494	16.46066
854.7924	17.91298
854.9355	19.15788
855.0786	19.83425
855.2216	12.21158
855.3647	14.51825
855.5077	16.07423
855.6507	25.68526
855.7937	22.47672
855.9367	22.30483
856.0797	20.92339
856.2227	20.53137
856.3657	21.79229
856.5086	18.76468
856.6516	22.12203
856.7945	25.79375
856.9374	20.76296
857.0803	23.3616
857.2232	21.75261
857.3661	20.96271
857.509	22.43218
857.6519	19.59153
857.7947	20.04541
857.9376	19.07737
858.0804	20.70296
858.2232	18.67366
858.366	17.70087
858.5089	22.40575
858.6516	15.12813
858.7944	14.58642
858.9372	23.56126
859.08	20.36173
859.2227	16.47782
859.3654	16.36467
859.5082	15.51089
859.6509	17.05711
859.7936	20.81629
859.9363	19.06105
860.079	13.96515
860.2217	13.45695
860.3643	22.10443
860.507	25.06611
860.6496	20.11502
860.7922	23.67826
860.9349	22.77607
861.0775	15.63073
861.2201	13.35166
861.3627	18.57799
861.5052	15.23582
861.6478	18.76991
861.7904	18.93501
861.9329	17.39625
862.0755	22.68425
862.218	22.61481
862.3605	20.53694
862.503	17.31576
862.6455	19.14523
862.788	19.46553
862.9305	16.34925
863.0729	18.69775
863.2154	19.42186
863.3578	17.0603
863.5002	13.38256
863.6426	16.07875
863.7851	20.07166
863.9275	24.05058
864.0698	17.32322
864.2122	16.3649
864.3546	17.68987
864.4969	18.30799
864.6393	15.2708
864.7816	12.23692
864.924	17.93963
865.0662	17.87351
865.2086	19.94957
865.3508	19.76713
865.4931	15.93417
865.6354	13.16189
865.7776	12.34208
865.9199	15.2339
866.0621	16.70868
866.2043	17.071
866.3466	16.8606
866.4888	14.86363
866.6309	16.37073
866.7731	16.58409
866.9153	17.57623
867.0574	17.72026
867.1996	22.11829
867.3417	17.70939
867.4839	18.33105
867.626	17.13573
867.7681	16.49094
867.9102	17.8115
868.0522	15.93282
868.1943	17.03214
868.3364	19.23285
868.4785	21.10156
868.6205	16.95179
868.7625	14.79791
868.9045	14.29503
869.0465	17.48905
869.1885	15.84795
869.3305	22.22456
869.4725	19.39455
869.6144	21.46765
869.7564	16.08057
869.8983	14.20026
870.0403	14.37488
870.1822	18.72808
870.3241	15.09235
870.466	19.16913
870.6079	19.08472
870.7498	15.18631
870.8916	15.88356
871.0335	13.25197
871.1754	15.68944
871.3171	15.63673
871.459	16.43592
871.6008	11.65709
871.7426	14.0138
871.8844	21.45319
872.0262	21.4821
872.1679	18.10386
872.3097	16.71366
872.4514	18.56215
872.5931	18.49746
872.7349	14.94051
872.8766	16.10434
873.0183	16.67001
873.16	17.7726
873.3017	13.21196
873.4434	14.50325
873.585	11.51521
873.7266	16.30627
873.8683	20.54695
874.0099	15.28354
874.1516	16.92521
874.2932	14.21979
874.4348	21.10586
874.5763	17.04885
874.7179	13.11333
874.8594	11.18611
875.001	17.83823
875.1425	17.55309
875.2841	13.43271
875.4256	11.21117
875.5671	12.09495
875.7086	13.38939
875.85	17.91385
875.9915	13.65922
876.133	17.94651
876.2744	17.12104
876.4159	16.78634
876.5573	18.84322
876.6987	13.56658
876.8401	11.97996
876.9815	17.31495
877.1229	13.23882
877.2643	13.44571
877.4056	17.76426
877.547	13.47575
877.6884	15.48455
877.8297	18.38141
877.971	13.71828
878.1123	12.98895
878.2536	15.45274
878.3949	14.67149
878.5362	18.96784
878.6774	15.99839
878.8187	17.1197
878.9599	17.29542
879.1011	14.37431
879.2424	13.27717
879.3836	12.14184
879.5248	15.13298
879.666	17.76356
879.8071	20.915
879.9483	15.24389
880.0895	13.24921
880.2306	17.03972
880.3718	11.54897
880.5129	13.49895
880.654	12.36625
880.7951	12.92604
880.9362	13.75604
881.0773	17.11273
881.2183	16.85473
881.3594	8.21908
881.5004	13.94634
881.6414	15.03681
881.7825	13.55962
881.9235	13.24487
882.0645	12.10693
882.2054	8.322717
882.3464	13.44555
882.4874	21.57703
882.6284	15.29052
882.7693	14.06747
882.9103	13.88918
883.0512	11.84276
883.1921	12.81791
883.333	11.8798
883.4739	12.53341
883.6147	12.70695
883.7556	9.867208
883.8965	10.50108
884.0374	13.3242
884.1782	14.29347
884.319	14.58879
884.4598	14.40592
884.6006	12.00158
884.7414	13.55277
884.8822	13.89215
885.0229	14.09787
885.1637	9.806327
885.3044	15.17779
885.4452	9.567314
885.5859	13.53262
885.7266	12.61448
885.8673	15.82571
886.008	12.75214
886.1487	13.2303
886.2894	11.97706
886.43	10.98755
886.5707	13.76117
886.7113	11.86904
886.8519	6.401375
886.9926	13.25422
887.1331	18.07597
887.2737	10.21174
887.4143	11.624
887.5549	18.88427
887.6954	16.74934
887.836	11.41118
887.9765	12.37593
888.1171	15.79867
888.2576	17.75142
888.3981	11.59627
888.5386	16.8314
888.679	12.5852
888.8195	13.23038
888.96	13.63434
889.1004	16.73053
889.2408	9.639035
889.3813	5.224643
889.5217	14.25762
889.6621	13.75087
889.8025	8.429482
889.9429	13.26228
890.0833	15.39368
890.2236	16.14943
890.364	14.823
890.5043	14.36491
890.6446	11.0249
890.7849	15.40494
890.9252	12.60536
891.0655	11.87672
891.2058	15.28032
891.3461	14.16682
891.4863	12.94
891.6266	16.62402
891.7668	17.87222
891.907	10.18401
892.0472	15.08487
892.1874	15.58943
892.3276	11.64817
892.4678	10.92536
892.608	14.09686
892.7481	12.78295
892.8883	13.5433
893.0284	12.32819
893.1685	11.46646
893.3087	9.87594
893.4487	13.63069
893.5889	18.03522
893.7289	19.88457
893.869	9.903102
894.009	10.40498
894.1491	9.071345
894.2891	10.8633
894.4291	12.19889
894.5692	13.53424
894.7092	7.82511
894.8491	7.325112
894.9891	13.02857
895.1291	11.57141
895.269	11.6781
895.409	11.84144
895.549	11.20729
895.6888	5.841442
895.8288	6.635309
895.9687	10.85557
896.1086	10.47794
896.2484	13.48008
896.3883	15.29361
896.5281	11.23387
896.668	9.972542
896.8079	11.56457
896.9476	12.32516
897.0875	11.62158
897.2272	8.501931
897.3671	13.42625
897.5068	6.515972
897.6466	8.515322
897.7864	8.491828
897.9261	12.24301
898.0658	11.21341
898.2056	10.22518
898.3453	9.047034
898.4849	13.83685
898.6246	8.853074
898.7643	9.388815
898.904	9.29448
899.0436	9.285027
899.1833	12.24196
899.3229	10.26289
899.4625	8.00842
899.6021	9.231397
899.7417	8.309452
899.8813	10.21407
900.0209	11.90272
900.1605	14.75306
900.3	13.16515
900.4395	14.50564
900.579	10.91117
900.7186	10.78176
900.8581	11.14108
900.9976	15.66469
901.1371	8.095336
901.2766	11.83762
901.416	12.0842
901.5555	11.44273
901.6949	8.552567
901.8344	6.745393
901.9738	9.791051
902.1132	11.26219
902.2526	9.820227
902.3919	15.31543
902.5313	11.66181
902.6707	10.46931
