SPECTRUM DATA FILE
SpectrumCount:	1
PixelCount:	3648
UserName:	ToughBook User
SampleName:	
LightSource:	
Comments:	
DeviceName:	Qwave
DeviceManufacturer:	Broadcom
DeviceSerialNo:	11311

Name:	last spectrum
Date:	2024-05-02T15:03:43.3219511+02:00
ExposureTime:	0.02
TemporalAvg:	1
IntensityUnit:	normalizedCounts
CCDLoadLevel:	0.04523467
Temperature:	29.23276
DiagramColor:	200
ProcessingSteps:	335

Wavelength [nm]	Intensity1
334.421	11.0366
334.5891	12.41287
334.7573	12.16879
334.9254	8.586399
335.0935	7.752152
335.2616	9.17261
335.4297	14.02517
335.5978	14.49274
335.7659	14.52666
335.934	13.54893
336.1021	11.75847
336.2701	8.712403
336.4382	16.86936
336.6063	12.33259
336.7744	14.31046
336.9424	12.6736
337.1105	13.06944
337.2785	12.25394
337.4466	8.179456
337.6146	14.98156
337.7827	10.69561
337.9507	7.244786
338.1187	7.037628
338.2867	8.773372
338.4548	10.98542
338.6228	11.42443
338.7908	11.45468
338.9588	9.397089
339.1268	7.6439
339.2948	8.013126
339.4628	13.33507
339.6308	14.31222
339.7988	16.95973
339.9667	13.91846
340.1347	12.51961
340.3027	13.07572
340.4707	11.903
340.6386	13.43469
340.8066	11.85717
340.9745	10.06386
341.1425	9.309455
341.3104	14.19735
341.4784	11.26299
341.6463	7.857347
341.8142	13.61682
341.9821	9.146881
342.1501	9.451276
342.318	12.52832
342.4859	11.89991
342.6538	10.80389
342.8217	11.83049
342.9896	12.48357
343.1575	9.492849
343.3254	12.34464
343.4933	13.519
343.6612	12.59662
343.829	11.75332
343.9969	14.84248
344.1648	12.03492
344.3326	6.624733
344.5005	8.67005
344.6683	9.653144
344.8362	14.18629
345.004	13.9526
345.1719	15.65529
345.3397	14.72155
345.5075	9.952872
345.6754	7.988337
345.8432	14.85178
346.011	12.90151
346.1788	12.02789
346.3466	10.27782
346.5144	14.19127
346.6822	14.63369
346.85	14.07801
347.0178	8.697168
347.1856	8.636209
347.3534	8.571066
347.5211	12.15916
347.6889	11.86389
347.8567	8.348899
348.0244	10.79299
348.1922	13.80882
348.3599	14.74823
348.5277	14.03972
348.6954	13.04044
348.8632	13.39727
349.0309	11.42556
349.1986	12.27209
349.3663	10.52232
349.5341	8.035879
349.7018	12.08267
349.8695	12.84419
350.0372	17.89993
350.2049	15.80634
350.3726	12.42594
350.5403	12.24502
350.7079	14.93566
350.8756	11.94696
351.0433	13.51783
351.211	11.00144
351.3786	15.11452
351.5463	17.41894
351.714	13.6664
351.8816	13.82833
352.0493	12.16536
352.2169	14.58702
352.3846	19.75487
352.5522	19.28356
352.7198	14.26142
352.8875	17.87703
353.0551	14.99896
353.2227	13.62317
353.3903	14.36824
353.5579	10.31816
353.7255	9.98033
353.8931	10.28786
354.0607	14.57601
354.2283	14.59748
354.3958	16.36107
354.5634	17.59032
354.731	14.6432
354.8986	14.81691
355.0661	12.17391
355.2337	15.40414
355.4012	16.76338
355.5688	19.53219
355.7363	16.74272
355.9039	14.16656
356.0714	17.58907
356.239	19.72761
356.4065	13.04423
356.574	16.50562
356.7415	14.77959
356.909	13.90838
357.0765	15.82157
357.244	14.2227
357.4115	15.06431
357.579	17.35011
357.7465	9.552339
357.914	11.90608
358.0815	12.69888
358.249	13.42229
358.4164	13.11724
358.5839	13.79092
358.7513	14.87839
358.9188	15.27525
359.0862	13.10632
359.2537	12.42595
359.4211	17.20892
359.5886	19.19583
359.756	18.40592
359.9234	16.61829
360.0909	18.10985
360.2583	19.27638
360.4257	15.41455
360.5931	12.95993
360.7605	18.81083
360.9279	18.29074
361.0953	14.77294
361.2627	18.42604
361.4301	17.44029
361.5974	16.08257
361.7648	16.18124
361.9322	13.79534
362.0995	18.47619
362.2669	16.40733
362.4343	22.57603
362.6016	19.74226
362.769	19.7711
362.9363	21.10807
363.1036	18.39861
363.271	17.30653
363.4383	20.68164
363.6056	15.8147
363.7729	18.36433
363.9402	18.67624
364.1075	17.76578
364.2748	19.23583
364.4421	18.01777
364.6094	18.19027
364.7767	18.9781
364.944	14.93407
365.1113	14.65582
365.2786	17.94647
365.4458	19.1207
365.6131	19.42856
365.7803	20.028
365.9476	22.70325
366.1148	18.6247
366.2821	20.35636
366.4493	16.83403
366.6166	17.30038
366.7838	17.31647
366.951	19.02519
367.1182	18.07057
367.2855	17.11714
367.4527	19.60153
367.6199	19.65448
367.7871	17.48189
367.9543	17.33571
368.1215	19.36642
368.2886	18.7424
368.4558	15.83541
368.623	17.45078
368.7902	22.91859
368.9573	20.39962
369.1245	22.71459
369.2917	20.92577
369.4588	20.37758
369.6259	25.24614
369.7931	19.70346
369.9602	21.98601
370.1274	20.26776
370.2945	20.96488
370.4616	18.33559
370.6287	16.29391
370.7958	21.5169
370.963	23.62124
371.1301	22.79586
371.2971	24.90384
371.4643	26.65793
371.6313	19.3004
371.7984	17.91595
371.9655	16.57726
372.1326	20.67102
372.2997	20.33602
372.4667	22.76165
372.6338	21.01104
372.8008	14.57414
372.9679	20.87934
373.1349	20.41181
373.3019	16.05593
373.469	21.97099
373.636	14.73208
373.803	22.78146
373.9701	23.18607
374.1371	22.07051
374.3041	21.98296
374.4711	22.62133
374.6381	23.31934
374.8051	17.45785
374.9721	21.74232
375.1391	21.00767
375.3061	22.71516
375.473	22.27353
375.64	22.5147
375.8069	23.90183
375.9739	25.68282
376.1409	27.71711
376.3078	23.33731
376.4748	24.2984
376.6417	20.01165
376.8087	18.6002
376.9756	23.16947
377.1425	23.47543
377.3094	21.97952
377.4763	23.68935
377.6432	25.81161
377.8102	26.6554
377.9771	26.97415
378.144	26.86254
378.3109	27.25181
378.4777	26.96165
378.6446	29.78141
378.8115	22.88449
378.9784	21.17105
379.1452	22.89829
379.3121	21.39474
379.4789	21.1195
379.6458	23.78316
379.8127	23.75926
379.9795	28.22388
380.1463	27.34167
380.3131	27.58533
380.48	28.0524
380.6468	24.60459
380.8136	25.55146
380.9804	27.65577
381.1472	26.26327
381.314	27.27721
381.4808	24.22559
381.6476	23.67687
381.8144	23.31607
381.9812	22.93067
382.148	22.8887
382.3147	22.57178
382.4815	19.43109
382.6483	18.34238
382.815	21.13856
382.9818	19.91725
383.1485	23.44204
383.3153	19.49579
383.482	22.7101
383.6487	22.8009
383.8155	23.48342
383.9822	19.24881
384.1489	20.85941
384.3156	25.00042
384.4823	27.3819
384.649	31.09426
384.8157	29.0775
384.9824	25.14848
385.1491	27.7255
385.3158	27.14119
385.4825	25.33846
385.6491	27.58679
385.8158	29.76395
385.9825	25.23777
386.1491	26.59603
386.3157	30.3886
386.4824	29.60805
386.649	28.145
386.8157	27.24887
386.9823	24.14215
387.1489	23.31744
387.3156	25.11077
387.4821	28.6335
387.6488	35.29025
387.8154	29.88027
387.982	30.24403
388.1486	24.46867
388.3152	21.28106
388.4818	24.41582
388.6483	33.94428
388.8149	32.84164
388.9815	32.76939
389.148	31.32032
389.3146	31.2903
389.4811	35.49496
389.6477	31.42919
389.8142	25.51259
389.9808	29.09347
390.1473	31.43358
390.3138	32.03964
390.4804	34.42554
390.6469	35.33371
390.8134	32.81082
390.9799	37.79772
391.1464	42.01203
391.3129	38.39896
391.4794	39.59943
391.6459	31.16586
391.8124	30.45692
391.9789	32.48507
392.1453	29.19423
392.3118	30.33448
392.4782	27.81633
392.6447	30.16443
392.8112	29.66033
392.9776	24.88298
393.144	22.20622
393.3105	17.74067
393.4769	16.87546
393.6433	19.42692
393.8098	21.14433
393.9762	24.6636
394.1426	34.0892
394.309	35.46839
394.4754	31.74641
394.6418	37.7288
394.8082	36.21154
394.9746	36.17
395.141	43.13424
395.3073	41.73426
395.4737	37.43499
395.64	38.74736
395.8064	39.40746
395.9728	40.5688
396.1391	38.70882
396.3055	33.6437
396.4718	26.33169
396.6381	23.5156
396.8045	17.47719
396.9708	26.02977
397.1371	25.35432
397.3034	27.29318
397.4697	37.32465
397.636	33.15916
397.8023	38.71919
397.9686	47.99076
398.1349	44.04419
398.3012	44.76245
398.4675	46.94041
398.6337	48.01046
398.8	49.60779
398.9662	46.18225
399.1325	43.47716
399.2988	48.40199
399.465	48.86084
399.6313	48.77112
399.7975	48.28819
399.9637	48.26883
400.1299	49.42715
400.2961	49.79512
400.4624	44.92266
400.6286	47.45226
400.7948	46.00606
400.961	50.10553
401.1272	52.22273
401.2934	51.94051
401.4595	54.08467
401.6257	59.99267
401.7919	61.08791
401.9581	56.78905
402.1242	56.29739
402.2904	53.17459
402.4565	54.48901
402.6227	53.05595
402.7888	56.5919
402.955	56.54995
403.1211	53.22949
403.2872	51.11945
403.4533	55.48328
403.6194	55.87321
403.7856	52.42223
403.9517	50.14803
404.1177	54.23943
404.2838	55.97485
404.4499	51.93406
404.616	47.88174
404.7821	47.44485
404.9482	59.10671
405.1142	61.2512
405.2803	51.93946
405.4464	49.69204
405.6124	53.53077
405.7784	48.07292
405.9445	54.48135
406.1105	51.50723
406.2766	49.85737
406.4426	50.33219
406.6086	49.88948
406.7746	56.62362
406.9406	57.91449
407.1066	61.07275
407.2726	60.36535
407.4386	58.44971
407.6046	53.69846
407.7706	54.4911
407.9366	55.58971
408.1025	59.15928
408.2685	62.33883
408.4344	58.79681
408.6004	56.72565
408.7664	58.49337
408.9323	64.42377
409.0983	62.90889
409.2642	58.92752
409.4301	57.32741
409.596	57.30718
409.762	59.64968
409.9279	58.48352
410.0938	55.23896
410.2597	55.88404
410.4256	53.18516
410.5915	57.27093
410.7574	60.52932
410.9232	60.51849
411.0891	63.85469
411.255	70.68321
411.4209	72.133
411.5867	67.70782
411.7526	67.49971
411.9184	65.61965
412.0843	63.49171
412.2501	67.58616
412.4159	69.37019
412.5818	64.10658
412.7476	66.79601
412.9134	66.82722
413.0792	64.6793
413.245	62.70499
413.4108	65.11283
413.5766	60.32872
413.7424	63.94402
413.9082	70.68517
414.074	68.88827
414.2397	65.89949
414.4055	60.85593
414.5713	66.14923
414.737	64.58355
414.9028	65.3931
415.0685	67.34205
415.2343	61.37411
415.4	63.84082
415.5658	60.64501
415.7315	63.98049
415.8972	66.67285
416.0629	68.4559
416.2286	70.84821
416.3943	71.52856
416.56	74.09959
416.7257	66.57355
416.8914	68.03246
417.0571	68.60749
417.2228	65.40241
417.3884	62.32883
417.5541	58.73977
417.7198	65.99428
417.8854	64.26041
418.0511	68.46623
418.2167	66.91449
418.3824	69.2582
418.548	67.51443
418.7136	68.23917
418.8792	69.76694
419.0449	70.02991
419.2105	72.1045
419.3761	73.69028
419.5417	70.1026
419.7073	66.95883
419.8729	62.11383
420.0385	63.79945
420.204	68.19042
420.3696	69.29607
420.5352	75.57716
420.7007	73.33189
420.8663	77.33371
421.0319	80.6845
421.1974	82.25859
421.3629	84.36676
421.5285	80.40042
421.694	76.45065
421.8595	76.88721
422.0251	79.5954
422.1906	83.20322
422.3561	74.49356
422.5216	68.8182
422.6871	67.34875
422.8526	72.5834
423.0181	77.16328
423.1835	80.94846
423.349	78.10993
423.5145	76.66349
423.68	73.9918
423.8454	75.6559
424.0109	71.48132
424.1763	81.91566
424.3418	82.44164
424.5072	80.48974
424.6726	82.70995
424.838	80.29897
425.0035	78.86378
425.1689	81.5341
425.3343	79.75868
425.4997	83.42802
425.6651	83.17649
425.8305	83.49863
425.9959	78.03901
426.1613	72.41158
426.3267	78.41284
426.492	80.82543
426.6574	86.87316
426.8228	81.36132
426.9881	77.43156
427.1534	74.78236
427.3188	72.43354
427.4841	73.94412
427.6495	75.53553
427.8148	81.04703
427.9801	84.41941
428.1454	83.14211
428.3107	86.93082
428.476	85.37285
428.6414	83.50111
428.8066	76.28313
428.9719	75.14534
429.1372	79.07571
429.3025	83.08396
429.4678	78.52009
429.633	75.08047
429.7983	67.87746
429.9636	60.7112
430.1288	58.12289
430.294	59.95615
430.4593	62.87202
430.6245	65.52055
430.7897	62.2667
430.955	66.9071
431.1202	66.83868
431.2854	69.41907
431.4506	76.51727
431.6158	86.6386
431.781	97.32144
431.9462	102.2219
432.1114	90.84753
432.2766	86.55262
432.4417	76.55581
432.6069	76.50197
432.772	84.26235
432.9372	91.96175
433.1024	95.60067
433.2675	93.99878
433.4326	98.14455
433.5977	91.95428
433.7629	83.05862
433.928	76.18826
434.0931	73.25052
434.2582	79.42947
434.4233	83.10795
434.5884	88.97575
434.7535	93.50273
434.9186	96.91557
435.0837	93.75031
435.2488	95.52583
435.4138	88.66451
435.5789	90.1158
435.744	100.3708
435.909	103.6419
436.0741	101.6333
436.2391	106.2525
436.4042	106.1722
436.5692	105.5715
436.7342	101.6551
436.8992	97.80088
437.0643	97.52559
437.2293	101.3884
437.3943	98.32146
437.5593	101.301
437.7243	102.2226
437.8893	105.2094
438.0542	106.2638
438.2192	90.01895
438.3842	88.98019
438.5491	87.29952
438.7141	90.20513
438.8791	95.04487
439.044	94.67031
439.209	101.806
439.3739	100.0264
439.5388	106.2637
439.7037	105.8406
439.8687	113.1758
440.0336	102.8813
440.1985	100.8102
440.3634	95.64637
440.5283	97.33695
440.6932	98.29292
440.8581	104.7645
441.0229	109.6963
441.1878	108.6315
441.3527	113.34
441.5175	107.471
441.6824	107.2995
441.8472	106.6815
442.0121	112.4241
442.1769	113.1524
442.3418	111.4522
442.5066	111.2581
442.6714	115.7271
442.8362	114.0852
443.001	106.7006
443.1659	117.9016
443.3307	119.6769
443.4955	114.9591
443.6602	112.9412
443.825	117.7175
443.9898	119.8934
444.1546	113.3452
444.3193	113.3455
444.4841	118.7307
444.6488	119.2154
444.8136	128.3027
444.9783	128.5105
445.1431	120.0902
445.3078	115.7366
445.4725	116.4521
445.6372	111.6056
445.802	112.0807
445.9667	108.855
446.1314	110.3457
446.2961	115.0333
446.4608	124.2258
446.6255	121.2746
446.7901	115.4508
446.9548	112.58
447.1195	118.7364
447.2841	124.9786
447.4488	127.752
447.6134	128.125
447.7781	129.8064
447.9427	128.9192
448.1074	126.4686
448.272	124.003
448.4366	121.6854
448.6012	125.0449
448.7658	128.526
448.9305	126.3805
449.095	122.393
449.2596	124.8668
449.4242	127.2165
449.5888	127.1341
449.7534	129.4156
449.9179	135.0362
450.0825	135.4108
450.2471	141.5123
450.4116	141.0282
450.5762	140.4941
450.7407	137.4449
450.9052	139.9162
451.0698	143.2957
451.2343	137.2907
451.3988	135.0777
451.5633	129.0763
451.7278	135.2184
451.8923	139.8496
452.0568	139.628
452.2213	136.3785
452.3858	131.4375
452.5503	128.0916
452.7148	128.1728
452.8792	119.6674
453.0437	121.4978
453.2081	128.4581
453.3726	132.0236
453.537	140.9099
453.7015	141.5096
453.8659	146.0477
454.0303	142.4803
454.1947	139.2722
454.3592	139.7744
454.5236	140.1237
454.688	136.3076
454.8524	133.4322
455.0168	133.597
455.1811	136.5202
455.3455	133.433
455.5099	137.0781
455.6743	136.3839
455.8386	141.0074
456.003	141.6338
456.1673	144.9935
456.3317	138.1672
456.496	136.2966
456.6603	140.7997
456.8246	145.6241
456.989	144.686
457.1533	144.1636
457.3176	147.1832
457.4819	142.2647
457.6462	157.6193
457.8105	144.6028
457.9748	140.0962
458.1391	132.3036
458.3033	136.5162
458.4676	135.6388
458.6319	136.4929
458.7961	139.5432
458.9604	142.7297
459.1246	146.5135
459.2888	134.5004
459.4531	136.5325
459.6173	141.3965
459.7815	139.3349
459.9457	139.599
460.11	148.1633
460.2741	140.0631
460.4384	141.1767
460.6025	153.7242
460.7667	147.0644
460.9309	143.4281
461.0951	142.2843
461.2592	140.0112
461.4234	142.6562
461.5876	150.3288
461.7517	147.8377
461.9159	141.2822
462.08	147.6383
462.2441	153.2782
462.4082	148.7458
462.5724	148.6796
462.7365	142.4873
462.9006	147.6546
463.0647	148.7858
463.2288	141.5419
463.3929	146.3387
463.557	145.4322
463.721	148.068
463.8851	139.2816
464.0492	140.9918
464.2132	146.8935
464.3773	145.4959
464.5414	140.0104
464.7054	141.1707
464.8694	141.3331
465.0334	147.1052
465.1975	143.6543
465.3615	147.0604
465.5255	149.9594
465.6895	147.7749
465.8535	151.4004
466.0175	152.1942
466.1815	146.593
466.3455	147.1953
466.5095	144.071
466.6734	135.4284
466.8374	133.3049
467.0014	132.6192
467.1653	139.1728
467.3293	152.8455
467.4932	151.8062
467.6571	152.1425
467.8211	158.1709
467.985	149.8088
468.1489	149.1442
468.3128	149.055
468.4767	146.2932
468.6406	153.921
468.8045	162.2843
468.9684	149.2308
469.1323	147.629
469.2962	151.6546
469.46	151.7632
469.6239	155.0583
469.7878	157.532
469.9516	152.7552
470.1154	148.7465
470.2793	150.6309
470.4431	145.0461
470.607	145.8266
470.7708	147.5578
470.9346	151.0636
471.0984	151.6079
471.2622	155.4672
471.426	153.8622
471.5898	158.0113
471.7536	164.8693
471.9174	168.1933
472.0811	165.8167
472.2449	163.8538
472.4087	164.2839
472.5724	156.8121
472.7362	159.4626
472.8999	150.4652
473.0637	153.7268
473.2274	153.0021
473.3911	149.946
473.5548	155.9171
473.7185	154.8264
473.8822	159.8156
474.0459	164.2146
474.2096	163.3366
474.3733	157.3166
474.537	159.483
474.7007	163.7831
474.8643	169.4367
475.028	160.1658
475.1917	156.3539
475.3553	155.2753
475.519	153.7099
475.6826	154.2491
475.8463	161.5126
476.0099	163.1249
476.1735	167.0449
476.3371	165.5429
476.5007	160.2266
476.6643	155.2808
476.8279	159.1698
476.9915	158.1931
477.1551	156.1008
477.3187	161.5022
477.4823	160.9467
477.6458	162.8427
477.8094	164.9608
477.9729	162.3135
478.1365	168.3684
478.3	160.8442
478.4636	163.2289
478.6271	160.1022
478.7906	156.5674
478.9541	156.0022
479.1176	155.8047
479.2812	161.2569
479.4447	167.6272
479.6082	163.5123
479.7716	164.2778
479.9351	165.167
480.0986	167.3653
480.2621	162.0885
480.4255	161.9744
480.589	158.6157
480.7524	156.6278
480.9159	158.288
481.0793	162.8659
481.2428	164.1566
481.4062	164.5598
481.5696	169.1793
481.733	172.3969
481.8964	171.2527
482.0598	172.4162
482.2232	167.0271
482.3866	162.7968
482.55	165.3921
482.7134	164.1053
482.8768	162.4252
483.0401	158.7645
483.2035	162.2768
483.3668	164.6422
483.5302	166.3174
483.6935	165.326
483.8568	165.9871
484.0202	159.5665
484.1835	156.1337
484.3468	165.1304
484.5101	167.6507
484.6734	165.0704
484.8367	167.3564
485	160.7315
485.1633	158.2418
485.3266	160.4016
485.4899	158.2203
485.6531	147.7372
485.8164	145.0697
485.9796	138.7937
486.1429	127.9065
486.3061	125.698
486.4694	138.838
486.6326	149.5523
486.7958	160.6753
486.959	159.7084
487.1223	150.195
487.2855	156.2462
487.4486	160.9753
487.6118	158.2268
487.775	162.7824
487.9382	167.9148
488.1014	165.8155
488.2646	167.1548
488.4277	167.704
488.5909	168.6092
488.754	161.2341
488.9171	156.9704
489.0803	152.0823
489.2434	154.6714
489.4066	165.3958
489.5697	176.0208
489.7328	170.7829
489.8959	173.5971
490.059	173.6898
490.2221	169.9552
490.3852	175.5208
490.5482	171.1504
490.7113	170.0442
490.8744	170.5886
491.0374	165.0118
491.2005	169.5872
491.3636	166.3988
491.5266	173.5366
491.6896	162.3376
491.8527	160.2477
492.0157	153.1339
492.1787	152.2634
492.3417	156.4128
492.5047	167.3009
492.6677	172.0439
492.8307	173.1697
492.9937	179.7972
493.1567	175.8053
493.3196	163.9579
493.4826	166.3052
493.6456	173.9142
493.8085	169.7984
493.9715	168.9661
494.1344	171.1235
494.2974	173.9044
494.4603	173.2978
494.6232	175.4001
494.7861	175.0798
494.949	175.114
495.1119	174.8352
495.2748	178.1027
495.4377	177.129
495.6006	172.5977
495.7635	170.3847
495.9264	174.3132
496.0892	172.8608
496.2521	181.367
496.4149	181.4657
496.5778	177.5775
496.7407	177.8902
496.9035	178.0252
497.0663	189.184
497.2291	179.5591
497.3919	178.0682
497.5547	180.2231
497.7176	182.8787
497.8804	182.2533
498.0432	175.9703
498.2059	167.9012
498.3687	161.7995
498.5315	161.8559
498.6942	171.3059
498.857	176.5702
499.0198	178.0748
499.1825	181.7909
499.3452	173.4515
499.508	175.2243
499.6707	181.0292
499.8334	178.8648
499.9962	175.9139
500.1589	172.5666
500.3216	172.3254
500.4843	169.8778
500.6469	167.2714
500.8096	172.8848
500.9723	175.3128
501.135	173.403
501.2976	176.923
501.4603	176.9505
501.623	170.2971
501.7856	172.6031
501.9482	169.9695
502.1109	172.8687
502.2735	172.1606
502.4361	176.3903
502.5987	175.3795
502.7614	178.5118
502.924	179.1331
503.0865	180.2673
503.2491	188.3266
503.4117	182.4322
503.5743	179.0766
503.7368	171.3642
503.8994	168.3339
504.062	171.4571
504.2245	168.6797
504.3871	170.7793
504.5496	178.5004
504.7121	184.2221
504.8746	182.9503
505.0372	179.9911
505.1997	180.6716
505.3622	184.0951
505.5247	185.385
505.6872	191.2732
505.8497	188.6983
506.0121	189.25
506.1746	193.5089
506.3371	190.4857
506.4995	187.5535
506.662	190.3885
506.8244	192.6793
506.9869	184.9035
507.1493	186.4119
507.3117	186.1111
507.4742	185.2735
507.6366	188.9222
507.799	189.9612
507.9614	183.5361
508.1238	175.9386
508.2862	178.0894
508.4485	175.8674
508.6109	184.436
508.7733	192.6944
508.9357	189.5475
509.098	191.813
509.2604	190.6025
509.4227	191.0171
509.5851	192.2162
509.7474	189.9453
509.9097	178.9524
510.072	178.0664
510.2343	189.9679
510.3966	191.15
510.5589	193.741
510.7212	192.974
510.8835	184.5213
511.0458	181.6524
511.2081	185.3976
511.3703	189.9474
511.5326	191.6715
511.6949	197.1417
511.8571	195.5876
512.0193	190.7811
512.1816	188.0561
512.3438	182.0762
512.506	177.8457
512.6682	181.9675
512.8304	180.4028
512.9926	184.826
513.1548	188.5353
513.317	192.2711
513.4792	190.7708
513.6414	191.6948
513.8035	190.1983
513.9657	177.6581
514.1279	174.5641
514.29	176.7855
514.4521	183.1733
514.6143	178.4966
514.7764	179.6542
514.9385	183.5088
515.1006	181.6871
515.2628	181.9123
515.4249	177.7867
515.587	189.7333
515.7491	185.7656
515.9111	188.2612
516.0732	189.7977
516.2353	187.3257
516.3973	181.5921
516.5594	171.94
516.7214	168.2302
516.8835	160.3695
517.0455	156.8745
517.2076	155.2857
517.3696	154.5067
517.5316	165.4986
517.6937	182.2913
517.8557	184.2282
518.0176	185.0676
518.1796	176.7397
518.3416	160.2558
518.5036	155.1892
518.6656	162.5283
518.8275	172.6425
518.9895	179.1234
519.1514	181.8774
519.3134	175.9123
519.4753	174.2364
519.6373	181.9409
519.7992	185.025
519.9611	191.6443
520.123	195.9079
520.2849	185.9353
520.4468	188.3471
520.6087	184.5101
520.7706	183.6965
520.9325	179.9901
521.0944	185.671
521.2562	192.3526
521.4181	186.6374
521.58	182.7135
521.7418	187.1078
521.9036	182.2887
522.0655	190.5978
522.2273	187.9755
522.3891	184.1144
522.551	183.5115
522.7128	177.6176
522.8746	180.4207
523.0363	184.9245
523.1981	192.3283
523.3599	191.5591
523.5217	188.1273
523.6835	186.2045
523.8452	197.8539
524.007	196.5932
524.1687	195.4207
524.3304	199.7209
524.4922	198.4007
524.6539	197.0825
524.8157	200.4799
524.9774	189.6077
525.1391	192.4529
525.3008	198.1999
525.4625	190.6686
525.6241	194.7144
525.7858	203.9292
525.9475	202.7117
526.1092	199.692
526.2709	186.9093
526.4325	183.3749
526.5942	179.6326
526.7558	176.0747
526.9174	171.7718
527.079	178.1953
527.2407	181.2125
527.4023	185.5497
527.5639	194.8847
527.7255	189.1746
527.8871	199.6077
528.0487	194.3521
528.2103	195.5966
528.3718	191.3202
528.5334	197.0124
528.695	195.2968
528.8565	200.4017
529.0181	207.8668
529.1796	212.2535
529.3412	207.9337
529.5027	206.0171
529.6642	197.8128
529.8257	196.2799
529.9872	197.9696
530.1487	195.0969
530.3102	199.0181
530.4717	205.7102
530.6332	208.5245
530.7947	203.9488
530.9562	207.6854
531.1176	209.2433
531.2791	208.0424
531.4405	206.0819
531.6019	198.8078
531.7634	201.928
531.9248	200.5908
532.0862	198.7677
532.2477	195.0382
532.4091	196.6136
532.5704	194.0929
532.7319	190.9485
532.8932	175.384
533.0546	182.587
533.216	196.1109
533.3774	201.2813
533.5388	201.8855
533.7001	203.6953
533.8615	203.5892
534.0228	199.4813
534.1841	192.2238
534.3455	197.195
534.5068	197.0047
534.6681	196.1752
534.8293	195.8136
534.9907	200.4556
535.152	194.7895
535.3132	196.0961
535.4745	203.1104
535.6358	200.5298
535.7971	200.5446
535.9583	202.2684
536.1196	206.3242
536.2808	204.3943
536.4421	196.7423
536.6033	195.7926
536.7645	193.3171
536.9258	186.2724
537.087	188.9345
537.2482	184.6479
537.4094	194.1367
537.5706	197.5963
537.7318	197.9157
537.8929	203.1335
538.0541	200.6483
538.2153	203.4284
538.3764	207.0024
538.5376	205.1694
538.6987	204.7792
538.8599	201.7115
539.021	199.3857
539.1821	197.5075
539.3432	190.684
539.5043	192.2322
539.6655	193.2019
539.8265	184.5725
539.9876	184.0238
540.1487	189.3342
540.3098	189.6247
540.4708	185.8879
540.6319	180.9649
540.793	185.1665
540.954	188.7998
541.1151	188.6284
541.2761	185.6637
541.4371	188.6619
541.5981	196.0946
541.7592	197.5617
541.9202	192.8607
542.0812	198.3681
542.2422	191.2697
542.4031	191.4517
542.5641	191.3565
542.7251	200.9143
542.886	198.1327
543.0471	193.1599
543.208	195.1844
543.369	195.1443
543.5298	190.5034
543.6908	196.7266
543.8517	193.0835
544.0126	197.1874
544.1736	201.5183
544.3345	199.0681
544.4954	191.3534
544.6563	190.7123
544.8171	187.7351
544.978	197.4163
545.1389	204.327
545.2997	202.09
545.4606	200.3038
545.6215	187.3987
545.7823	189.8659
545.9432	198.3989
546.104	212.3788
546.2648	199.2047
546.4256	188.3006
546.5864	192.6751
546.7473	201.115
546.908	203.2972
547.0688	203.8786
547.2296	202.312
547.3904	204.9566
547.5511	194.0291
547.7119	186.6089
547.8727	181.0568
548.0334	182.2703
548.1942	192.5801
548.3549	199.9563
548.5156	193.5795
548.6763	196.2801
548.837	195.4825
548.9977	200.5748
549.1584	196.7326
549.3192	199.3787
549.4798	207.2394
549.6405	202.6001
549.8011	199.9433
549.9619	201.0395
550.1225	202.1744
550.2831	201.1113
550.4438	198.644
550.6044	202.6038
550.765	194.9671
550.9257	193.9099
551.0863	200.0011
551.2469	197.8095
551.4075	197.1368
551.5681	195.1465
551.7287	198.7594
551.8893	198.2521
552.0498	203.0057
552.2104	200.2293
552.371	198.917
552.5315	205.1636
552.6921	193.0247
552.8526	194.355
553.0131	196.8591
553.1736	198.7807
553.3342	200.7844
553.4947	189.189
553.6552	196.1976
553.8157	199.6972
553.9762	202.2469
554.1367	198.6097
554.2971	198.2007
554.4576	198.0739
554.618	196.6715
554.7785	200.5964
554.939	201.9026
555.0994	199.9967
555.2598	196.5992
555.4203	196.3102
555.5807	197.012
555.7411	194.7085
555.9015	196.1691
556.0619	192.1105
556.2223	191.7096
556.3827	192.2172
556.5431	188.4141
556.7034	191.7104
556.8638	189.7816
557.0242	187.5332
557.1845	194.4604
557.3448	194.2958
557.5052	199.4239
557.6655	200.6769
557.8259	192.5963
557.9861	192.4459
558.1465	194.5576
558.3068	204.2588
558.467	193.143
558.6274	190.5926
558.7877	187.7227
558.9479	182.5211
559.1082	181.1838
559.2684	190.48
559.4287	180.0472
559.5889	183.2601
559.7491	185.6257
559.9094	186.1567
560.0696	187.2543
560.2299	185.0942
560.3901	184.1683
560.5502	193.4734
560.7104	195.7097
560.8707	192.5051
561.0308	196.5045
561.191	202.9513
561.3511	189.2048
561.5114	186.0385
561.6714	181.2149
561.8316	189.2805
561.9918	189.5495
562.1519	196.3997
562.312	185.3846
562.4722	189.3631
562.6323	186.748
562.7924	182.7455
562.9525	188.3896
563.1125	195.9619
563.2726	196.994
563.4327	192.7811
563.5928	189.7718
563.7528	184.6213
563.9129	184.8495
564.0729	188.6018
564.233	187.5503
564.393	187.9102
564.553	189.118
564.7131	192.75
564.873	187.7711
565.0331	192.332
565.1931	190.3421
565.353	189.0742
565.5131	185.6892
565.673	184.102
565.833	183.0676
565.9929	183.1254
566.1529	179.1541
566.3129	183.5318
566.4728	186.5182
566.6328	185.6956
566.7927	185.3511
566.9526	182.215
567.1125	186.316
567.2724	190.784
567.4323	192.0286
567.5922	193.127
567.7521	192.3847
567.9119	185.7807
568.0718	181.9518
568.2317	186.642
568.3915	183.4872
568.5514	181.6712
568.7112	179.8742
568.871	185.1037
569.0309	185.1426
569.1907	187.3103
569.3505	192.9478
569.5103	179.9223
569.6701	182.7909
569.8299	189.498
569.9897	184.6017
570.1495	178.2575
570.3092	182.0186
570.469	184.7407
570.6287	185.7475
570.7885	176.8337
570.9482	174.7947
571.108	175.7859
571.2677	182.52
571.4274	178.2033
571.5871	181.7183
571.7468	185.2169
571.9066	188.8596
572.0662	188.1584
572.2259	181.2593
572.3856	181.7691
572.5452	183.2211
572.7049	188.7101
572.8646	187.628
573.0242	188.1542
573.1838	188.31
573.3435	187.1378
573.5031	186.4936
573.6627	184.3079
573.8223	192.2479
573.9819	186.7797
574.1415	186.5316
574.3011	186.9635
574.4607	193.7613
574.6203	190.6875
574.7798	184.7049
574.9394	187.9042
575.099	181.9815
575.2585	177.8732
575.418	179.9299
575.5776	179.878
575.7371	181.9344
575.8966	185.1262
576.0562	184.3175
576.2156	177.4316
576.3751	184.0203
576.5346	183.0748
576.6941	185.1519
576.8536	183.2885
577.0131	184.5718
577.1725	184.9437
577.332	180.9025
577.4914	185.1744
577.6508	183.0717
577.8103	176.7752
577.9697	176.9902
578.1291	182.8276
578.2885	172.5962
578.4479	175.1181
578.6073	173.6798
578.7667	179.66
578.9261	181.7665
579.0854	184.4386
579.2448	176.4516
579.4042	182.7969
579.5635	187.2599
579.7229	179.2273
579.8822	173.0209
580.0416	178.8649
580.2009	178.0837
580.3602	181.458
580.5195	176.6628
580.6788	171.1916
580.8381	181.619
580.9974	180.3912
581.1566	184.2269
581.3159	182.6305
581.4752	182.7491
581.6345	173.5193
581.7937	175.9272
581.9529	178.135
582.1122	184.2847
582.2714	179.7054
582.4306	177.2499
582.5898	179.4019
582.749	182.5563
582.9082	179.1412
583.0674	173.821
583.2266	177.3352
583.3857	179.5263
583.5449	178.177
583.7041	178.0077
583.8633	173.6537
584.0224	174.7741
584.1815	176.8571
584.3407	176.4517
584.4998	172.0657
584.6589	175.994
584.818	178.4174
584.9771	170.8329
585.1362	168.356
585.2953	170.2844
585.4544	166.6198
585.6135	171.4505
585.7725	174.4835
585.9316	171.1601
586.0906	171.0279
586.2497	169.6049
586.4087	173.6964
586.5677	176.079
586.7267	169.3418
586.8858	172.8273
587.0448	166.8793
587.2038	170.9771
587.3628	173.0206
587.5218	166.1423
587.6807	169.3222
587.8397	174.7608
587.9987	168.5594
588.1577	164.0622
588.3166	163.7967
588.4755	163.5613
588.6345	165.2357
588.7934	161.2088
588.9523	151.9098
589.1112	148.5357
589.2701	148.1676
589.429	156.0383
589.5879	157.877
589.7468	156.7582
589.9056	157.9479
590.0645	160.3729
590.2234	157.9209
590.3822	169.5535
590.5411	169.278
590.6999	161.1873
590.8588	161.0813
591.0176	157.4364
591.1764	161.9073
591.3352	166.0756
591.494	168.5779
591.6528	167.0056
591.8116	159.1771
591.9703	163.0327
592.1291	165.7399
592.2878	159.2178
592.4467	161.389
592.6053	162.8741
592.7641	160.3924
592.9229	162.923
593.0816	159.133
593.2403	157.5288
593.399	162.4103
593.5577	162.6575
593.7164	165.6297
593.8751	166.9428
594.0338	167.5045
594.1924	159.774
594.3511	159.7849
594.5098	157.1479
594.6684	160.3941
594.8271	160.2766
594.9857	160.812
595.1443	154.5708
595.303	161.1269
595.4615	166.9274
595.6202	160.4883
595.7787	161.9015
595.9374	164.4697
596.0959	171.2227
596.2545	167.1823
596.4131	167.1251
596.5717	163.0078
596.7302	167.1223
596.8887	162.0948
597.0473	160.6756
597.2058	162.2905
597.3644	163.8281
597.5229	162.3851
597.6814	162.0413
597.8399	153.6793
597.9984	158.487
598.1569	160.8325
598.3154	163.8907
598.4738	163.5722
598.6323	162.3962
598.7908	163.2084
598.9492	164.4192
599.1076	160.9738
599.2661	157.1671
599.4245	160.8661
599.5829	162.3226
599.7413	159.183
599.8997	163.21
600.0581	169.9231
600.2165	162.9838
600.3749	164.7157
600.5333	163.8745
600.6917	163.1719
600.85	165.4789
601.0084	160.3379
601.1667	157.222
601.325	164.845
601.4833	161.281
601.6417	159.2436
601.8	164.2893
601.9583	160.9869
602.1166	158.767
602.2749	162.0936
602.4332	155.2049
602.5914	153.8026
602.7498	160.1514
602.908	162.8354
603.0662	162.1981
603.2245	164.9493
603.3828	166.4969
603.541	169.1744
603.6992	167.9396
603.8574	160.1643
604.0156	159.8815
604.1738	161.4892
604.332	163.0502
604.4902	159.1313
604.6484	161.244
604.8065	164.0944
604.9647	162.0835
605.1229	166.249
605.281	164.3455
605.4391	159.0648
605.5973	158.2074
605.7554	155.2013
605.9135	158.1199
606.0717	154.5459
606.2297	155.2506
606.3878	153.3901
606.5459	157.7896
606.704	156.0079
606.8621	161.3889
607.0201	163.819
607.1782	161.2219
607.3362	159.3535
607.4943	164.5899
607.6523	162.3474
607.8104	155.0379
607.9684	155.7634
608.1264	159.5161
608.2844	156.9672
608.4424	156.9164
608.6003	153.2773
608.7584	158.4043
608.9163	156.7148
609.0743	162.3372
609.2322	152.8434
609.3902	154.3608
609.5482	149.813
609.7061	151.5585
609.864	157.628
610.0219	150.6533
610.1798	151.1534
610.3377	153.6756
610.4956	154.378
610.6535	157.1244
610.8114	153.6704
610.9693	152.4789
611.1271	150.7927
611.285	153.1187
611.4429	149.7636
611.6007	155.3772
611.7585	151.5389
611.9164	158.7213
612.0742	155.6165
612.232	148.9962
612.3898	150.6755
612.5476	154.4282
612.7054	152.2234
612.8632	158.5519
613.0209	156.8165
613.1787	155.1523
613.3365	154.0775
613.4942	150.9913
613.652	144.4397
613.8097	147.0745
613.9674	150.0155
614.1252	147.9767
614.2829	147.8347
614.4406	156.042
614.5983	149.4936
614.756	149.7356
614.9136	152.301
615.0714	155.3762
615.229	147.0689
615.3867	152.3216
615.5443	148.214
615.702	147.7495
615.8596	143.5874
616.0172	144.2445
616.1748	143.5595
616.3325	141.2107
616.4901	139.8974
616.6476	144.9457
616.8052	146.1464
616.9628	147.4014
617.1204	143.3642
617.278	150.0595
617.4355	141.9295
617.5931	145.4465
617.7506	148.9643
617.9081	144.3574
618.0657	141.997
618.2232	147.0654
618.3807	143.5399
618.5382	147.9557
618.6957	151.1854
618.8532	142.5803
619.0107	144.8135
619.1682	140.7971
619.3256	140.0458
619.4831	147.8841
619.6406	146.1166
619.798	145.6006
619.9554	146.1878
620.1129	145.303
620.2703	142.1811
620.4277	139.3379
620.5851	141.1304
620.7425	149.6763
620.8998	152.6127
621.0573	150.5525
621.2146	151.954
621.372	150.8881
621.5294	145.0549
621.6867	148.6531
621.8441	147.2564
622.0013	146.9071
622.1587	145.4663
622.316	146.2206
622.4733	142.0437
622.6306	140.367
622.7879	149.0497
622.9452	142.5753
623.1025	143.2775
623.2598	145.8477
623.4171	145.1847
623.5743	140.5605
623.7316	143.3251
623.8888	140.8074
624.046	142.6491
624.2032	142.9693
624.3605	145.5511
624.5176	147.8794
624.6749	140.5531
624.8321	141.7417
624.9893	146.7679
625.1464	140.8774
625.3036	138.7776
625.4608	136.6622
625.6179	134.4734
625.7751	138.199
625.9322	144.7508
626.0894	140.5414
626.2465	137.4779
626.4036	143.8992
626.5607	144.0025
626.7178	141.5861
626.8749	143.5863
627.032	142.413
627.189	137.4427
627.3461	143.0725
627.5032	142.9331
627.6602	143.3216
627.8173	139.7066
627.9743	138.8934
628.1313	137.3309
628.2884	133.7849
628.4454	135.0266
628.6024	136.502
628.7594	139.424
628.9164	137.1006
629.0734	135.5654
629.2303	137.9496
629.3873	141.2083
629.5443	139.3804
629.7012	139.9941
629.8582	137.8897
630.0151	138.8956
630.172	138.0152
630.3289	129.0924
630.4858	132.2066
630.6428	138.4289
630.7996	139.4121
630.9565	139.4242
631.1134	136.4312
631.2703	134.3985
631.4272	131.5776
631.584	131.7807
631.7408	129.617
631.8977	137.0326
632.0546	138.2868
632.2114	139.2726
632.3682	137.7007
632.525	130.9254
632.6818	135.6755
632.8386	138.4734
632.9954	139.4568
633.1522	137.2329
633.3089	141.1744
633.4657	137.8704
633.6224	134.8317
633.7792	132.7618
633.9359	136.1152
634.0927	138.1846
634.2494	133.9481
634.4061	138.0709
634.5628	136.1504
634.7195	132.0271
634.8762	136.4001
635.0329	137.0285
635.1895	142.2396
635.3462	135.2085
635.5029	138.0177
635.6595	131.8389
635.8162	133.5449
635.9728	141.6039
636.1295	134.1405
636.2861	135.5449
636.4427	141.8958
636.5992	134.8469
636.7559	138.2157
636.9124	131.7716
637.069	131.9964
637.2256	134.7292
637.3821	131.6913
637.5387	129.0265
637.6953	134.8293
637.8518	132.9352
638.0084	135.6173
638.1649	135.6514
638.3214	133.1693
638.4779	132.7799
638.6344	135.1209
638.7909	141.011
638.9474	134.759
639.1038	132.123
639.2603	134.5
639.4167	134.7025
639.5732	129.2809
639.7297	127.368
639.8861	131.7223
640.0425	128.4413
640.199	133.9935
640.3553	131.2684
640.5118	129.651
640.6682	130.4739
640.8245	132.3596
640.981	131.6577
641.1373	133.6876
641.2936	133.7444
641.45	128.1434
641.6064	121.5532
641.7627	125.7365
641.9191	129.1795
642.0754	123.5572
642.2317	128.803
642.388	132.0157
642.5443	134.4028
642.7006	132.0985
642.8569	135.6369
643.0131	136.1734
643.1694	125.0581
643.3257	126.116
643.4819	131.8034
643.6382	133.0107
643.7944	126.53
643.9506	129.0593
644.1069	129.6501
644.2631	128.6879
644.4193	132.8115
644.5754	135.5277
644.7316	134.1688
644.8878	127.0756
645.044	126.7326
645.2002	126.5987
645.3563	126.2433
645.5125	126.5737
645.6686	124.558
645.8248	122.5089
645.9809	128.9629
646.137	128.9306
646.2931	126.1233
646.4492	123.0741
646.6053	127.8308
646.7614	131.6001
646.9174	125.4928
647.0735	119.0424
647.2296	126.9963
647.3856	128.3276
647.5417	118.4683
647.6977	117.4637
647.8537	120.6932
648.0098	125.4298
648.1658	123.4211
648.3218	117.553
648.4777	113.5996
648.6337	119.2952
648.7897	124.0274
648.9457	127.1243
649.1016	133.9026
649.2576	121.2564
649.4135	123.1615
649.5695	117.7242
649.7254	114.4201
649.8813	114.7653
650.0372	120.6951
650.1932	122.9499
650.3491	119.2846
650.5049	123.2632
650.6608	123.6289
650.8167	124.997
650.9725	120.5874
651.1284	127.6045
651.2842	127.5276
651.4401	124.1067
651.5959	117.1468
651.7518	117.8722
651.9076	122.8479
652.0634	116.375
652.2192	122.0262
652.3749	123.8398
652.5308	123.879
652.6865	120.9699
652.8423	114.8734
652.998	120.2763
653.1538	119.8308
653.3096	119.5375
653.4653	116.5502
653.621	122.1047
653.7767	119.2123
653.9324	119.1978
654.0881	121.0752
654.2438	126.9285
654.3995	122.8822
654.5552	113.1338
654.7109	115.9641
654.8665	114.9169
655.0222	120.013
655.1778	115.7275
655.3334	111.7641
655.4891	114.109
655.6447	117.1981
655.8003	110.9725
655.9559	108.5752
656.1115	107.413
656.2671	101.5145
656.4227	100.2262
656.5782	103.0306
656.7338	111.3298
656.8893	107.9372
657.0449	116.2712
657.2004	114.1484
657.356	111.0466
657.5115	117.5331
657.667	116.07
657.8225	117.7152
657.978	118.1693
658.1335	113.9691
658.289	117.8505
658.4445	110.0011
658.5999	114.5175
658.7554	118.3289
658.9108	122.4189
659.0663	123.5498
659.2217	118.7627
659.3771	116.8121
659.5325	114.5476
659.6879	118.5439
659.8433	118.0705
659.9987	119.0122
660.1541	116.9052
660.3095	122.6437
660.4648	122.7891
660.6202	119.3152
660.7756	113.6822
660.9309	116.811
661.0862	116.4505
661.2416	118.7013
661.3969	119.8537
661.5522	119.714
661.7075	121.155
661.8628	116.2249
662.0181	119.719
662.1733	121.2362
662.3286	120.1601
662.4839	118.1353
662.6391	114.6095
662.7944	115.3274
662.9496	115.8137
663.1048	117.4146
663.26	119.1298
663.4152	116.17
663.5704	119.6975
663.7256	113.0555
663.8808	121.9853
664.036	122.9007
664.1912	118.6767
664.3463	112.9025
664.5015	115.4441
664.6566	119.3063
664.8118	118.5221
664.9669	120.4668
665.122	118.9713
665.2771	115.4748
665.4322	114.9015
665.5873	120.1345
665.7424	119.9299
665.8975	121.6407
666.0526	121.53
666.2076	116.4258
666.3627	109.5989
666.5177	113.2533
666.6727	111.5578
666.8278	113.7427
666.9828	113.0281
667.1378	117.7675
667.2928	112.2764
667.4478	115.1303
667.6028	117.084
667.7578	106.4175
667.9127	110.7521
668.0677	113.9258
668.2226	111.9025
668.3776	110.8786
668.5325	116.4455
668.6874	114.9868
668.8423	121.3799
668.9973	113.1698
669.1522	111.6336
669.3071	114.7292
669.4619	119.3066
669.6168	113.71
669.7717	112.7234
669.9265	114.2379
670.0814	109.0125
670.2362	114.4027
670.3911	114.3637
670.5459	113.6123
670.7007	108.1526
670.8555	110.6866
671.0103	112.6733
671.1651	113.3995
671.3199	113.3167
671.4747	112.3696
671.6295	110.9578
671.7842	109.6211
671.939	110.7136
672.0937	107.2274
672.2484	111.2825
672.4031	111.549
672.5579	113.2813
672.7126	110.1111
672.8673	110.547
673.022	114.0984
673.1767	121.7008
673.3314	110.6304
673.486	111.5834
673.6407	115.8077
673.7953	109.3285
673.95	113.6928
674.1046	104.7406
674.2592	106.5505
674.4138	106.9984
674.5684	111.7327
674.723	114.8357
674.8776	110.2898
675.0322	111.1984
675.1868	102.7432
675.3414	101.8509
675.4959	106.3504
675.6505	108.9027
675.805	107.4569
675.9595	114.4095
676.1141	110.4829
676.2686	113.3073
676.4231	115.4185
676.5776	110.9364
676.7321	110.6834
676.8866	103.8785
677.041	104.6737
677.1955	108.3305
677.35	107.6726
677.5044	98.3647
677.6589	104.5645
677.8133	111.089
677.9677	109.2259
678.1221	110.9685
678.2766	104.8798
678.4309	107.0334
678.5853	102.576
678.7397	102.7082
678.8941	97.98119
679.0485	103.1759
679.2028	105.3636
679.3571	104.8749
679.5115	102.3786
679.6658	105.629
679.8201	102.2957
679.9744	104.942
680.1288	99.80416
680.2831	101.1539
680.4373	106.6215
680.5916	106.2147
680.7459	101.9612
680.9001	103.6962
681.0544	99.69051
681.2087	99.89381
681.3629	104.825
681.5171	103.4617
681.6713	104.2016
681.8256	96.36771
681.9797	98.35937
682.134	98.97511
682.2881	102.1568
682.4423	103.4434
682.5965	98.60703
682.7507	103.9526
682.9048	98.26203
683.059	104.5587
683.2131	106.3471
683.3672	105.0181
683.5213	101.1777
683.6754	97.37012
683.8295	103.3452
683.9836	101.9819
684.1377	96.63893
684.2918	93.51786
684.4459	99.86941
684.5999	93.58185
684.754	90.18679
684.908	93.05466
685.062	101.9817
685.2161	102.176
685.3701	93.60338
685.5241	93.99217
685.6781	97.14574
685.8321	100.5462
685.9861	97.91454
686.14	92.85739
686.294	93.25651
686.4479	96.0256
686.6019	92.35094
686.7559	85.03262
686.9098	73.66023
687.0637	77.6805
687.2176	74.57687
687.3715	74.34789
687.5254	75.82333
687.6793	80.25925
687.8332	87.63126
687.9871	87.33236
688.1409	86.7156
688.2947	89.6749
688.4486	86.92777
688.6024	87.74488
688.7563	91.82876
688.9101	78.22739
689.0639	80.78953
689.2177	83.03591
689.3715	86.86381
689.5253	88.10991
689.6791	86.56065
689.8328	84.52522
689.9866	84.07159
690.1403	87.00064
690.2941	87.27387
690.4478	84.60048
690.6015	81.48434
690.7552	83.29034
690.9089	81.77642
691.0626	84.702
691.2164	84.8842
691.37	91.28265
691.5237	90.66303
691.6774	86.68458
691.831	88.08151
691.9847	85.07423
692.1383	84.3361
692.2919	86.0257
692.4456	89.93481
692.5992	88.60497
692.7527	84.72086
692.9064	82.19948
693.0599	80.34743
693.2136	87.65827
693.3671	86.81693
693.5207	83.18886
693.6742	88.03553
693.8278	86.91927
693.9813	80.95437
694.1348	82.17417
694.2883	82.91565
694.4418	81.44979
694.5953	84.36849
694.7488	85.74472
694.9023	89.19258
695.0558	80.65695
695.2093	86.15915
695.3627	83.59572
695.5162	89.30904
695.6696	89.70833
695.8231	88.45309
695.9764	87.09667
696.1299	77.07697
696.2833	88.5587
696.4367	90.40842
696.5901	88.17846
696.7435	86.18553
696.8968	82.92733
697.0502	85.58542
697.2036	87.54648
697.3569	84.14944
697.5102	77.52097
697.6635	83.40649
697.8168	83.49713
697.9702	85.71147
698.1235	86.10304
698.2768	85.09492
698.4301	87.012
698.5833	89.96318
698.7366	82.89051
698.8898	85.08042
699.0431	80.78449
699.1964	81.21599
699.3495	87.90895
699.5028	85.43923
699.656	82.80602
699.8092	82.38285
699.9624	84.74886
700.1156	84.44661
700.2688	79.17795
700.4219	79.15548
700.5751	84.5216
700.7283	83.57203
700.8814	84.62926
701.0345	84.77223
701.1877	83.23538
701.3408	84.42543
701.4939	80.85986
701.647	77.7812
701.8001	77.14245
701.9532	84.55491
702.1063	80.9759
702.2593	81.48849
702.4124	89.57133
702.5654	82.77886
702.7184	82.25121
702.8715	81.488
703.0245	83.324
703.1776	79.50297
703.3305	84.21642
703.4835	85.07254
703.6365	84.1516
703.7895	82.69983
703.9424	80.38562
704.0954	85.09709
704.2484	86.40118
704.4013	82.947
704.5543	77.80616
704.7072	82.73479
704.8601	88.06016
705.013	86.57254
705.1659	83.55962
705.3188	85.29995
705.4717	86.59228
705.6246	80.38602
705.7774	83.51538
705.9303	84.44557
706.0831	84.4727
706.236	81.84209
706.3888	80.33874
706.5416	82.71575
706.6944	77.93742
706.8472	78.57903
707	82.84327
707.1528	83.13256
707.3056	81.18956
707.4583	87.00247
707.6111	83.14098
707.7639	84.96046
707.9166	83.07655
708.0693	85.74311
708.222	85.37038
708.3748	82.20782
708.5275	79.79515
708.6802	83.88834
708.8328	82.56618
708.9855	80.82002
709.1382	84.8495
709.2909	83.46922
709.4435	83.43224
709.5962	78.4876
709.7488	79.49294
709.9014	83.56561
710.054	85.23562
710.2067	79.84482
710.3593	81.48624
710.5118	85.26598
710.6644	81.02466
710.817	81.74892
710.9695	80.6867
711.1221	72.11961
711.2747	79.96271
711.4272	88.49406
711.5797	80.62592
711.7322	81.41917
711.8848	76.5851
712.0373	76.45921
712.1898	78.86737
712.3422	79.64575
712.4948	81.72617
712.6472	81.07845
712.7996	77.91675
712.9521	78.71291
713.1046	77.58994
713.257	76.03018
713.4094	77.75411
713.5618	81.82478
713.7142	80.7832
713.8666	83.22673
714.019	82.64001
714.1714	81.07445
714.3237	74.66537
714.4761	71.06635
714.6285	76.00979
714.7808	75.8759
714.9331	74.70022
715.0854	73.19758
715.2378	73.18988
715.3901	73.93462
715.5424	77.07255
715.6947	78.10674
715.8469	75.25594
715.9992	76.8596
716.1515	80.10875
716.3037	76.38364
716.456	77.67502
716.6082	68.31271
716.7604	71.85395
716.9127	72.50916
717.0649	72.16019
717.2171	69.99212
717.3693	65.97185
717.5214	64.58909
717.6736	66.59772
717.8258	67.2886
717.978	68.38217
718.1301	68.56661
718.2822	71.10244
718.4344	68.52636
718.5865	65.92422
718.7386	62.28962
718.8907	64.33201
719.0428	65.44727
719.1949	68.02045
719.3469	66.5705
719.499	66.0205
719.6511	63.1083
719.8031	66.02489
719.9551	65.68581
720.1072	65.54945
720.2592	64.41676
720.4112	67.7717
720.5632	64.75054
720.7152	62.04047
720.8672	63.79967
721.0192	70.67587
721.1711	70.85788
721.3231	71.40359
721.475	73.96767
721.627	74.5698
721.7789	71.2094
721.9308	74.08983
722.0828	69.73342
722.2347	72.16529
722.3866	70.33739
722.5385	74.30159
722.6903	72.72179
722.8422	67.43236
722.9941	66.36586
723.1459	69.86778
723.2977	63.99792
723.4496	62.72355
723.6014	55.83046
723.7532	61.71453
723.905	62.63134
724.0568	61.51056
724.2086	67.61246
724.3604	68.55009
724.5121	64.23264
724.6639	64.51835
724.8157	69.44129
724.9674	68.96369
725.1191	68.37373
725.2709	65.94293
725.4226	63.46641
725.5743	64.02115
725.726	67.29649
725.8777	68.40434
726.0294	71.36216
726.181	69.24509
726.3327	66.44477
726.4844	60.0631
726.636	62.8918
726.7877	66.07196
726.9393	69.84003
727.0909	67.32002
727.2425	64.90782
727.3941	61.14928
727.5457	55.63459
727.6973	58.24118
727.8488	56.79352
728.0004	58.62434
728.1519	63.24107
728.3035	74.06519
728.455	67.64971
728.6066	66.28705
728.7581	62.38817
728.9095	63.11934
729.0611	59.30587
729.2126	63.13752
729.364	66.55534
729.5155	63.91088
729.667	62.98647
729.8184	63.94009
729.9698	67.52568
730.1213	65.13816
730.2727	64.30433
730.4241	62.69101
730.5756	60.73186
730.7269	70.66489
730.8784	66.07843
731.0297	62.67209
731.1811	65.06853
731.3325	59.09821
731.4838	67.99875
731.6351	65.2291
731.7865	66.92968
731.9378	64.81787
732.0891	67.03168
732.2404	69.88403
732.3917	69.39365
732.543	68.19871
732.6943	62.68797
732.8456	66.11198
732.9968	65.58697
733.1481	65.75585
733.2993	66.85388
733.4506	69.32713
733.6018	66.90717
733.753	66.41575
733.9042	72.13781
734.0554	73.88453
734.2066	69.75095
734.3578	68.04673
734.509	63.76461
734.6602	74.48756
734.8113	68.77004
734.9624	70.35262
735.1136	67.97303
735.2647	65.71165
735.4158	60.71937
735.5669	67.76941
735.718	69.7964
735.8691	69.39754
736.0201	63.81253
736.1713	69.43127
736.3223	69.37337
736.4733	66.04518
736.6244	63.49791
736.7755	69.32986
736.9265	70.14019
737.0775	62.04192
737.2285	66.76031
737.3795	69.47253
737.5305	67.94504
737.6815	63.25717
737.8324	65.15986
737.9834	69.53854
738.1343	66.55119
738.2853	68.21983
738.4362	69.54034
738.5871	69.62717
738.738	62.66185
738.8889	62.55585
739.0399	61.3416
739.1907	66.05149
739.3416	67.52743
739.4925	63.50695
739.6433	65.8987
739.7942	63.56437
739.945	68.63388
740.0958	68.1496
740.2467	68.73596
740.3975	68.39478
740.5483	70.70417
740.6991	64.85876
740.8499	64.20339
741.0007	57.84982
741.1514	61.41651
741.3022	63.89058
741.4529	61.64918
741.6036	65.34689
741.7544	64.39254
741.9051	61.5197
742.0558	66.20396
742.2065	58.28619
742.3572	65.99081
742.5079	72.55031
742.6586	65.01086
742.8093	65.2585
742.9599	61.09548
743.1105	62.56817
743.2612	68.78015
743.4118	67.15772
743.5624	64.34943
743.7131	65.9647
743.8636	66.26533
744.0142	65.7425
744.1648	61.98975
744.3154	61.59773
744.4659	62.84873
744.6165	65.57285
744.767	65.21358
744.9176	61.41184
745.0681	62.39468
745.2186	65.94017
745.3691	69.59396
745.5197	65.1341
745.6702	60.34308
745.8206	64.30092
745.9711	65.27115
746.1215	59.54753
746.272	60.22769
746.4224	64.73771
746.5729	66.22343
746.7233	64.0438
746.8737	62.09981
747.0241	60.13398
747.1745	61.4782
747.3249	61.45897
747.4753	66.02361
747.6257	67.9633
747.776	64.21297
747.9264	64.78853
748.0767	60.46162
748.2271	60.00843
748.3774	64.26476
748.5276	65.68613
748.678	61.02663
748.8282	62.12247
748.9786	63.18838
749.1288	64.14598
749.2791	62.78572
749.4294	63.5823
749.5796	58.36713
749.7299	60.79105
749.8801	54.65616
750.0303	65.82235
750.1805	64.97709
750.3307	63.5265
750.4809	60.68385
750.6311	55.95579
750.7813	58.42129
750.9314	62.51806
751.0816	66.01149
751.2318	58.0223
751.3818	58.2851
751.532	51.67756
751.6821	62.43593
751.8322	60.0061
751.9823	56.05712
752.1324	59.27393
752.2825	55.4313
752.4326	60.82562
752.5826	62.53424
752.7327	60.81145
752.8827	59.63167
753.0327	54.84751
753.1827	53.87176
753.3328	60.52858
753.4828	56.28545
753.6328	58.96376
753.7828	62.30521
753.9327	57.81806
754.0827	56.36895
754.2327	56.53489
754.3826	59.69761
754.5325	56.65491
754.6825	57.3919
754.8324	51.31786
754.9823	59.37236
755.1322	55.15525
755.2821	56.82533
755.432	58.41206
755.5818	55.58166
755.7318	58.5783
755.8816	55.13246
756.0314	56.37627
756.1813	54.93969
756.3311	52.83898
756.4809	55.17826
756.6307	52.75269
756.7805	54.62492
756.9303	56.97308
757.0801	55.92795
757.2299	53.72972
757.3796	55.70249
757.5294	55.209
757.6791	54.88061
757.8289	54.76258
757.9786	59.43024
758.1283	53.0071
758.278	54.2899
758.4277	50.08348
758.5773	47.01313
758.7271	53.4465
758.8767	58.46757
759.0264	48.84406
759.176	54.34772
759.3256	57.97153
759.4753	45.02439
759.6249	38.60539
759.7745	34.15704
759.9241	35.43249
760.0737	29.80221
760.2233	28.59016
760.3729	31.51759
760.5224	26.99819
760.6719	29.29237
760.8215	31.39447
760.971	27.14621
761.1205	28.98336
761.2701	26.16381
761.4196	29.73302
761.5691	32.69563
761.7186	33.23944
761.868	34.60065
762.0175	40.02478
762.167	42.40441
762.3164	38.80724
762.4659	30.2929
762.6153	35.26242
762.7647	29.78973
762.9141	27.52779
763.0635	35.68454
763.2129	34.84575
763.3623	36.16255
763.5117	32.12836
763.661	31.23875
763.8104	33.4988
763.9597	36.55775
764.1091	38.7061
764.2584	36.51343
764.4077	32.67484
764.557	38.16757
764.7063	35.71575
764.8556	34.44394
765.0049	34.30334
765.1541	39.37294
765.3034	45.92549
765.4526	43.0155
765.6019	36.60394
765.7511	39.91032
765.9003	44.10329
766.0496	43.04319
766.1987	46.09405
766.348	44.21573
766.4971	42.9341
766.6463	43.86633
766.7955	44.11699
766.9446	41.70528
767.0938	48.52901
767.2429	49.91636
767.392	46.50106
767.5411	44.25259
767.6902	50.24896
767.8394	48.32527
767.9884	44.12181
768.1375	43.7716
768.2866	47.30723
768.4356	46.26458
768.5847	49.22043
768.7337	43.02829
768.8828	44.5851
769.0317	45.16181
769.1808	47.1466
769.3298	49.77853
769.4788	48.0379
769.6277	43.92243
769.7767	47.05437
769.9257	49.29436
770.0746	53.26242
770.2236	52.75127
770.3725	45.40928
770.5214	46.78941
770.6703	46.31577
770.8193	44.17198
770.9681	47.584
771.1171	46.00297
771.2659	48.05763
771.4148	48.92062
771.5637	43.76574
771.7125	45.67152
771.8613	44.80392
772.0101	46.91472
772.159	47.63273
772.3078	46.6242
772.4566	46.63704
772.6054	46.25053
772.7542	41.75469
772.903	45.51848
773.0517	40.16842
773.2004	41.50796
773.3492	43.60144
773.4979	48.82215
773.6467	45.59543
773.7953	43.34611
773.944	49.59721
774.0928	45.13454
774.2415	46.06233
774.3901	51.51321
774.5388	46.88182
774.6874	43.49232
774.8361	47.71107
774.9847	48.16532
775.1334	42.81499
775.282	44.50389
775.4305	43.02903
775.5792	39.29237
775.7277	42.95821
775.8763	45.21991
776.0249	41.45796
776.1735	38.25642
776.322	42.1709
776.4705	42.2775
776.6191	42.71136
776.7676	42.05798
776.9161	45.96895
777.0646	45.99955
777.2131	45.94325
777.3616	44.33673
777.5101	50.76804
777.6585	48.36462
777.8069	43.29385
777.9554	41.08887
778.1038	46.19735
778.2523	47.08191
778.4007	43.51049
778.5491	46.12334
778.6974	45.35955
778.8459	46.72408
778.9942	42.05766
779.1426	38.90887
779.291	38.87346
779.4393	45.22853
779.5876	44.75234
779.736	43.89138
779.8843	44.9445
780.0326	40.16257
780.1809	43.00022
780.3292	45.9468
780.4775	44.43669
780.6257	44.94328
780.774	45.92513
780.9222	40.07192
781.0704	40.37548
781.2187	38.18609
781.3669	38.08799
781.5151	39.1697
781.6633	39.29861
781.8115	42.41005
781.9597	47.5505
782.1078	37.96264
782.256	37.60444
782.4042	40.61107
782.5523	38.29469
782.7004	44.14579
782.8486	38.8981
782.9967	34.71317
783.1448	36.61185
783.2929	35.94334
783.441	43.4792
783.5891	40.32492
783.7371	36.63576
783.8851	35.3912
784.0332	38.30875
784.1812	42.16891
784.3293	42.58719
784.4773	38.21148
784.6253	40.56295
784.7733	34.84861
784.9213	37.26754
785.0692	38.6481
785.2172	39.85321
785.3652	41.04766
785.5131	37.8003
785.6611	35.13934
785.809	35.59505
785.9569	39.8562
786.1048	40.06924
786.2527	39.03716
786.4006	38.05754
786.5485	38.0988
786.6964	37.94143
786.8442	39.49234
786.9921	37.51684
787.1399	39.14156
787.2877	42.03756
787.4355	36.14932
787.5833	35.40499
787.7311	38.14776
787.8789	40.33268
788.0267	33.88186
788.1745	41.82513
788.3223	38.96842
788.47	38.2943
788.6177	40.94061
788.7654	34.94255
788.9132	31.47127
789.0609	34.34395
789.2086	32.72021
789.3563	30.69621
789.504	36.38339
789.6517	37.35754
789.7993	37.20513
789.947	33.34528
790.0946	32.76567
790.2422	33.58985
790.3898	34.58949
790.5375	37.87666
790.6851	38.4951
790.8326	38.84629
790.9802	34.84616
791.1278	38.03539
791.2754	38.98028
791.423	38.59401
791.5705	42.12634
791.718	39.22074
791.8655	34.54684
792.0131	37.18468
792.1606	32.80126
792.308	37.41064
792.4556	32.71137
792.603	35.05799
792.7505	39.46778
792.8979	37.50153
793.0454	33.43581
793.1928	30.93797
793.3403	37.79919
793.4877	35.08735
793.6351	36.44598
793.7825	38.05877
793.9299	33.86488
794.0772	33.99144
794.2246	36.79083
794.3719	38.09111
794.5193	33.01689
794.6666	35.43353
794.814	32.70402
794.9613	36.26491
795.1086	37.23366
795.2559	31.93851
795.4032	29.31956
795.5505	32.67268
795.6978	35.49582
795.845	31.82602
795.9922	34.81418
796.1395	32.52362
796.2867	31.68899
796.4339	34.18204
796.5811	37.07935
796.7283	32.00996
796.8755	35.38999
797.0227	32.17185
797.1699	33.86602
797.317	35.48014
797.4642	36.27722
797.6113	38.37127
797.7584	33.66289
797.9056	35.29972
798.0527	34.17001
798.1998	29.5868
798.3469	32.08295
798.494	33.6473
798.641	33.92378
798.7881	33.67602
798.9351	33.93055
799.0822	32.02164
799.2292	32.66255
799.3762	35.2588
799.5232	37.2156
799.6702	37.98764
799.8172	33.22169
799.9642	29.91868
800.1111	33.90011
800.2581	33.80796
800.4051	32.98271
800.552	35.72412
800.6989	35.07582
800.8458	31.66084
800.9927	34.15919
801.1396	34.46472
801.2866	32.54118
801.4334	33.36567
801.5803	32.99512
801.7272	32.39421
801.874	31.94553
802.0209	33.99717
802.1677	32.41156
802.3145	31.20458
802.4613	31.06602
802.6081	28.89578
802.7549	30.47856
802.9017	32.21322
803.0485	33.53985
803.1952	33.9665
803.342	35.57302
803.4887	36.19141
803.6354	31.31683
803.7822	34.82915
803.9289	35.64016
804.0756	37.69978
804.2223	28.88889
804.369	31.55867
804.5156	30.62962
804.6623	29.42132
804.8089	33.24674
804.9556	28.48556
805.1022	28.02262
805.2488	25.2565
805.3954	26.69829
805.542	28.904
805.6886	29.797
805.8352	37.41758
805.9818	32.96037
806.1283	29.31255
806.2749	31.41425
806.4214	26.02781
806.5679	29.58852
806.7145	32.71102
806.861	34.47687
807.0074	29.09242
807.154	30.95647
807.3004	32.28426
807.4469	37.02509
807.5934	31.7166
807.7398	34.29349
807.8862	34.2099
808.0327	32.49929
808.1791	29.35345
808.3255	27.85633
808.4719	29.95635
808.6183	32.85081
808.7647	28.87473
808.9111	27.71288
809.0574	25.20779
809.2037	30.43203
809.3501	29.38504
809.4965	27.22489
809.6428	26.20099
809.7891	32.73042
809.9354	26.64251
810.0817	29.94108
810.2279	29.51294
810.3742	31.35682
810.5204	34.01389
810.6667	30.20708
810.8129	28.16539
810.9592	28.93735
811.1054	31.26483
811.2516	26.83554
811.3978	29.73308
811.5439	28.43767
811.6901	28.62826
811.8363	28.40261
811.9825	26.30698
812.1286	29.02335
812.2748	28.10004
812.4209	30.12881
812.567	25.95543
812.7131	29.83755
812.8592	27.54502
813.0053	27.54825
813.1514	28.9439
813.2974	26.22224
813.4435	23.83206
813.5895	22.90411
813.7356	23.68636
813.8816	26.70001
814.0276	21.56463
814.1736	27.85199
814.3196	22.63665
814.4656	23.32567
814.6116	21.69636
814.7576	25.18036
814.9035	28.79683
815.0494	24.83771
815.1954	20.8364
815.3413	25.44245
815.4872	26.75821
815.6331	26.49332
815.779	24.54397
815.9249	26.39135
816.0707	20.41796
816.2166	21.646
816.3625	22.95989
816.5083	25.571
816.6542	23.75431
816.8	28.98195
816.9458	21.88318
817.0916	24.62356
817.2374	26.18695
817.3832	26.39211
817.5289	22.92266
817.6747	22.18183
817.8204	21.11095
817.9662	24.13657
818.1119	24.64726
818.2576	24.50979
818.4034	23.58207
818.5491	22.79056
818.6948	22.74657
818.8405	23.66319
818.9861	21.05319
819.1318	20.50172
819.2774	26.52677
819.423	27.42224
819.5687	25.19678
819.7143	26.8537
819.8599	18.94985
820.0055	26.14532
820.1511	26.36108
820.2967	23.88182
820.4422	23.47973
820.5878	24.6412
820.7333	23.84449
820.8788	28.07713
821.0244	22.34229
821.1699	23.33936
821.3154	21.49413
821.4609	23.13911
821.6064	20.90733
821.7519	23.80577
821.8973	24.77725
822.0428	30.06728
822.1882	25.16835
822.3337	24.66914
822.4791	20.77948
822.6245	24.17477
822.7699	22.81774
822.9153	21.41023
823.0607	21.53987
823.2061	17.50415
823.3514	20.10815
823.4968	18.04895
823.6422	18.68883
823.7875	24.97525
823.9328	20.00338
824.0781	22.32359
824.2234	18.62197
824.3687	18.60816
824.514	23.6505
824.6592	21.90731
824.8045	24.98504
824.9498	24.41659
825.095	22.78239
825.2402	25.06021
825.3854	22.84708
825.5306	18.89812
825.6758	23.85309
825.821	22.42513
825.9662	20.75387
826.1114	21.79472
826.2565	25.16343
826.4017	25.02378
826.5468	21.22488
826.692	21.95557
826.837	27.68457
826.9822	25.70401
827.1273	22.11613
827.2723	19.72182
827.4174	20.33702
827.5625	21.10859
827.7075	17.62264
827.8526	23.20799
827.9976	21.32432
828.1426	21.18842
828.2877	16.9687
828.4327	22.06461
828.5776	25.57644
828.7227	22.34751
828.8676	24.01219
829.0126	19.84436
829.1575	16.02684
829.3024	18.96999
829.4474	19.4174
829.5923	13.79647
829.7372	15.30244
829.8821	18.5499
830.027	18.84167
830.1719	19.08698
830.3168	22.20091
830.4616	21.2505
830.6064	19.71584
830.7513	18.62144
830.8961	21.4613
831.041	23.72056
831.1857	26.59976
831.3306	20.85241
831.4753	21.15076
831.6201	20.39918
831.7649	18.31924
831.9096	20.13945
832.0544	22.40487
832.1991	15.49837
832.3438	20.11597
832.4885	19.29636
832.6332	21.09699
832.778	25.05154
832.9226	22.30725
833.0673	20.1327
833.2119	17.34199
833.3566	19.69018
833.5012	22.46302
833.6459	21.94131
833.7905	25.78132
833.9351	21.36148
834.0797	22.50386
834.2243	17.58257
834.3688	21.96439
834.5134	22.31732
834.658	20.59599
834.8026	22.54887
834.9471	20.02245
835.0916	22.39907
835.2361	25.04417
835.3806	30.69907
835.5251	28.83797
835.6696	26.10633
835.8141	17.59319
835.9586	22.44798
836.103	19.82989
836.2474	20.83608
836.3918	18.02396
836.5363	16.25493
836.6807	19.76665
836.8251	19.36962
836.9695	18.56693
837.1138	22.6741
837.2582	19.75324
837.4026	21.45098
837.5469	20.76676
837.6913	20.44492
837.8356	20.4219
837.9799	18.55983
838.1242	18.72478
838.2686	19.14862
838.4128	20.31486
838.5571	20.5778
838.7014	16.36712
838.8456	17.45254
838.9899	18.27258
839.1341	19.51464
839.2783	22.7802
839.4225	19.20567
839.5667	19.93601
839.7109	19.17509
839.8551	20.84964
839.9993	24.08243
840.1434	19.39044
840.2876	21.85298
840.4317	18.82398
840.5759	19.43928
840.72	20.59881
840.8641	21.41057
841.0082	18.57897
841.1523	19.1407
841.2963	22.61249
841.4404	22.34245
841.5845	19.50445
841.7285	18.08632
841.8726	18.73961
842.0165	18.77357
842.1606	21.56153
842.3046	18.83257
842.4485	19.28835
842.5925	22.20743
842.7365	17.8246
842.8805	13.47752
843.0244	18.31786
843.1684	23.08537
843.3123	21.62049
843.4562	20.23153
843.6002	20.71585
843.744	20.20951
843.8879	21.87251
844.0318	19.39864
844.1757	17.52274
844.3195	25.34759
844.4634	25.99194
844.6072	18.74387
844.751	18.57686
844.8948	16.94171
845.0386	21.53621
845.1824	20.62302
845.3262	18.17474
845.47	20.18484
845.6138	25.16596
845.7575	21.18288
845.9012	18.13522
846.045	18.71262
846.1887	16.24687
846.3324	17.48276
846.4761	18.77521
846.6198	13.56855
846.7635	19.64038
846.9071	23.66439
847.0508	18.33283
847.1944	17.37523
847.3381	19.02099
847.4817	17.25734
847.6253	19.0867
847.7689	16.56569
847.9125	14.63072
848.0561	19.10419
848.1996	23.19417
848.3432	24.36075
848.4868	19.67432
848.6303	19.1108
848.7738	14.20294
848.9174	18.29244
849.0609	20.52614
849.2043	19.62791
849.3478	18.66323
849.4913	19.92244
849.6348	19.30912
849.7782	17.50172
849.9217	16.25128
850.0651	20.74064
850.2086	20.54161
850.3519	15.81867
850.4954	16.82399
850.6387	16.19239
850.7821	13.81741
850.9255	16.69837
851.0688	15.84981
851.2122	20.64773
851.3555	17.99767
851.4988	17.09097
851.6422	22.41226
851.7855	16.22952
851.9288	14.74736
852.0721	19.19659
852.2153	15.32221
852.3586	20.0421
852.5018	17.36297
852.6451	14.67752
852.7883	16.40774
852.9315	11.46647
853.0748	22.48426
853.218	22.38911
853.3611	17.88202
853.5043	18.25908
853.6475	15.54799
853.7906	14.02173
853.9338	14.4298
854.0769	13.76278
854.22	12.46456
854.3632	11.88473
854.5063	11.19476
854.6494	11.77091
854.7924	14.16692
854.9355	19.17083
855.0786	17.72893
855.2216	16.8525
855.3647	18.3997
855.5077	16.12016
855.6507	19.43371
855.7937	15.81082
855.9367	17.39606
856.0797	18.64241
856.2227	16.31703
856.3657	17.6908
856.5086	17.9096
856.6516	20.23531
856.7945	21.29162
856.9374	19.77072
857.0803	18.13247
857.2232	15.69436
857.3661	18.84339
857.509	21.96506
857.6519	14.49074
857.7947	17.83155
857.9376	13.85924
858.0804	16.1061
858.2232	18.39133
858.366	14.19198
858.5089	16.0824
858.6516	14.79521
858.7944	15.01141
858.9372	17.32885
859.08	15.37381
859.2227	15.50108
859.3654	17.68836
859.5082	17.8061
859.6509	21.56253
859.7936	18.94254
859.9363	19.05079
860.079	16.6868
860.2217	17.59506
860.3643	17.97454
860.507	18.22592
860.6496	21.16009
860.7922	11.10779
860.9349	12.73364
861.0775	15.59709
861.2201	18.41063
861.3627	14.40865
861.5052	19.7225
861.6478	20.50103
861.7904	16.40193
861.9329	19.75779
862.0755	16.54972
862.218	15.61835
862.3605	16.44492
862.503	16.25174
862.6455	17.5703
862.788	16.60209
862.9305	17.67663
863.0729	18.31856
863.2154	14.58395
863.3578	10.83889
863.5002	11.60578
863.6426	15.73298
863.7851	13.86843
863.9275	16.11312
864.0698	17.59962
864.2122	14.38945
864.3546	16.11382
864.4969	15.2836
864.6393	12.34487
864.7816	12.50321
864.924	14.14155
865.0662	17.39584
865.2086	14.11345
865.3508	14.22226
865.4931	13.84663
865.6354	14.3422
865.7776	15.80287
865.9199	11.73855
866.0621	11.20726
866.2043	8.64017
866.3466	10.10977
866.4888	8.959805
866.6309	11.44422
866.7731	14.92764
866.9153	16.50825
867.0574	16.03779
867.1996	17.03373
867.3417	15.37309
867.4839	14.66055
867.626	15.01846
867.7681	12.90915
867.9102	16.42225
868.0522	8.859869
868.1943	15.85874
868.3364	14.52265
868.4785	11.1012
868.6205	14.37897
868.7625	14.32654
868.9045	12.98613
869.0465	14.47216
869.1885	17.44725
869.3305	12.98632
869.4725	11.32907
869.6144	9.259151
869.7564	14.60881
869.8983	15.9854
870.0403	17.28274
870.1822	16.83437
870.3241	15.32271
870.466	15.37906
870.6079	10.73824
870.7498	17.23774
870.8916	16.78552
871.0335	20.18295
871.1754	19.17308
871.3171	16.62998
871.459	16.60012
871.6008	14.945
871.7426	14.78127
871.8844	19.61784
872.0262	17.9797
872.1679	13.70023
872.3097	14.54245
872.4514	14.28042
872.5931	12.83772
872.7349	13.02416
872.8766	12.76081
873.0183	16.75333
873.16	16.90956
873.3017	17.88811
873.4434	12.63356
873.585	13.74929
873.7266	15.07727
873.8683	13.18921
874.0099	12.18654
874.1516	12.40526
874.2932	13.85846
874.4348	15.86932
874.5763	12.71341
874.7179	16.85932
874.8594	16.29101
875.001	13.82967
875.1425	15.5706
875.2841	15.62246
875.4256	10.97258
875.5671	15.39899
875.7086	14.14963
875.85	8.519364
875.9915	12.01485
876.133	13.85257
876.2744	15.01885
876.4159	10.61489
876.5573	13.18412
876.6987	12.36562
876.8401	13.64958
876.9815	16.26968
877.1229	12.37895
877.2643	11.93088
877.4056	13.4412
877.547	9.513818
877.6884	8.635458
877.8297	10.32624
877.971	10.26204
878.1123	13.00278
878.2536	6.304714
878.3949	11.76878
878.5362	14.20465
878.6774	14.63235
878.8187	11.51761
878.9599	13.56806
879.1011	16.03992
879.2424	15.77268
879.3836	10.46226
879.5248	12.44944
879.666	14.36533
879.8071	13.51591
879.9483	11.62984
880.0895	12.434
880.2306	12.71113
880.3718	9.233354
880.5129	10.42402
880.654	14.48868
880.7951	13.0858
880.9362	14.32865
881.0773	13.44713
881.2183	14.40179
881.3594	14.42974
881.5004	13.98888
881.6414	15.12124
881.7825	10.63842
881.9235	10.57607
882.0645	13.20491
882.2054	10.2382
882.3464	14.74763
882.4874	13.70276
882.6284	11.34562
882.7693	11.88999
882.9103	15.08608
883.0512	11.89473
883.1921	7.643607
883.333	11.8938
883.4739	15.92362
883.6147	14.53235
883.7556	15.63787
883.8965	13.52452
884.0374	11.8741
884.1782	9.853802
884.319	11.08551
884.4598	13.48547
884.6006	16.13415
884.7414	13.16528
884.8822	12.19008
885.0229	11.61677
885.1637	14.38377
885.3044	11.78076
885.4452	12.78754
885.5859	10.51353
885.7266	6.619391
885.8673	10.48455
886.008	9.106425
886.1487	14.05524
886.2894	12.07106
886.43	8.956453
886.5707	10.20511
886.7113	8.622113
886.8519	13.96255
886.9926	7.828925
887.1331	9.733153
887.2737	11.63648
887.4143	13.46542
887.5549	14.43504
887.6954	8.479878
887.836	14.79892
887.9765	8.759191
888.1171	16.46701
888.2576	10.26521
888.3981	11.58703
888.5386	11.0217
888.679	14.24638
888.8195	11.41382
888.96	10.74451
889.1004	13.32198
889.2408	11.23932
889.3813	13.70187
889.5217	12.86689
889.6621	12.93499
889.8025	11.79947
889.9429	10.41887
890.0833	10.30712
890.2236	8.47251
890.364	11.94595
890.5043	14.60294
890.6446	11.07662
890.7849	15.13269
890.9252	8.47861
891.0655	10.42372
891.2058	9.962879
891.3461	7.287213
891.4863	8.301259
891.6266	8.614864
891.7668	13.72507
891.907	14.78226
892.0472	10.98472
892.1874	11.04413
892.3276	11.14235
892.4678	12.15557
892.608	12.99723
892.7481	13.80606
892.8883	10.36264
893.0284	11.02899
893.1685	13.40923
893.3087	8.786409
893.4487	13.18855
893.5889	9.566103
893.7289	9.260623
893.869	12.30793
894.009	10.00504
894.1491	12.92001
894.2891	11.05582
894.4291	10.43652
894.5692	11.16269
894.7092	6.537236
894.8491	10.42589
894.9891	12.42946
895.1291	10.06554
895.269	3.639232
895.409	5.484245
895.549	7.973168
895.6888	5.589167
895.8288	9.521527
895.9687	10.5556
896.1086	12.98112
896.2484	8.667594
896.3883	8.742551
896.5281	9.068232
896.668	7.704439
896.8079	8.060531
896.9476	13.06649
897.0875	9.523648
897.2272	6.66709
897.3671	6.425942
897.5068	6.255543
897.6466	4.815051
897.7864	3.869082
897.9261	8.100894
898.0658	9.78962
898.2056	13.19322
898.3453	14.87281
898.4849	9.141238
898.6246	13.0148
898.7643	12.21295
898.904	11.78277
899.0436	11.26097
899.1833	5.833415
899.3229	6.577563
899.4625	6.490253
899.6021	10.75898
899.7417	10.53632
899.8813	6.155241
900.0209	7.445846
900.1605	13.35454
900.3	9.479621
900.4395	6.164185
900.579	4.668259
900.7186	4.157674
900.8581	6.518453
900.9976	5.606015
901.1371	10.84276
901.2766	9.404552
901.416	8.192971
901.5555	11.49496
901.6949	8.506401
901.8344	3.579193
901.9738	6.402607
902.1132	12.05903
902.2526	9.247115
902.3919	11.41465
902.5313	13.22482
902.6707	11.98848
