SPECTRUM DATA FILE
SpectrumCount:	1
PixelCount:	3648
UserName:	ToughBook User
SampleName:	
LightSource:	
Comments:	
DeviceName:	Qwave
DeviceManufacturer:	Broadcom
DeviceSerialNo:	11311

Name:	last spectrum
Date:	2024-05-02T15:02:48.6840852+02:00
ExposureTime:	0.02
TemporalAvg:	1
IntensityUnit:	normalizedCounts
CCDLoadLevel:	0.05269914
Temperature:	29.44586
DiagramColor:	200
ProcessingSteps:	335

Wavelength [nm]	Intensity1
334.421	14.32222
334.5891	14.572
334.7573	8.05379
334.9254	10.90644
335.0935	14.49019
335.2616	12.10633
335.4297	14.65708
335.5978	12.54191
335.7659	13.21866
335.934	9.799104
336.1021	12.31026
336.2701	15.99509
336.4382	16.38111
336.6063	14.52713
336.7744	12.55614
336.9424	10.72652
337.1105	14.64998
337.2785	12.18724
337.4466	11.2191
337.6146	14.20663
337.7827	10.33455
337.9507	13.26773
338.1187	12.63112
338.2867	11.33811
338.4548	12.01082
338.6228	9.671539
338.7908	10.88878
338.9588	7.322408
339.1268	13.42687
339.2948	11.1685
339.4628	12.78484
339.6308	12.21433
339.7988	9.136361
339.9667	13.0033
340.1347	11.7892
340.3027	11.8538
340.4707	11.74814
340.6386	15.55654
340.8066	11.87825
340.9745	10.85571
341.1425	13.10473
341.3104	14.96969
341.4784	14.60568
341.6463	7.096634
341.8142	10.39591
341.9821	15.05359
342.1501	13.64168
342.318	11.27363
342.4859	16.4317
342.6538	11.05184
342.8217	12.14901
342.9896	14.00783
343.1575	13.13872
343.3254	15.24795
343.4933	10.41627
343.6612	8.229754
343.829	10.46429
343.9969	13.73905
344.1648	14.11966
344.3326	12.79653
344.5005	17.61761
344.6683	13.84837
344.8362	9.533467
345.004	8.653681
345.1719	15.35835
345.3397	14.95989
345.5075	15.17121
345.6754	14.87947
345.8432	14.0416
346.011	16.33936
346.1788	13.77909
346.3466	10.70254
346.5144	14.3154
346.6822	13.87572
346.85	17.35284
347.0178	16.5159
347.1856	12.44844
347.3534	13.16373
347.5211	15.91807
347.6889	13.95027
347.8567	13.62793
348.0244	16.74678
348.1922	14.7036
348.3599	11.81749
348.5277	15.00181
348.6954	14.07891
348.8632	13.70995
349.0309	10.05653
349.1986	16.42878
349.3663	15.70437
349.5341	12.17742
349.7018	13.49409
349.8695	15.34233
350.0372	13.70203
350.2049	13.81085
350.3726	14.31158
350.5403	10.81046
350.7079	11.7983
350.8756	12.31406
351.0433	15.21552
351.211	15.70225
351.3786	16.34134
351.5463	18.95358
351.714	20.60144
351.8816	16.51901
352.0493	18.68511
352.2169	15.28502
352.3846	13.36842
352.5522	16.25311
352.7198	15.89919
352.8875	15.80804
353.0551	12.01753
353.2227	16.48088
353.3903	17.4314
353.5579	17.96032
353.7255	15.02412
353.8931	12.96672
354.0607	15.84693
354.2283	15.74026
354.3958	18.03467
354.5634	19.07029
354.731	24.59386
354.8986	18.56683
355.0661	21.90732
355.2337	15.84929
355.4012	20.60242
355.5688	20.09155
355.7363	17.69147
355.9039	15.81077
356.0714	16.89439
356.239	23.98576
356.4065	19.21752
356.574	21.21199
356.7415	15.91501
356.909	15.51117
357.0765	12.80448
357.244	12.19486
357.4115	17.04142
357.579	18.25539
357.7465	15.77346
357.914	10.20479
358.0815	13.00991
358.249	15.61771
358.4164	13.62621
358.5839	19.86204
358.7513	11.97483
358.9188	13.05106
359.0862	16.8931
359.2537	21.04531
359.4211	15.14782
359.5886	18.72136
359.756	19.54739
359.9234	18.53986
360.0909	17.46752
360.2583	16.64791
360.4257	19.94491
360.5931	19.29617
360.7605	17.75117
360.9279	16.74673
361.0953	16.15541
361.2627	16.87271
361.4301	20.81913
361.5974	17.69302
361.7648	18.31324
361.9322	17.4256
362.0995	18.18952
362.2669	17.51083
362.4343	18.22177
362.6016	18.75854
362.769	18.87337
362.9363	21.26452
363.1036	22.02936
363.271	22.4618
363.4383	20.29407
363.6056	20.26367
363.7729	24.79486
363.9402	22.85214
364.1075	21.32461
364.2748	16.18166
364.4421	21.2407
364.6094	21.01223
364.7767	18.41037
364.944	17.82954
365.1113	24.93409
365.2786	20.93635
365.4458	20.4653
365.6131	25.02842
365.7803	23.50904
365.9476	23.64145
366.1148	21.9932
366.2821	21.78428
366.4493	23.24594
366.6166	22.97148
366.7838	21.20712
366.951	20.53266
367.1182	20.63543
367.2855	22.90068
367.4527	25.84398
367.6199	29.48833
367.7871	27.28275
367.9543	24.04797
368.1215	18.72938
368.2886	21.61868
368.4558	22.18045
368.623	17.57688
368.7902	23.41731
368.9573	19.50405
369.1245	26.09624
369.2917	28.30204
369.4588	24.22361
369.6259	26.84786
369.7931	24.20487
369.9602	24.4183
370.1274	26.29026
370.2945	21.1749
370.4616	25.26772
370.6287	20.49223
370.7958	22.40234
370.963	22.48826
371.1301	24.97274
371.2971	27.78142
371.4643	27.5695
371.6313	29.2443
371.7984	24.95178
371.9655	23.13811
372.1326	23.83791
372.2997	22.17904
372.4667	23.77666
372.6338	27.09306
372.8008	21.64915
372.9679	22.98267
373.1349	22.73344
373.3019	23.91838
373.469	24.95329
373.636	22.6688
373.803	19.53669
373.9701	24.17269
374.1371	23.78433
374.3041	22.23901
374.4711	24.65675
374.6381	25.3492
374.8051	21.29965
374.9721	28.63915
375.1391	28.01101
375.3061	25.17488
375.473	26.30923
375.64	24.22951
375.8069	27.47654
375.9739	23.93161
376.1409	25.97983
376.3078	25.53632
376.4748	30.68891
376.6417	28.93594
376.8087	27.19437
376.9756	26.7433
377.1425	21.49294
377.3094	30.02254
377.4763	30.09372
377.6432	33.57259
377.8102	29.95878
377.9771	29.07788
378.144	30.3858
378.3109	29.57351
378.4777	30.69886
378.6446	31.50818
378.8115	27.63902
378.9784	27.63845
379.1452	26.44928
379.3121	27.69758
379.4789	24.73144
379.6458	25.72066
379.8127	29.16087
379.9795	28.53653
380.1463	26.99767
380.3131	29.34656
380.48	29.53961
380.6468	33.48376
380.8136	33.07835
380.9804	33.01749
381.1472	32.54247
381.314	30.21852
381.4808	26.24474
381.6476	25.65349
381.8144	26.01984
381.9812	25.00251
382.148	26.27571
382.3147	32.50694
382.4815	25.01387
382.6483	21.49143
382.815	20.13691
382.9818	19.48687
383.1485	25.10986
383.3153	25.58359
383.482	23.99347
383.6487	24.58815
383.8155	21.1622
383.9822	25.00738
384.1489	28.44312
384.3156	28.31276
384.4823	31.22786
384.649	34.24736
384.8157	38.30415
384.9824	32.86215
385.1491	27.97295
385.3158	30.63774
385.4825	36.11702
385.6491	30.92424
385.8158	31.544
385.9825	31.94143
386.1491	27.23132
386.3157	30.02321
386.4824	34.27966
386.649	31.66827
386.8157	31.1889
386.9823	30.85505
387.1489	27.76806
387.3156	28.0526
387.4821	31.44685
387.6488	38.3698
387.8154	33.0427
387.982	30.05605
388.1486	32.49697
388.3152	32.22313
388.4818	32.43399
388.6483	30.87818
388.8149	29.07083
388.9815	28.30078
389.148	34.84641
389.3146	39.65657
389.4811	39.5718
389.6477	39.91175
389.8142	35.22663
389.9808	36.52337
390.1473	39.71585
390.3138	38.05796
390.4804	40.04613
390.6469	36.87441
390.8134	39.99691
390.9799	36.96985
391.1464	44.22909
391.3129	44.40844
391.4794	41.51603
391.6459	42.03819
391.8124	40.0796
391.9789	34.02484
392.1453	39.08534
392.3118	35.73589
392.4782	36.77747
392.6447	33.9539
392.8112	33.84742
392.9776	26.99688
393.144	26.68734
393.3105	22.0406
393.4769	22.35272
393.6433	23.75343
393.8098	26.54583
393.9762	29.98372
394.1426	32.91469
394.309	38.87339
394.4754	32.74102
394.6418	44.45366
394.8082	44.45831
394.9746	47.15292
395.141	43.47031
395.3073	45.69187
395.4737	43.23296
395.64	43.73344
395.8064	43.11804
395.9728	44.07381
396.1391	38.93689
396.3055	31.29188
396.4718	33.18318
396.6381	29.23492
396.8045	28.48867
396.9708	27.71951
397.1371	30.07873
397.3034	33.34558
397.4697	35.79861
397.636	47.06076
397.8023	50.3561
397.9686	47.94449
398.1349	50.67509
398.3012	53.4554
398.4675	50.1004
398.6337	57.52143
398.8	61.39067
398.9662	59.58067
399.1325	54.994
399.2988	56.44963
399.465	56.71355
399.6313	57.845
399.7975	57.14373
399.9637	50.86227
400.1299	57.49186
400.2961	63.27009
400.4624	61.53155
400.6286	49.39225
400.7948	57.63396
400.961	64.17738
401.1272	60.58613
401.2934	56.61761
401.4595	58.83256
401.6257	67.04571
401.7919	63.28308
401.9581	59.74117
402.1242	62.58672
402.2904	61.55104
402.4565	59.00791
402.6227	59.27192
402.7888	65.11519
402.955	59.12292
403.1211	54.66818
403.2872	55.54018
403.4533	52.93581
403.6194	57.6873
403.7856	62.90211
403.9517	66.29046
404.1177	65.29016
404.2838	62.23598
404.4499	58.84429
404.616	56.78298
404.7821	60.09886
404.9482	66.82285
405.1142	69.24111
405.2803	64.98669
405.4464	67.42987
405.6124	67.01004
405.7784	60.90614
405.9445	60.61887
406.1105	58.66897
406.2766	60.96405
406.4426	59.04972
406.6086	63.15114
406.7746	64.57866
406.9406	66.60338
407.1066	61.4163
407.2726	63.59198
407.4386	63.33783
407.6046	61.77788
407.7706	60.75776
407.9366	67.23383
408.1025	68.39772
408.2685	67.64899
408.4344	68.52018
408.6004	72.1155
408.7664	77.09539
408.9323	74.19765
409.0983	74.56527
409.2642	71.93945
409.4301	72.86997
409.596	69.48814
409.762	67.73551
409.9279	62.4486
410.0938	62.45293
410.2597	58.85032
410.4256	64.59388
410.5915	69.97272
410.7574	74.82953
410.9232	74.42165
411.0891	74.71743
411.255	70.51175
411.4209	79.98058
411.5867	80.37245
411.7526	71.22638
411.9184	73.33057
412.0843	75.17338
412.2501	71.61027
412.4159	79.07695
412.5818	76.70471
412.7476	74.56593
412.9134	78.33518
413.0792	79.47879
413.245	71.87387
413.4108	74.26566
413.5766	77.05205
413.7424	80.32057
413.9082	84.88396
414.074	77.52634
414.2397	76.29654
414.4055	70.69823
414.5713	77.08422
414.737	78.68954
414.9028	83.30957
415.0685	79.22376
415.2343	77.45493
415.4	76.78185
415.5658	72.52633
415.7315	79.09835
415.8972	81.67087
416.0629	83.00838
416.2286	81.131
416.3943	83.28586
416.56	90.91543
416.7257	82.86961
416.8914	79.29073
417.0571	84.23264
417.2228	74.78881
417.3884	81.17651
417.5541	77.32523
417.7198	72.50395
417.8854	83.84999
418.0511	82.49528
418.2167	77.32127
418.3824	78.55921
418.548	82.70484
418.7136	82.86732
418.8792	84.94792
419.0449	86.59467
419.2105	84.35481
419.3761	85.49304
419.5417	83.61289
419.7073	81.75964
419.8729	81.08088
420.0385	75.77706
420.204	80.41943
420.3696	85.59099
420.5352	85.54464
420.7007	95.56637
420.8663	98.03422
421.0319	93.66265
421.1974	88.10155
421.3629	90.0453
421.5285	91.08624
421.694	87.26099
421.8595	91.15418
422.0251	99.56577
422.1906	95.63013
422.3561	88.62682
422.5216	82.25117
422.6871	76.20824
422.8526	86.94105
423.0181	90.86375
423.1835	93.99854
423.349	94.49429
423.5145	93.00622
423.68	87.25934
423.8454	91.99831
424.0109	94.34745
424.1763	98.87994
424.3418	95.34161
424.5072	91.79811
424.6726	93.52994
424.838	89.35497
425.0035	92.18041
425.1689	95.20547
425.3343	92.18275
425.4997	93.56435
425.6651	94.90793
425.8305	98.24247
425.9959	86.46223
426.1613	87.63446
426.3267	97.13754
426.492	103.9821
426.6574	104.5214
426.8228	95.3081
426.9881	89.69642
427.1534	91.83116
427.3188	84.88979
427.4841	83.61278
427.6495	88.23265
427.8148	91.77588
427.9801	96.75528
428.1454	94.46057
428.3107	94.69233
428.476	99.95778
428.6414	94.41582
428.8066	92.27147
428.9719	83.60544
429.1372	88.57159
429.3025	95.20188
429.4678	91.87892
429.633	85.86562
429.7983	83.13723
429.9636	77.57037
430.1288	76.1895
430.294	80.57739
430.4593	79.63634
430.6245	74.52184
430.7897	68.07491
430.955	70.59647
431.1202	71.93588
431.2854	83.14938
431.4506	93.30092
431.6158	100.6304
431.781	112.4149
431.9462	115.3357
432.1114	119.9138
432.2766	104.2243
432.4417	89.45027
432.6069	89.83401
432.772	100.0751
432.9372	103.8557
433.1024	111.2177
433.2675	108.8121
433.4326	107.3702
433.5977	106.1971
433.7629	99.90154
433.928	88.69796
434.0931	79.70579
434.2582	85.43498
434.4233	97.80605
434.5884	109.9794
434.7535	112.1465
434.9186	116.6716
435.0837	109.7993
435.2488	100.6979
435.4138	101.928
435.5789	108.6777
435.744	113.7307
435.909	113.0567
436.0741	120.5147
436.2391	118.4921
436.4042	122.9394
436.5692	123.7729
436.7342	127.2204
436.8992	120.8321
437.0643	121.75
437.2293	117.1819
437.3943	111.3834
437.5593	117.5396
437.7243	115.3963
437.8893	119.6238
438.0542	118.6993
438.2192	104.042
438.3842	94.34531
438.5491	98.11093
438.7141	104.5053
438.8791	113.6705
439.044	112.3974
439.209	112.7857
439.3739	119.5036
439.5388	122.971
439.7037	127.4326
439.8687	125.054
440.0336	122.1178
440.1985	122.2486
440.3634	120.6241
440.5283	123.5827
440.6932	120.3448
440.8581	122.9166
441.0229	126.8022
441.1878	132.4835
441.3527	133.8455
441.5175	127.7585
441.6824	129.3102
441.8472	134.144
442.0121	134.6659
442.1769	133.9036
442.3418	140.0657
442.5066	134.1601
442.6714	135.1163
442.8362	138.7475
443.001	137.7091
443.1659	135.0108
443.3307	128.029
443.4955	132.9031
443.6602	137.5563
443.825	133.7271
443.9898	145.0665
444.1546	143.6606
444.3193	132.4056
444.4841	134.6637
444.6488	139.2489
444.8136	143.0232
444.9783	141.2758
445.1431	141.8948
445.3078	130.7561
445.4725	123.7816
445.6372	125.6848
445.802	132.4491
445.9667	132.3636
446.1314	131.2008
446.2961	134.7355
446.4608	141.3131
446.6255	137.6411
446.7901	135.1449
446.9548	138.7611
447.1195	144.756
447.2841	147.694
447.4488	148.7442
447.6134	149.2539
447.7781	153.3814
447.9427	147.351
448.1074	140.369
448.272	137.6731
448.4366	145.3431
448.6012	153.4272
448.7658	157.4524
448.9305	149.8773
449.095	147.4888
449.2596	152.6976
449.4242	150.1129
449.5888	151.7288
449.7534	148.0002
449.9179	152.0753
450.0825	154.6168
450.2471	158.1721
450.4116	158.6492
450.5762	161.3007
450.7407	166.5464
450.9052	158.4895
451.0698	165.4522
451.2343	169.8709
451.3988	162.7088
451.5633	154.9994
451.7278	156.7228
451.8923	161.2043
452.0568	164.0186
452.2213	163.6161
452.3858	164.2716
452.5503	161.1591
452.7148	154.8105
452.8792	149.9061
453.0437	148.7331
453.2081	150.1622
453.3726	156.777
453.537	152.7272
453.7015	157.0393
453.8659	158.4675
454.0303	162.6396
454.1947	163.2138
454.3592	158.0702
454.5236	161.5446
454.688	164.3038
454.8524	160.9919
455.0168	156.4288
455.1811	159.1293
455.3455	159.6608
455.5099	157.4035
455.6743	160.8904
455.8386	167.453
456.003	170.8229
456.1673	164.874
456.3317	167.5576
456.496	174.6902
456.6603	166.2352
456.8246	165.0369
456.989	168.2796
457.1533	172.2549
457.3176	166.9211
457.4819	162.2236
457.6462	171.0667
457.8105	170.2036
457.9748	164.1303
458.1391	156.8061
458.3033	155.3354
458.4676	161.0366
458.6319	165.3122
458.7961	167.6993
458.9604	168.2612
459.1246	172.8455
459.2888	162.0542
459.4531	170.0541
459.6173	171.1483
459.7815	166.0856
459.9457	161.8845
460.11	166.8074
460.2741	166.6198
460.4384	163.0573
460.6025	165.1697
460.7667	169.0469
460.9309	176.1612
461.0951	172.283
461.2592	167.3665
461.4234	175.2275
461.5876	174.4489
461.7517	179.2708
461.9159	179.1301
462.08	171.3113
462.2441	180.2981
462.4082	180.7851
462.5724	178.0789
462.7365	178.8762
462.9006	177.809
463.0647	183.7929
463.2288	177.6626
463.3929	178.7919
463.557	175.0716
463.721	178.8675
463.8851	173.067
464.0492	169.0792
464.2132	173.1265
464.3773	173.6466
464.5414	170.0851
464.7054	170.8148
464.8694	168.2758
465.0334	173.3922
465.1975	173.1483
465.3615	170.2771
465.5255	169.5737
465.6895	173.7766
465.8535	181.2698
466.0175	184.5322
466.1815	174.9279
466.3455	173.954
466.5095	172.3108
466.6734	162.5543
466.8374	158.4096
467.0014	161.5399
467.1653	166.7272
467.3293	178.9981
467.4932	188.7706
467.6571	183.301
467.8211	178.9237
467.985	181.1574
468.1489	177.4604
468.3128	176.9765
468.4767	184.0666
468.6406	182.8171
468.8045	179.5309
468.9684	178.2613
469.1323	177.6738
469.2962	179.6055
469.46	175.1023
469.6239	180.0849
469.7878	183.0875
469.9516	176.7341
470.1154	171.8322
470.2793	169.8199
470.4431	167.0185
470.607	175.0478
470.7708	177.5564
470.9346	174.7903
471.0984	179.6003
471.2622	180.961
471.426	181.2036
471.5898	188.5652
471.7536	188.414
471.9174	198.839
472.0811	197.6449
472.2449	191.4341
472.4087	188.9325
472.5724	192.0786
472.7362	187.849
472.8999	188.7455
473.0637	187.0837
473.2274	181.9555
473.3911	187.0785
473.5548	180.1601
473.7185	185.1882
473.8822	188.7859
474.0459	188.7718
474.2096	192.2686
474.3733	192.6547
474.537	197.6932
474.7007	194.3328
474.8643	194.8092
475.028	189.5069
475.1917	188.644
475.3553	192.0492
475.519	182.6695
475.6826	189.9523
475.8463	193.4445
476.0099	184.6546
476.1735	185.6934
476.3371	180.4631
476.5007	177.0467
476.6643	182.3727
476.8279	186.659
476.9915	191.9594
477.1551	192.1502
477.3187	195.0718
477.4823	196.8
477.6458	198.1433
477.8094	193.9794
477.9729	199.7228
478.1365	195.2679
478.3	189.1867
478.4636	188.3116
478.6271	178.7453
478.7906	188.2994
478.9541	189.5743
479.1176	192.9798
479.2812	195.2713
479.4447	196.8161
479.6082	198.785
479.7716	205.954
479.9351	199.1709
480.0986	190.6108
480.2621	193.8974
480.4255	197.0393
480.589	190.4901
480.7524	189.9728
480.9159	192.3718
481.0793	185.8476
481.2428	188.4084
481.4062	187.3833
481.5696	194.8612
481.733	201.2707
481.8964	197.4993
482.0598	196.431
482.2232	195.8819
482.3866	193.9114
482.55	197.4291
482.7134	193.8655
482.8768	199.4444
483.0401	196.1477
483.2035	186.123
483.3668	194.417
483.5302	192.4749
483.6935	186.6071
483.8568	193.9549
484.0202	190.9395
484.1835	190.1334
484.3468	191.4038
484.5101	197.4591
484.6734	198.8632
484.8367	193.6381
485	193.7376
485.1633	197.4379
485.3266	192.1569
485.4899	182.1494
485.6531	178.0276
485.8164	170.6289
485.9796	162.2515
486.1429	148.4327
486.3061	147.0083
486.4694	157.1935
486.6326	177.9207
486.7958	183.5478
486.959	184.3764
487.1223	179.8447
487.2855	178.1131
487.4486	183.6565
487.6118	192.9695
487.775	189.9815
487.9382	198.816
488.1014	204.2664
488.2646	203.5344
488.4277	198.743
488.5909	194.4961
488.754	190.6332
488.9171	185.9416
489.0803	186.321
489.2434	196.7456
489.4066	196.683
489.5697	206.0067
489.7328	207.571
489.8959	205.2339
490.059	205.8749
490.2221	204.5146
490.3852	208.3188
490.5482	206.8606
490.7113	211.3891
490.8744	208.6972
491.0374	194.6285
491.2005	193.2216
491.3636	198.735
491.5266	213.3459
491.6896	199.8163
491.8527	186.7015
492.0157	180.7683
492.1787	183.2684
492.3417	192.2243
492.5047	203.5262
492.6677	209.2626
492.8307	215.6182
492.9937	215.1469
493.1567	208.3478
493.3196	204.3082
493.4826	199.6763
493.6456	203.1859
493.8085	195.8517
493.9715	194.8899
494.1344	201.132
494.2974	212.8881
494.4603	206.6747
494.6232	207.335
494.7861	211.7542
494.949	212.8503
495.1119	216.8556
495.2748	211.1267
495.4377	204.0931
495.6006	201.3524
495.7635	198.473
495.9264	202.4894
496.0892	208.7715
496.2521	216.8334
496.4149	221.0001
496.5778	208.1907
496.7407	208.659
496.9035	208.9447
497.0663	209.1405
497.2291	211.7165
497.3919	217.6
497.5547	216.6432
497.7176	212.7608
497.8804	211.5804
498.0432	204.0575
498.2059	207.1587
498.3687	194.4043
498.5315	195.6597
498.6942	203.5387
498.857	211.2752
499.0198	215.2447
499.1825	213.121
499.3452	214.5685
499.508	214.1129
499.6707	214.303
499.8334	210.5404
499.9962	208.2149
500.1589	207.4109
500.3216	206.1806
500.4843	203.5548
500.6469	197.2633
500.8096	202.8229
500.9723	218.3976
501.135	209.6801
501.2976	207.0772
501.4603	199.0498
501.623	200.373
501.7856	204.8715
501.9482	205.2789
502.1109	211.0227
502.2735	208.397
502.4361	211.6707
502.5987	212.5762
502.7614	213.6929
502.924	215.504
503.0865	214.825
503.2491	223.1412
503.4117	221.7013
503.5743	215.0877
503.7368	206.997
503.8994	212.1301
504.062	207.5328
504.2245	197.629
504.3871	201.1522
504.5496	216.5405
504.7121	227.6204
504.8746	220.5542
505.0372	211.7322
505.1997	209.9196
505.3622	217.5249
505.5247	223.2501
505.6872	223.9658
505.8497	225.251
506.0121	227.2895
506.1746	227.4461
506.3371	227.7858
506.4995	224.4588
506.662	219.6293
506.8244	220.6518
506.9869	224.6027
507.1493	228.9783
507.3117	225.3554
507.4742	225.5466
507.6366	225.6335
507.799	222.7851
507.9614	221.0641
508.1238	214.1262
508.2862	213.6486
508.4485	215.7699
508.6109	217.5059
508.7733	225.0683
508.9357	228.6814
509.098	231.5944
509.2604	229.081
509.4227	229.2866
509.5851	228.351
509.7474	223.01
509.9097	215.1457
510.072	216.4383
510.2343	220.8286
510.3966	224.7642
510.5589	227.9315
510.7212	214.5327
510.8835	214.991
511.0458	224.8957
511.2081	224.426
511.3703	227.8089
511.5326	229.519
511.6949	231.3001
511.8571	230.1638
512.0193	224.2962
512.1816	221.0159
512.3438	217.1745
512.506	213.2869
512.6682	206.7488
512.8304	210.3486
512.9926	220.0304
513.1548	220.6869
513.317	218.3694
513.4792	221.0926
513.6414	218.8221
513.8035	216.5151
513.9657	208.9025
514.1279	212.9108
514.29	211.4426
514.4521	205.2941
514.6143	214.2547
514.7764	220.8893
514.9385	222.6228
515.1006	215.5979
515.2628	220.2679
515.4249	218.044
515.587	214.2733
515.7491	215.8998
515.9111	224.4778
516.0732	224.3411
516.2353	221.6905
516.3973	209.7299
516.5594	200.9812
516.7214	190.8921
516.8835	183.7076
517.0455	186.0306
517.2076	183.1937
517.3696	180.2107
517.5316	195.6189
517.6937	209.263
517.8557	217.3383
518.0176	213.3098
518.1796	201.9951
518.3416	187.0935
518.5036	180.8823
518.6656	188.4931
518.8275	210.9986
518.9895	215.9487
519.1514	211.3595
519.3134	206.3822
519.4753	199.1313
519.6373	209.2693
519.7992	214.3717
519.9611	223.8478
520.123	229.8388
520.2849	220.882
520.4468	215.2752
520.6087	207.0795
520.7706	209.6628
520.9325	212.5414
521.0944	220.7585
521.2562	223.9922
521.4181	225.2965
521.58	228.5538
521.7418	215.8182
521.9036	226.4992
522.0655	227.8112
522.2273	230.5226
522.3891	226.7829
522.551	216.9139
522.7128	204.3555
522.8746	210.8595
523.0363	218.1246
523.1981	219.7256
523.3599	213.1723
523.5217	210.9122
523.6835	223.6976
523.8452	235.7502
524.007	228.0684
524.1687	227.0581
524.3304	234.6278
524.4922	238.2743
524.6539	227.4322
524.8157	227.1207
524.9774	222.8222
525.1391	225.2775
525.3008	232.88
525.4625	228.5985
525.6241	231.59
525.7858	238.9268
525.9475	234.4179
526.1092	234.3364
526.2709	220.744
526.4325	211.1499
526.5942	202.7875
526.7558	202.4501
526.9174	207.5764
527.079	211.0832
527.2407	218.3035
527.4023	219.7568
527.5639	218.4681
527.7255	223.823
527.8871	229.9326
528.0487	234.5807
528.2103	234.1869
528.3718	227.756
528.5334	221.8065
528.695	234.7089
528.8565	241.0024
529.0181	247.4789
529.1796	246.8608
529.3412	243.8661
529.5027	240.3765
529.6642	232.106
529.8257	229.254
529.9872	230.0732
530.1487	231.6771
530.3102	232.5242
530.4717	231.6527
530.6332	244.091
530.7947	241.8162
530.9562	243.7545
531.1176	238.6146
531.2791	238.9046
531.4405	237.6711
531.6019	246.28
531.7634	235.3904
531.9248	242.3539
532.0862	241.8964
532.2477	234.0953
532.4091	229.3708
532.5704	225.0929
532.7319	218.6222
532.8932	221.4694
533.0546	220.675
533.216	224.6655
533.3774	236.1168
533.5388	233.3264
533.7001	234.1865
533.8615	233.2826
534.0228	232.8974
534.1841	226.2855
534.3455	233.5876
534.5068	229.9019
534.6681	235.8327
534.8293	234.0425
534.9907	233.1295
535.152	238.8589
535.3132	236.1496
535.4745	247.8815
535.6358	251.6856
535.7971	248.9653
535.9583	249.6017
536.1196	242.5906
536.2808	236.1736
536.4421	232.2916
536.6033	231.1037
536.7645	228.0281
536.9258	224.5815
537.087	223.0061
537.2482	223.7573
537.4094	225.4556
537.5706	238.5165
537.7318	244.5029
537.8929	246.8439
538.0541	236.3914
538.2153	234.9995
538.3764	227.8859
538.5376	236.0231
538.6987	231.9889
538.8599	232.6565
539.021	230.1221
539.1821	224.8146
539.3432	224.2258
539.5043	231.9661
539.6655	224.05
539.8265	217.3192
539.9876	225.5904
540.1487	226.8587
540.3098	219.3169
540.4708	219.7389
540.6319	218.831
540.793	217.5235
540.954	220.2681
541.1151	222.0566
541.2761	217.7212
541.4371	228.9549
541.5981	229.5638
541.7592	223.7304
541.9202	230.1893
542.0812	233.3506
542.2422	230.8609
542.4031	225.1955
542.5641	228.238
542.7251	227.2844
542.886	230.5172
543.0471	226.9677
543.208	223.4128
543.369	222.3848
543.5298	228.7499
543.6908	229.7137
543.8517	232.7635
544.0126	235.1448
544.1736	233.3539
544.3345	233.3456
544.4954	228.9672
544.6563	228.5037
544.8171	225.4067
544.978	227.682
545.1389	230.0251
545.2997	231.8326
545.4606	228.2607
545.6215	225.8502
545.7823	217.56
545.9432	229.1514
546.104	231.1727
546.2648	230.2398
546.4256	220.1355
546.5864	226.554
546.7473	229.2369
546.908	233.4955
547.0688	236.36
547.2296	230.0093
547.3904	223.2182
547.5511	226.4641
547.7119	231.3753
547.8727	233.3
548.0334	223.028
548.1942	228.8585
548.3549	233.1866
548.5156	234.3484
548.6763	235.6213
548.837	238.3919
548.9977	231.0721
549.1584	235.7245
549.3192	233.6778
549.4798	239.36
549.6405	232.2381
549.8011	227.8757
549.9619	229.3882
550.1225	234.5962
550.2831	234.0249
550.4438	236.2886
550.6044	229.5852
550.765	232.5427
550.9257	235.4099
551.0863	231.506
551.2469	235.3652
551.4075	237.8192
551.5681	230.6622
551.7287	229.6416
551.8893	230.0222
552.0498	236.279
552.2104	244.0151
552.371	240.9962
552.5315	239.2469
552.6921	237.6666
552.8526	231.715
553.0131	233.8586
553.1736	226.2287
553.3342	229.035
553.4947	231.6472
553.6552	234.5575
553.8157	228.7771
553.9762	233.8231
554.1367	232.6752
554.2971	233.7815
554.4576	228.6915
554.618	232.5905
554.7785	231.7893
554.939	232.422
555.0994	243.6644
555.2598	241.0799
555.4203	233.2979
555.5807	234.4921
555.7411	232.1724
555.9015	231.9027
556.0619	225.3207
556.2223	227.1378
556.3827	228.5833
556.5431	223.4141
556.7034	224.8617
556.8638	230.8725
557.0242	229.073
557.1845	223.1187
557.3448	228.5657
557.5052	226.9686
557.6655	227.046
557.8259	229.498
557.9861	224.7716
558.1465	231.1729
558.3068	228.5739
558.467	224.3627
558.6274	225.048
558.7877	211.4454
558.9479	216.3859
559.1082	222.8757
559.2684	223.0591
559.4287	221.2123
559.5889	217.9203
559.7491	215.5008
559.9094	219.235
560.0696	215.2818
560.2299	222.4822
560.3901	220.4776
560.5502	225.5831
560.7104	230.1365
560.8707	232.1315
561.0308	232.4794
561.191	231.221
561.3511	230.502
561.5114	215.1254
561.6714	210.5748
561.8316	221.6896
561.9918	220.4486
562.1519	224.304
562.312	223.3631
562.4722	217.8322
562.6323	219.4
562.7924	222.0697
562.9525	220.2295
563.1125	220.0989
563.2726	226.6674
563.4327	228.4943
563.5928	217.3248
563.7528	220.3917
563.9129	215.4271
564.0729	218.0331
564.233	216.7388
564.393	217.1614
564.553	223.4977
564.7131	228.9186
564.873	222.3281
565.0331	226.3784
565.1931	222.0329
565.353	225.8737
565.5131	222.6554
565.673	211.7833
565.833	213.4168
565.9929	211.0818
566.1529	214.601
566.3129	213.9655
566.4728	212.2011
566.6328	215.5907
566.7927	214.4642
566.9526	221.3074
567.1125	220.1662
567.2724	224.9906
567.4323	224.3782
567.5922	217.699
567.7521	225.5256
567.9119	225.8317
568.0718	221.656
568.2317	213.4289
568.3915	213.5272
568.5514	212.4222
568.7112	209.2262
568.871	209.628
569.0309	209.4287
569.1907	214.5308
569.3505	218.2361
569.5103	213.9163
569.6701	215.7948
569.8299	222.3626
569.9897	213.5648
570.1495	213.3019
570.3092	211.7215
570.469	210.6671
570.6287	215.5638
570.7885	216.5331
570.9482	214.5065
571.108	204.5769
571.2677	209.0176
571.4274	207.6844
571.5871	211.9857
571.7468	217.7273
571.9066	216.4618
572.0662	214.4701
572.2259	215.0031
572.3856	216.2944
572.5452	218.7154
572.7049	217.7339
572.8646	221.1371
573.0242	216.0338
573.1838	211.9663
573.3435	211.3754
573.5031	218.2972
573.6627	223.3988
573.8223	227.4697
573.9819	217.1271
574.1415	219.3855
574.3011	217.5865
574.4607	221.2892
574.6203	216.5036
574.7798	214.932
574.9394	214.2176
575.099	211.873
575.2585	207.7547
575.418	217.7308
575.5776	217.4856
575.7371	210.8972
575.8966	215.5377
576.0562	214.9708
576.2156	212.7831
576.3751	213.1597
576.5346	215.8128
576.6941	218.3844
576.8536	220.7094
577.0131	215.8734
577.1725	218.0891
577.332	218.0139
577.4914	216.8747
577.6508	215.8186
577.8103	215.6644
577.9697	208.7676
578.1291	209.3786
578.2885	209.8537
578.4479	203.4827
578.6073	203.7459
578.7667	210.1695
578.9261	214.747
579.0854	210.7954
579.2448	208.7328
579.4042	211.2027
579.5635	210.2755
579.7229	208.4063
579.8822	210.4696
580.0416	212.0472
580.2009	213.1683
580.3602	219.9137
580.5195	206.2566
580.6788	207.4397
580.8381	211.8064
580.9974	207.0459
581.1566	209.9185
581.3159	203.274
581.4752	201.7213
581.6345	207.1238
581.7937	221.3834
581.9529	212.3356
582.1122	207.4068
582.2714	210.501
582.4306	206.5772
582.5898	203.5772
582.749	204.0605
582.9082	207.9084
583.0674	202.4819
583.2266	199.7328
583.3857	201.396
583.5449	205.1277
583.7041	212.2188
583.8633	208.8631
584.0224	205.489
584.1815	207.685
584.3407	212.1595
584.4998	205.9131
584.6589	200.0125
584.818	201.3226
584.9771	206.2117
585.1362	200.5974
585.2953	204.1023
585.4544	199.752
585.6135	195.5544
585.7725	199.7839
585.9316	204.0492
586.0906	205.6526
586.2497	203.1084
586.4087	202.3248
586.5677	204.5159
586.7267	203.6231
586.8858	206.9905
587.0448	201.1292
587.2038	200.322
587.3628	194.4904
587.5218	197.6441
587.6807	201.8526
587.8397	197.4569
587.9987	195.6461
588.1577	194.315
588.3166	189.6661
588.4755	199.8183
588.6345	196.0226
588.7934	182.6168
588.9523	177.6391
589.1112	178.204
589.2701	172.2032
589.429	173.203
589.5879	178.0805
589.7468	176.4388
589.9056	181.2227
590.0645	192.7622
590.2234	190.4288
590.3822	193.1682
590.5411	191.0817
590.6999	188.7585
590.8588	193.5799
591.0176	187.5223
591.1764	182.44
591.3352	188.4799
591.494	188.7775
591.6528	193.1795
591.8116	185.8095
591.9703	181.2366
592.1291	188.1735
592.2878	191.4326
592.4467	194.6172
592.6053	193.9169
592.7641	189.1489
592.9229	187.6448
593.0816	187.1023
593.2403	190.3797
593.399	189.5027
593.5577	187.4589
593.7164	194.27
593.8751	195.3601
594.0338	195.3026
594.1924	196.1898
594.3511	194.2282
594.5098	192.7462
594.6684	189.3772
594.8271	187.7538
594.9857	186.0099
595.1443	188.543
595.303	187.5113
595.4615	189.6321
595.6202	189.982
595.7787	183.8821
595.9374	183.8129
596.0959	181.6018
596.2545	183.2596
596.4131	195.3867
596.5717	191.8408
596.7302	183.9682
596.8887	188.6998
597.0473	191.0072
597.2058	188.8922
597.3644	190.9982
597.5229	195.2682
597.6814	192.0547
597.8399	190.4058
597.9984	189.6938
598.1569	190.3644
598.3154	191.6102
598.4738	188.768
598.6323	187.2285
598.7908	192.5472
598.9492	188.9284
599.1076	193.1142
599.2661	189.1728
599.4245	194.146
599.5829	194.4087
599.7413	190.7181
599.8997	193.0235
600.0581	195.9371
600.2165	196.3609
600.3749	197.2134
600.5333	185.3859
600.6917	194.7427
600.85	190.6271
601.0084	193.8238
601.1667	186.3008
601.325	184.1017
601.4833	192.0822
601.6417	187.8683
601.8	184.7404
601.9583	184.2846
602.1166	187.477
602.2749	187.7416
602.4332	187.8798
602.5914	186.8353
602.7498	184.2483
602.908	184.8593
603.0662	184.2834
603.2245	189.2462
603.3828	191.62
603.541	192.2642
603.6992	191.3082
603.8574	188.3495
604.0156	189.3562
604.1738	192.6498
604.332	189.1093
604.4902	184.9098
604.6484	188.1133
604.8065	186.5219
604.9647	188.7682
605.1229	189.6731
605.281	190.4008
605.4391	185.9166
605.5973	180.9428
605.7554	190.3757
605.9135	192.2422
606.0717	188.2636
606.2297	183.9771
606.3878	183.4148
606.5459	183.0965
606.704	183.992
606.8621	183.159
607.0201	180.7102
607.1782	189.5707
607.3362	195.8873
607.4943	193.9496
607.6523	192.9027
607.8104	184.6334
607.9684	178.6403
608.1264	184.0704
608.2844	190.3526
608.4424	188.8356
608.6003	185.133
608.7584	182.7026
608.9163	185.7299
609.0743	185.6193
609.2322	185.4785
609.3902	179.6669
609.5482	186.0011
609.7061	182.8573
609.864	184.9482
610.0219	183.6093
610.1798	183.2187
610.3377	181.1872
610.4956	177.1671
610.6535	185.2813
610.8114	180.9427
610.9693	181.7083
611.1271	176.5726
611.285	174.5854
611.4429	185.6547
611.6007	192.3855
611.7585	188.0973
611.9164	181.5732
612.0742	176.8977
612.232	177.4299
612.3898	178.4384
612.5476	181.7724
612.7054	183.6557
612.8632	181.1582
613.0209	180.9391
613.1787	174.5127
613.3365	181.2739
613.4942	183.7481
613.652	182.3767
613.8097	177.3808
613.9674	174.4217
614.1252	182.2236
614.2829	183.4641
614.4406	180.4355
614.5983	178.0623
614.756	179.5036
614.9136	176.8225
615.0714	182.7709
615.229	178.8082
615.3867	174.4611
615.5443	170.2333
615.702	171.7173
615.8596	167.5788
616.0172	166.2135
616.1748	169.5916
616.3325	169.8027
616.4901	173.0267
616.6476	168.4773
616.8052	170.8063
616.9628	165.6837
617.1204	170.3539
617.278	171.4319
617.4355	175.3078
617.5931	175.8517
617.7506	180.4364
617.9081	176.3129
618.0657	169.2831
618.2232	174.3406
618.3807	175.3483
618.5382	180.4345
618.6957	178.2239
618.8532	172.5927
619.0107	170.7837
619.1682	169.2148
619.3256	173.1282
619.4831	171.4998
619.6406	174.2745
619.798	168.11
619.9554	176.6878
620.1129	180.3692
620.2703	177.9985
620.4277	175.9703
620.5851	172.4018
620.7425	174.2698
620.8998	177.1066
621.0573	175.9344
621.2146	168.6787
621.372	168.3795
621.5294	173.4658
621.6867	170.1905
621.8441	161.6701
622.0013	164.0714
622.1587	166.5917
622.316	169.4993
622.4733	171.7263
622.6306	163.7704
622.7879	168.2211
622.9452	163.5025
623.1025	169.9592
623.2598	174.915
623.4171	177.2233
623.5743	173.0113
623.7316	165.6961
623.8888	162.7731
624.046	166.8554
624.2032	169.1472
624.3605	174.6628
624.5176	162.508
624.6749	162.1786
624.8321	162.7766
624.9893	166.2359
625.1464	165.2635
625.3036	163.3593
625.4608	164.0865
625.6179	164.1552
625.7751	159.0193
625.9322	161.1553
626.0894	166.0714
626.2465	168.7547
626.4036	165.562
626.5607	166.8667
626.7178	170.4445
626.8749	163.2599
627.032	163.7398
627.189	167.0875
627.3461	163.9653
627.5032	158.4005
627.6602	158.007
627.8173	158.9725
627.9743	158.0113
628.1313	160.3591
628.2884	160.3445
628.4454	161.1062
628.6024	167.2439
628.7594	164.1034
628.9164	160.8061
629.0734	162.3045
629.2303	161.1297
629.3873	161.6998
629.5443	156.16
629.7012	156.4825
629.8582	162.192
630.0151	156.0988
630.172	157.4617
630.3289	156.3905
630.4858	165.6565
630.6428	163.9527
630.7996	164.7316
630.9565	157.7158
631.1134	159.8707
631.2703	165.203
631.4272	157.9474
631.584	149.8264
631.7408	156.5481
631.8977	157.3074
632.0546	160.5015
632.2114	163.8284
632.3682	162.2981
632.525	159.9808
632.6818	165.1958
632.8386	164.4725
632.9954	159.7269
633.1522	162.8623
633.3089	166.8026
633.4657	165.7294
633.6224	168.0041
633.7792	160.3199
633.9359	148.3192
634.0927	155.5502
634.2494	157.3226
634.4061	162.7885
634.5628	163.6489
634.7195	154.9734
634.8762	158.7862
635.0329	163.8914
635.1895	157.0726
635.3462	159.8623
635.5029	165.8875
635.6595	162.5986
635.8162	158.3847
635.9728	161.7929
636.1295	154.4488
636.2861	156.8368
636.4427	152.0933
636.5992	156.0659
636.7559	156.3226
636.9124	155.9171
637.069	161.9023
637.2256	158.4308
637.3821	162.6346
637.5387	164.6822
637.6953	157.6299
637.8518	156.9451
638.0084	159.2361
638.1649	156.0689
638.3214	156.0647
638.4779	155.6975
638.6344	153.4462
638.7909	162.987
638.9474	158.1136
639.1038	155.2672
639.2603	153.2106
639.4167	154.0359
639.5732	155.461
639.7297	154.8035
639.8861	154.742
640.0425	157.0507
640.199	156.7189
640.3553	155.5175
640.5118	155.7208
640.6682	152.7351
640.8245	153.4037
640.981	153.0123
641.1373	153.1758
641.2936	157.6937
641.45	154.7914
641.6064	155.5078
641.7627	157.9948
641.9191	155.5989
642.0754	156.8012
642.2317	150.5896
642.388	151.0233
642.5443	148.1994
642.7006	150.3885
642.8569	149.4192
643.0131	152.4526
643.1694	151.7249
643.3257	158.5206
643.4819	153.1333
643.6382	155.7797
643.7944	155.3731
643.9506	152.0828
644.1069	147.6667
644.2631	154.3818
644.4193	150.0732
644.5754	152.7731
644.7316	149.4456
644.8878	150.7911
645.044	150.2259
645.2002	151.528
645.3563	142.1586
645.5125	145.4755
645.6686	151.3747
645.8248	150.1019
645.9809	141.7386
646.137	145.673
646.2931	144.0829
646.4492	145.0149
646.6053	148.7757
646.7614	149.3675
646.9174	146.8137
647.0735	146.9214
647.2296	134.5056
647.3856	141.6911
647.5417	146.1982
647.6977	143.0953
647.8537	142.8481
648.0098	146.3056
648.1658	140.2276
648.3218	140.0842
648.4777	134.175
648.6337	142.1746
648.7897	142.1552
648.9457	146.2147
649.1016	144.5542
649.2576	140.6679
649.4135	132.0354
649.5695	141.8737
649.7254	130.5552
649.8813	136.2827
650.0372	134.9865
650.1932	139.6092
650.3491	145.6613
650.5049	142.6506
650.6608	146.286
650.8167	142.5709
650.9725	140.3831
651.1284	145.3229
651.2842	145.4475
651.4401	141.9974
651.5959	143.4446
651.7518	139.5208
651.9076	135.1919
652.0634	136.5479
652.2192	138.5376
652.3749	137.3838
652.5308	142.073
652.6865	142.5159
652.8423	143.0665
652.998	143.9083
653.1538	141.5864
653.3096	143.1941
653.4653	143.2036
653.621	139.4256
653.7767	139.4184
653.9324	139.48
654.0881	143.9399
654.2438	142.2796
654.3995	140.4891
654.5552	143.8594
654.7109	130.5835
654.8665	132.6229
655.0222	140.3549
655.1778	132.8834
655.3334	128.9292
655.4891	133.0287
655.6447	133.842
655.8003	129.6119
655.9559	118.4928
656.1115	114.7625
656.2671	110.5374
656.4227	112.2232
656.5782	118.6655
656.7338	125.7649
656.8893	130.7387
657.0449	128.3349
657.2004	134.7431
657.356	135.7255
657.5115	132.2719
657.667	132.1706
657.8225	141.1066
657.978	137.5945
658.1335	140.4113
658.289	135.2509
658.4445	139.0476
658.5999	137.613
658.7554	142.5163
658.9108	144.7355
659.0663	142.0601
659.2217	135.7651
659.3771	133.3227
659.5325	140.1022
659.6879	133.1364
659.8433	135.3034
659.9987	142.0667
660.1541	143.8937
660.3095	139.6978
660.4648	138.0891
660.6202	135.1955
660.7756	133.9086
660.9309	134.2686
661.0862	142.6227
661.2416	134.265
661.3969	137.2813
661.5522	141.1572
661.7075	142.5108
661.8628	140.109
662.0181	137.093
662.1733	136.1365
662.3286	134.2027
662.4839	136.0115
662.6391	129.824
662.7944	134.4224
662.9496	133.8049
663.1048	136.6793
663.26	134.8919
663.4152	131.2438
663.5704	132.328
663.7256	134.6012
663.8808	139.931
664.036	133.0338
664.1912	127.6155
664.3463	135.593
664.5015	138.4579
664.6566	131.9015
664.8118	133.7582
664.9669	136.862
665.122	132.9765
665.2771	130.7336
665.4322	137.1702
665.5873	136.3294
665.7424	141.7675
665.8975	136.1739
666.0526	138.3945
666.2076	137.0607
666.3627	131.0847
666.5177	131.3736
666.6727	133.7806
666.8278	133.1422
666.9828	138.3504
667.1378	137.2683
667.2928	137.8107
667.4478	136.9174
667.6028	138.1691
667.7578	127.8282
667.9127	131.6901
668.0677	130.1916
668.2226	133.1241
668.3776	137.5685
668.5325	134.7732
668.6874	133.8747
668.8423	138.0908
668.9973	140.3441
669.1522	130.8487
669.3071	129.7645
669.4619	130.6779
669.6168	133.1015
669.7717	130.9436
669.9265	128.2908
670.0814	138.3239
670.2362	136.3647
670.3911	129.7599
670.5459	132.73
670.7007	134.9546
670.8555	129.5395
671.0103	125.4445
671.1651	133.6227
671.3199	134.4276
671.4747	131.5797
671.6295	130.4261
671.7842	126.3805
671.939	134.3545
672.0937	132.7313
672.2484	131.422
672.4031	132.0111
672.5579	129.8115
672.7126	136.4322
672.8673	134.9607
673.022	135.4957
673.1767	128.5431
673.3314	128.3471
673.486	133.1955
673.6407	128.7659
673.7953	129.0582
673.95	127.7097
674.1046	119.8835
674.2592	123.5709
674.4138	126.5314
674.5684	123.713
674.723	124.0096
674.8776	125.1866
675.0322	125.4821
675.1868	131.003
675.3414	130.5868
675.4959	125.4877
675.6505	125.6976
675.805	124.4408
675.9595	129.5274
676.1141	127.7542
676.2686	127.01
676.4231	124.1453
676.5776	123.2508
676.7321	124.4926
676.8866	121.6174
677.041	123.6763
677.1955	124.3952
677.35	128.0222
677.5044	125.9488
677.6589	123.4825
677.8133	127.5826
677.9677	124.3464
678.1221	117.8788
678.2766	119.1678
678.4309	124.0723
678.5853	123.4579
678.7397	122.0751
678.8941	125.6649
679.0485	118.3284
679.2028	128.8881
679.3571	127.9413
679.5115	122.4748
679.6658	117.4691
679.8201	120.3492
679.9744	119.8028
680.1288	120.6813
680.2831	120.659
680.4373	124.4648
680.5916	121.3771
680.7459	118.03
680.9001	117.3041
681.0544	123.6747
681.2087	115.0649
681.3629	117.8508
681.5171	118.0654
681.6713	115.8472
681.8256	112.845
681.9797	118.2602
682.134	120.8689
682.2881	121.5411
682.4423	119.1554
682.5965	112.1295
682.7507	116.7946
682.9048	117.4851
683.059	119.3225
683.2131	122.7238
683.3672	116.7909
683.5213	113.31
683.6754	112.3785
683.8295	112.8114
683.9836	115.6214
684.1377	112.4692
684.2918	110.7543
684.4459	108.3454
684.5999	112.2009
684.754	112.4731
684.908	116.4439
685.062	111.8717
685.2161	112.5778
685.3701	115.3774
685.5241	115.574
685.6781	112.987
685.8321	112.4811
685.9861	111.8396
686.14	113.3775
686.294	110.8028
686.4479	110.2793
686.6019	108.3317
686.7559	95.21915
686.9098	86.0333
687.0637	91.0704
687.2176	91.46326
687.3715	91.12893
687.5254	96.31749
687.6793	93.33504
687.8332	99.92925
687.9871	95.60213
688.1409	105.628
688.2947	108.8751
688.4486	102.2123
688.6024	100.911
688.7563	100.2259
688.9101	94.6343
689.0639	94.46744
689.2177	97.38863
689.3715	96.94694
689.5253	96.20262
689.6791	98.12863
689.8328	96.37312
689.9866	103.5285
690.1403	101.8362
690.2941	95.54279
690.4478	99.84864
690.6015	98.12775
690.7552	99.53049
690.9089	95.99728
691.0626	98.84708
691.2164	99.85355
691.37	97.7467
691.5237	100.9178
691.6774	100.9603
691.831	105.3287
691.9847	102.2928
692.1383	103.8258
692.2919	106.9457
692.4456	99.74038
692.5992	103.0836
692.7527	101.4089
692.9064	101.5795
693.0599	100.5202
693.2136	90.90788
693.3671	99.1229
693.5207	101.8107
693.6742	100.8068
693.8278	105.88
693.9813	96.89545
694.1348	96.80329
694.2883	92.34857
694.4418	96.45515
694.5953	100.5401
694.7488	102.5077
694.9023	98.9581
695.0558	96.74847
695.2093	96.79341
695.3627	98.43006
695.5162	94.66518
695.6696	99.93478
695.8231	101.7222
695.9764	99.68085
696.1299	94.47169
696.2833	101.8301
696.4367	100.2316
696.5901	105.7879
696.7435	107.4368
696.8968	105.274
697.0502	102.8137
697.2036	104.8607
697.3569	101.532
697.5102	98.21381
697.6635	106.8652
697.8168	98.02249
697.9702	98.65564
698.1235	97.85213
698.2768	97.61031
698.4301	98.04975
698.5833	96.76017
698.7366	101.61
698.8898	91.38717
699.0431	96.96377
699.1964	99.7362
699.3495	92.5608
699.5028	95.69649
699.656	96.58424
699.8092	95.4555
699.9624	100.2543
700.1156	95.25646
700.2688	94.47275
700.4219	94.93834
700.5751	96.29608
700.7283	98.27506
700.8814	96.87099
701.0345	94.69502
701.1877	97.36974
701.3408	95.23397
701.4939	93.22072
701.647	96.22166
701.8001	98.33608
701.9532	95.56841
702.1063	93.60384
702.2593	91.38496
702.4124	100.1241
702.5654	96.10432
702.7184	91.0686
702.8715	95.55676
703.0245	94.46671
703.1776	104.8944
703.3305	99.06694
703.4835	97.28741
703.6365	92.29179
703.7895	99.228
703.9424	96.94348
704.0954	94.04572
704.2484	95.6362
704.4013	99.51218
704.5543	103.3327
704.7072	103.956
704.8601	97.9607
705.013	94.1317
705.1659	99.31794
705.3188	101.0436
705.4717	98.36616
705.6246	94.87338
705.7774	95.659
705.9303	96.00085
706.0831	93.41656
706.236	94.66056
706.3888	92.84912
706.5416	90.25867
706.6944	90.83055
706.8472	92.25684
707	89.70754
707.1528	96.70054
707.3056	103.0047
707.4583	98.22668
707.6111	95.5466
707.7639	91.2516
707.9166	91.8993
708.0693	94.47932
708.222	96.3371
708.3748	92.49549
708.5275	94.46027
708.6802	97.09293
708.8328	94.49763
708.9855	96.33754
709.1382	95.02959
709.2909	97.38286
709.4435	91.38712
709.5962	89.49348
709.7488	93.14527
709.9014	92.58749
710.054	96.11792
710.2067	96.48735
710.3593	97.2269
710.5118	97.59088
710.6644	96.26431
710.817	95.3633
710.9695	94.88287
711.1221	93.4539
711.2747	89.18152
711.4272	98.70658
711.5797	94.37974
711.7322	98.58864
711.8848	96.46277
712.0373	90.02987
712.1898	91.92617
712.3422	94.18723
712.4948	93.71294
712.6472	96.40261
712.7996	95.89049
712.9521	93.44263
713.1046	92.60846
713.257	93.81082
713.4094	96.18463
713.5618	94.20094
713.7142	92.28282
713.8666	94.74617
714.019	94.38819
714.1714	96.54383
714.3237	96.33964
714.4761	89.29655
714.6285	83.15985
714.7808	83.32983
714.9331	88.27709
715.0854	96.73499
715.2378	93.38642
715.3901	93.53934
715.5424	90.91657
715.6947	92.24651
715.8469	94.73307
715.9992	93.35756
716.1515	86.33181
716.3037	87.18121
716.456	92.53001
716.6082	80.00998
716.7604	77.905
716.9127	85.89288
717.0649	78.91231
717.2171	83.89156
717.3693	78.19497
717.5214	72.64614
717.6736	77.66927
717.8258	82.36726
717.978	84.26564
718.1301	77.00713
718.2822	71.9712
718.4344	71.26294
718.5865	76.09465
718.7386	72.81137
718.8907	74.54428
719.0428	78.90438
719.1949	83.26378
719.3469	76.3588
719.499	73.77443
719.6511	80.98179
719.8031	77.51561
719.9551	71.9082
720.1072	72.43993
720.2592	77.04729
720.4112	77.07417
720.5632	75.32996
720.7152	75.0257
720.8672	76.17886
721.0192	78.23045
721.1711	82.90887
721.3231	86.04399
721.475	92.72078
721.627	86.7145
721.7789	87.14963
721.9308	85.298
722.0828	83.04322
722.2347	78.7937
722.3866	80.91836
722.5385	83.00151
722.6903	77.04655
722.8422	81.93258
722.9941	84.51123
723.1459	81.40488
723.2977	80.06701
723.4496	72.10394
723.6014	73.89603
723.7532	75.96658
723.905	72.63176
724.0568	81.77679
724.2086	77.23683
724.3604	73.4258
724.5121	70.14703
724.6639	77.6583
724.8157	73.81023
724.9674	72.34927
725.1191	79.73907
725.2709	78.16821
725.4226	74.29652
725.5743	78.08768
725.726	77.84054
725.8777	77.07215
726.0294	72.00068
726.181	71.92083
726.3327	74.63271
726.4844	71.58762
726.636	76.29942
726.7877	75.27822
726.9393	71.16331
727.0909	76.95895
727.2425	80.62926
727.3941	76.26105
727.5457	78.17939
727.6973	68.94696
727.8488	64.83897
728.0004	71.64079
728.1519	74.81178
728.3035	77.72535
728.455	74.43184
728.6066	78.44614
728.7581	74.96119
728.9095	70.79815
729.0611	67.87058
729.2126	70.7217
729.364	68.46634
729.5155	69.72754
729.667	75.66222
729.8184	72.62124
729.9698	70.09416
730.1213	72.80608
730.2727	68.64163
730.4241	69.46946
730.5756	75.72642
730.7269	74.7077
730.8784	77.76208
731.0297	78.97131
731.1811	72.83603
731.3325	74.85457
731.4838	76.24654
731.6351	75.30824
731.7865	74.37843
731.9378	76.16689
732.0891	74.28783
732.2404	74.40853
732.3917	75.57008
732.543	68.26057
732.6943	75.90639
732.8456	81.56126
732.9968	81.38178
733.1481	80.28472
733.2993	79.89905
733.4506	78.14516
733.6018	75.0441
733.753	83.65061
733.9042	83.26254
734.0554	80.30218
734.2066	83.9784
734.3578	83.02616
734.509	78.23349
734.6602	80.55825
734.8113	76.82018
734.9624	78.77654
735.1136	78.60744
735.2647	80.955
735.4158	75.08893
735.5669	73.96615
735.718	74.14072
735.8691	79.01534
736.0201	77.15751
736.1713	73.77311
736.3223	74.42164
736.4733	74.00486
736.6244	76.21583
736.7755	80.94949
736.9265	83.27108
737.0775	77.23001
737.2285	71.68436
737.3795	75.68386
737.5305	75.83311
737.6815	82.29794
737.8324	78.44553
737.9834	79.5852
738.1343	78.43923
738.2853	79.90899
738.4362	76.90207
738.5871	80.47733
738.738	75.47536
738.8889	68.84942
739.0399	69.78029
739.1907	71.44469
739.3416	77.12669
739.4925	79.73285
739.6433	82.01682
739.7942	78.96306
739.945	78.71378
740.0958	80.58995
740.2467	76.20152
740.3975	78.67108
740.5483	79.05743
740.6991	75.24941
740.8499	77.43248
741.0007	77.34651
741.1514	76.33871
741.3022	77.2433
741.4529	78.03542
741.6036	76.15531
741.7544	76.17854
741.9051	72.43024
742.0558	73.09541
742.2065	76.00132
742.3572	77.26767
742.5079	81.78204
742.6586	78.35224
742.8093	72.8236
742.9599	81.1596
743.1105	81.17048
743.2612	81.62587
743.4118	77.48157
743.5624	76.72078
743.7131	78.04461
743.8636	77.09931
744.0142	73.83093
744.1648	72.03785
744.3154	72.62772
744.4659	70.01775
744.6165	77.3594
744.767	71.02451
744.9176	73.87417
745.0681	75.56474
745.2186	77.16395
745.3691	77.08582
745.5197	75.23443
745.6702	72.78516
745.8206	73.51842
745.9711	72.37833
746.1215	76.70284
746.272	70.85998
746.4224	71.43847
746.5729	68.23926
746.7233	72.10274
746.8737	72.8935
747.0241	73.17532
747.1745	71.38317
747.3249	73.8284
747.4753	77.39295
747.6257	71.7961
747.776	73.83067
747.9264	68.26751
748.0767	74.48557
748.2271	68.84071
748.3774	69.59811
748.5276	70.43064
748.678	71.272
748.8282	71.68544
748.9786	69.59171
749.1288	71.56174
749.2791	74.00616
749.4294	68.34063
749.5796	69.15371
749.7299	68.63061
749.8801	71.32619
750.0303	71.07661
750.1805	71.81783
750.3307	75.19105
750.4809	69.29544
750.6311	66.54678
750.7813	65.45604
750.9314	69.15179
751.0816	70.96255
751.2318	72.10493
751.3818	71.3171
751.532	70.39835
751.6821	67.49416
751.8322	67.91988
751.9823	74.07659
752.1324	67.65216
752.2825	68.24759
752.4326	67.45704
752.5826	67.79372
752.7327	67.34447
752.8827	68.34178
753.0327	67.39589
753.1827	63.46777
753.3328	68.17662
753.4828	64.79817
753.6328	65.7071
753.7828	65.31693
753.9327	72.78447
754.0827	69.07053
754.2327	67.64049
754.3826	70.11617
754.5325	71.52914
754.6825	64.25336
754.8324	65.87951
754.9823	68.07281
755.1322	63.2664
755.2821	63.66179
755.432	67.597
755.5818	62.11356
755.7318	66.11055
755.8816	68.50108
756.0314	71.28776
756.1813	70.14476
756.3311	65.38918
756.4809	65.06494
756.6307	65.56332
756.7805	67.21794
756.9303	64.48049
757.0801	70.00239
757.2299	66.12473
757.3796	65.55157
757.5294	63.29594
757.6791	65.54334
757.8289	65.25993
757.9786	60.86783
758.1283	65.14256
758.278	62.20242
758.4277	58.7152
758.5773	59.11613
758.7271	61.68813
758.8767	60.06143
759.0264	64.06783
759.176	62.7124
759.3256	55.5502
759.4753	51.08879
759.6249	48.61529
759.7745	41.90744
759.9241	35.86493
760.0737	28.46834
760.2233	29.42015
760.3729	30.36894
760.5224	28.61648
760.6719	34.35912
760.8215	34.68891
760.971	32.32129
761.1205	31.56092
761.2701	32.75224
761.4196	33.84778
761.5691	39.57113
761.7186	43.36684
761.868	42.74303
762.0175	42.03342
762.167	51.84725
762.3164	42.12688
762.4659	43.26658
762.6153	45.05112
762.7647	41.18223
762.9141	38.18566
763.0635	46.35189
763.2129	40.48933
763.3623	41.25036
763.5117	38.79681
763.661	37.67313
763.8104	41.5252
763.9597	42.3363
764.1091	39.3585
764.2584	42.00361
764.4077	42.51318
764.557	36.63938
764.7063	39.72795
764.8556	43.0926
765.0049	46.9994
765.1541	44.77231
765.3034	47.34106
765.4526	46.00823
765.6019	44.80462
765.7511	47.97335
765.9003	43.67278
766.0496	49.24591
766.1987	50.80062
766.348	51.10963
766.4971	48.51597
766.6463	51.24285
766.7955	49.21383
766.9446	53.70165
767.0938	50.86848
767.2429	52.03558
767.392	50.97103
767.5411	53.86305
767.6902	53.2661
767.8394	51.45179
767.9884	55.51307
768.1375	56.76729
768.2866	54.16085
768.4356	56.39838
768.5847	57.55725
768.7337	57.38866
768.8828	52.23294
769.0317	50.55863
769.1808	49.48019
769.3298	54.78097
769.4788	57.8987
769.6277	54.74398
769.7767	49.86633
769.9257	52.39547
770.0746	54.29163
770.2236	51.98543
770.3725	54.68177
770.5214	56.42107
770.6703	47.6444
770.8193	46.78296
770.9681	52.96339
771.1171	55.06153
771.2659	50.77251
771.4148	51.7454
771.5637	53.65318
771.7125	50.32322
771.8613	49.8474
772.0101	54.74326
772.159	51.38065
772.3078	52.74121
772.4566	53.53658
772.6054	52.52469
772.7542	54.27367
772.903	52.80228
773.0517	55.35671
773.2004	49.03816
773.3492	50.62883
773.4979	51.70922
773.6467	53.50016
773.7953	51.1644
773.944	52.79325
774.0928	50.28752
774.2415	51.90786
774.3901	56.6678
774.5388	50.56613
774.6874	52.00708
774.8361	48.13623
774.9847	50.47667
775.1334	48.37155
775.282	50.82839
775.4305	49.95951
775.5792	50.33272
775.7277	55.67882
775.8763	51.94552
776.0249	47.87553
776.1735	49.02655
776.322	45.94872
776.4705	52.92324
776.6191	52.5618
776.7676	50.38868
776.9161	45.40987
777.0646	48.59257
777.2131	47.84781
777.3616	50.58213
777.5101	48.52613
777.6585	46.30762
777.8069	45.98973
777.9554	48.50241
778.1038	48.60514
778.2523	50.28911
778.4007	48.47995
778.5491	52.08197
778.6974	44.99118
778.8459	46.7739
778.9942	48.79545
779.1426	47.7129
779.291	51.75076
779.4393	52.49083
779.5876	48.44978
779.736	47.58026
779.8843	44.00235
780.0326	47.63879
780.1809	51.34611
780.3292	45.70278
780.4775	49.80577
780.6257	49.62225
780.774	44.96595
780.9222	45.94695
781.0704	46.55861
781.2187	47.32382
781.3669	51.26465
781.5151	46.87918
781.6633	48.86435
781.8115	51.02842
781.9597	50.65141
782.1078	50.00603
782.256	48.42953
782.4042	51.51871
782.5523	48.21445
782.7004	43.97972
782.8486	48.52439
782.9967	47.7151
783.1448	44.17044
783.2929	45.98137
783.441	46.80917
783.5891	48.56689
783.7371	46.23775
783.8851	47.24118
784.0332	45.51398
784.1812	42.50744
784.3293	46.75373
784.4773	46.00619
784.6253	46.09657
784.7733	43.23273
784.9213	46.52462
785.0692	52.62555
785.2172	48.22753
785.3652	42.0807
785.5131	43.61582
785.6611	45.81609
785.809	45.66185
785.9569	49.34538
786.1048	47.91382
786.2527	39.46669
786.4006	43.27663
786.5485	46.26219
786.6964	50.03885
786.8442	38.35539
786.9921	42.56126
787.1399	44.49207
787.2877	44.52824
787.4355	42.25432
787.5833	43.53517
787.7311	43.47861
787.8789	42.32253
788.0267	47.94461
788.1745	51.402
788.3223	46.87211
788.47	44.59819
788.6177	45.88723
788.7654	42.02332
788.9132	40.52735
789.0609	45.94487
789.2086	41.27861
789.3563	45.56261
789.504	40.36988
789.6517	42.13644
789.7993	44.81858
789.947	42.57359
790.0946	45.20668
790.2422	43.00046
790.3898	39.05525
790.5375	45.47366
790.6851	47.96117
790.8326	38.36481
790.9802	44.68367
791.1278	40.99713
791.2754	36.96299
791.423	40.50237
791.5705	45.20742
791.718	41.71241
791.8655	39.49967
792.0131	41.53631
792.1606	45.11225
792.308	42.94949
792.4556	42.28795
792.603	40.87379
792.7505	39.40816
792.8979	40.77723
793.0454	43.5154
793.1928	40.41507
793.3403	42.0696
793.4877	44.05511
793.6351	42.27395
793.7825	40.24472
793.9299	41.7323
794.0772	46.05508
794.2246	42.30423
794.3719	44.09426
794.5193	40.50889
794.6666	43.98447
794.814	41.25874
794.9613	40.2075
795.1086	40.38397
795.2559	40.28825
795.4032	45.06696
795.5505	41.20494
795.6978	40.04782
795.845	42.64732
795.9922	37.77597
796.1395	38.74554
796.2867	35.04908
796.4339	35.69186
796.5811	39.75856
796.7283	37.62687
796.8755	35.43272
797.0227	37.00728
797.1699	36.0563
797.317	37.58817
797.4642	40.33929
797.6113	41.23641
797.7584	39.56245
797.9056	45.15437
798.0527	39.98341
798.1998	38.22789
798.3469	38.57689
798.494	39.15458
798.641	39.09936
798.7881	42.77607
798.9351	41.68111
799.0822	36.62236
799.2292	38.75193
799.3762	40.76862
799.5232	40.99377
799.6702	42.63319
799.8172	43.94273
799.9642	40.41936
800.1111	37.18604
800.2581	37.9758
800.4051	36.8242
800.552	37.33762
800.6989	35.80835
800.8458	33.28019
800.9927	37.93408
801.1396	38.79607
801.2866	37.47241
801.4334	35.84863
801.5803	36.16831
801.7272	37.82358
801.874	37.17436
802.0209	34.53661
802.1677	33.62968
802.3145	38.25823
802.4613	33.85864
802.6081	34.62181
802.7549	35.71697
802.9017	35.46916
803.0485	36.13321
803.1952	37.04674
803.342	35.41676
803.4887	33.30158
803.6354	34.10897
803.7822	35.15404
803.9289	37.85394
804.0756	39.69911
804.2223	39.14384
804.369	33.68019
804.5156	34.31195
804.6623	30.54167
804.8089	32.79764
804.9556	36.08434
805.1022	35.11303
805.2488	37.22892
805.3954	37.83348
805.542	39.04767
805.6886	33.64573
805.8352	38.43041
805.9818	40.93986
806.1283	39.6767
806.2749	37.69156
806.4214	38.96803
806.5679	34.34166
806.7145	35.58566
806.861	36.57243
807.0074	35.53515
807.154	34.7651
807.3004	33.30611
807.4469	33.71698
807.5934	33.91424
807.7398	39.28452
807.8862	33.48615
808.0327	33.43964
808.1791	35.59644
808.3255	31.23116
808.4719	31.86912
808.6183	30.50735
808.7647	35.72242
808.9111	35.15682
809.0574	32.23363
809.2037	32.33559
809.3501	36.23619
809.4965	34.65783
809.6428	32.45257
809.7891	34.32942
809.9354	33.65606
810.0817	32.13628
810.2279	34.76078
810.3742	34.28503
810.5204	35.94391
810.6667	33.41861
810.8129	30.54815
810.9592	37.34101
811.1054	34.93984
811.2516	34.59345
811.3978	32.73603
811.5439	31.42212
811.6901	32.20847
811.8363	29.14128
811.9825	26.62059
812.1286	32.31333
812.2748	31.87235
812.4209	30.15717
812.567	30.0773
812.7131	31.63829
812.8592	29.35544
813.0053	26.5023
813.1514	29.75806
813.2974	28.53909
813.4435	28.01207
813.5895	28.93323
813.7356	30.4041
813.8816	34.43192
814.0276	30.96717
814.1736	28.58173
814.3196	28.71272
814.4656	31.84541
814.6116	27.02868
814.7576	21.25273
814.9035	26.27815
815.0494	23.61835
815.1954	28.07794
815.3413	31.13247
815.4872	27.8021
815.6331	30.30052
815.779	30.31699
815.9249	33.66872
816.0707	27.00253
816.2166	26.42345
816.3625	26.82794
816.5083	26.88333
816.6542	27.94859
816.8	28.14948
816.9458	29.21245
817.0916	24.17029
817.2374	25.03214
817.3832	30.77649
817.5289	24.94036
817.6747	27.95848
817.8204	26.60773
817.9662	28.45755
818.1119	28.83933
818.2576	27.51459
818.4034	26.48577
818.5491	29.98857
818.6948	26.85155
818.8405	23.88303
818.9861	23.72334
819.1318	23.79489
819.2774	30.47844
819.423	24.98724
819.5687	25.32321
819.7143	26.80573
819.8599	28.9544
820.0055	27.66681
820.1511	27.47818
820.2967	29.18212
820.4422	28.34471
820.5878	29.78594
820.7333	23.37859
820.8788	28.22146
821.0244	26.12168
821.1699	29.87338
821.3154	29.02869
821.4609	27.41935
821.6064	28.45263
821.7519	26.61413
821.8973	25.72855
822.0428	28.01704
822.1882	26.09746
822.3337	25.79639
822.4791	28.69254
822.6245	20.74901
822.7699	22.67036
822.9153	18.57636
823.0607	22.47831
823.2061	27.71754
823.3514	27.14128
823.4968	26.18189
823.6422	23.55296
823.7875	24.14111
823.9328	28.76538
824.0781	28.55258
824.2234	31.245
824.3687	24.33735
824.514	26.34109
824.6592	28.35533
824.8045	26.39223
824.9498	27.62901
825.095	26.09925
825.2402	30.45726
825.3854	32.1897
825.5306	28.43365
825.6758	26.3351
825.821	19.30318
825.9662	23.63868
826.1114	27.54827
826.2565	25.69027
826.4017	24.86638
826.5468	22.74976
826.692	25.15252
826.837	20.32183
826.9822	25.44412
827.1273	26.67981
827.2723	26.57427
827.4174	20.06696
827.5625	23.00789
827.7075	21.99842
827.8526	20.60837
827.9976	21.84037
828.1426	21.8218
828.2877	28.1653
828.4327	26.1527
828.5776	24.04142
828.7227	24.37565
828.8676	24.85258
829.0126	25.31972
829.1575	28.7209
829.3024	23.16503
829.4474	25.37624
829.5923	29.49903
829.7372	24.02946
829.8821	23.51588
830.027	24.37103
830.1719	22.85346
830.3168	25.29514
830.4616	23.65021
830.6064	23.50904
830.7513	26.8306
830.8961	25.23502
831.041	26.81863
831.1857	26.53186
831.3306	26.89804
831.4753	27.42271
831.6201	25.09829
831.7649	24.95778
831.9096	21.75109
832.0544	24.32012
832.1991	24.61919
832.3438	27.06272
832.4885	30.16938
832.6332	26.04735
832.778	24.90004
832.9226	19.18999
833.0673	27.8294
833.2119	27.80707
833.3566	21.59785
833.5012	20.04721
833.6459	24.92972
833.7905	26.61095
833.9351	20.40568
834.0797	22.52539
834.2243	24.30896
834.3688	26.40703
834.5134	25.31051
834.658	24.78204
834.8026	26.71497
834.9471	23.38465
835.0916	21.1661
835.2361	22.92108
835.3806	21.93742
835.5251	20.95302
835.6696	28.23081
835.8141	27.37733
835.9586	25.84077
836.103	23.42904
836.2474	23.64031
836.3918	20.2254
836.5363	22.42511
836.6807	25.72906
836.8251	23.56519
836.9695	20.47684
837.1138	25.57687
837.2582	27.55492
837.4026	25.62667
837.5469	19.81101
837.6913	22.84767
837.8356	24.79378
837.9799	22.35324
838.1242	24.58749
838.2686	24.12808
838.4128	22.01923
838.5571	22.97844
838.7014	21.72711
838.8456	23.64489
838.9899	27.01812
839.1341	25.29256
839.2783	20.14926
839.4225	17.15358
839.5667	22.73895
839.7109	26.62696
839.8551	25.03049
839.9993	24.40355
840.1434	22.08856
840.2876	22.57421
840.4317	20.64903
840.5759	20.66343
840.72	26.1511
840.8641	25.50198
841.0082	25.80583
841.1523	24.78187
841.2963	18.61647
841.4404	19.95524
841.5845	25.01749
841.7285	25.79708
841.8726	20.72903
842.0165	22.82575
842.1606	19.74664
842.3046	19.45946
842.4485	23.23628
842.5925	22.62339
842.7365	22.94959
842.8805	20.38618
843.0244	22.59991
843.1684	21.52897
843.3123	24.92378
843.4562	21.72166
843.6002	24.43399
843.744	24.34233
843.8879	21.82161
844.0318	22.08687
844.1757	19.12028
844.3195	23.79502
844.4634	27.39183
844.6072	24.01666
844.751	23.2418
844.8948	25.21476
845.0386	23.24486
845.1824	22.11128
845.3262	21.62487
845.47	16.01607
845.6138	18.64352
845.7575	18.26796
845.9012	21.90392
846.045	21.98614
846.1887	20.78075
846.3324	23.57187
846.4761	24.46345
846.6198	23.45543
846.7635	22.48816
846.9071	22.72245
847.0508	19.6357
847.1944	21.32417
847.3381	24.52822
847.4817	21.81246
847.6253	22.64327
847.7689	20.41973
847.9125	23.10454
848.0561	22.1901
848.1996	23.70329
848.3432	22.31478
848.4868	22.57286
848.6303	23.4539
848.7738	23.52085
848.9174	19.28924
849.0609	24.38971
849.2043	21.61257
849.3478	19.05851
849.4913	18.95047
849.6348	20.53751
849.7782	21.88612
849.9217	19.63347
850.0651	20.01319
850.2086	17.55655
850.3519	24.74815
850.4954	23.61896
850.6387	18.87647
850.7821	17.3888
850.9255	20.15543
851.0688	20.39461
851.2122	21.67593
851.3555	19.60991
851.4988	17.41725
851.6422	22.34133
851.7855	19.46344
851.9288	18.89258
852.0721	23.65016
852.2153	22.96872
852.3586	22.12545
852.5018	20.73298
852.6451	20.7786
852.7883	22.12301
852.9315	17.69712
853.0748	18.87852
853.218	22.7282
853.3611	20.58365
853.5043	21.73921
853.6475	14.71474
853.7906	20.85859
853.9338	19.30045
854.0769	21.8558
854.22	18.68338
854.3632	14.77505
854.5063	17.80517
854.6494	20.83176
854.7924	24.72494
854.9355	19.30574
855.0786	18.27921
855.2216	16.39646
855.3647	16.0651
855.5077	19.13695
855.6507	19.17463
855.7937	14.18402
855.9367	15.6736
856.0797	15.83752
856.2227	19.50632
856.3657	19.40198
856.5086	17.65228
856.6516	17.52249
856.7945	22.51346
856.9374	22.14275
857.0803	19.52654
857.2232	18.87548
857.3661	14.87362
857.509	19.4667
857.6519	17.34893
857.7947	15.0165
857.9376	14.76615
858.0804	19.58665
858.2232	20.40237
858.366	16.09397
858.5089	18.56949
858.6516	18.46279
858.7944	13.56984
858.9372	20.72589
859.08	23.33534
859.2227	18.37823
859.3654	16.44761
859.5082	15.09706
859.6509	22.4524
859.7936	21.30617
859.9363	19.26224
860.079	20.2283
860.2217	16.1594
860.3643	19.09656
860.507	19.43716
860.6496	19.73854
860.7922	20.8711
860.9349	23.50871
861.0775	24.10592
861.2201	17.06894
861.3627	16.01206
861.5052	18.0806
861.6478	18.2699
861.7904	20.47253
861.9329	21.76974
862.0755	20.20252
862.218	17.70605
862.3605	22.16731
862.503	20.50543
862.6455	16.63822
862.788	14.49457
862.9305	17.24626
863.0729	17.38221
863.2154	15.09453
863.3578	20.16952
863.5002	20.74706
863.6426	14.45284
863.7851	17.91722
863.9275	14.26915
864.0698	17.61746
864.2122	18.23781
864.3546	21.15586
864.4969	22.46755
864.6393	21.10869
864.7816	15.26665
864.924	18.98493
865.0662	16.352
865.2086	17.37627
865.3508	19.75319
865.4931	14.18113
865.6354	15.87243
865.7776	16.43265
865.9199	15.68311
866.0621	15.08278
866.2043	12.51328
866.3466	15.25106
866.4888	17.5283
866.6309	15.0245
866.7731	15.7563
866.9153	19.69655
867.0574	13.72695
867.1996	16.00793
867.3417	15.21349
867.4839	16.46316
867.626	17.12056
867.7681	19.20296
867.9102	22.79628
868.0522	17.95506
868.1943	14.87773
868.3364	18.99985
868.4785	15.09408
868.6205	11.04221
868.7625	10.80673
868.9045	17.389
869.0465	16.48049
869.1885	12.25849
869.3305	15.98127
869.4725	19.35254
869.6144	21.00681
869.7564	20.73347
869.8983	10.26558
870.0403	15.72984
870.1822	19.06111
870.3241	14.96457
870.466	16.58158
870.6079	17.21931
870.7498	19.26927
870.8916	17.60661
871.0335	16.87035
871.1754	17.73089
871.3171	19.0385
871.459	13.98056
871.6008	18.63873
871.7426	14.83504
871.8844	11.95136
872.0262	12.16366
872.1679	15.1057
872.3097	16.17025
872.4514	18.85731
872.5931	19.70109
872.7349	16.9892
872.8766	13.10656
873.0183	13.16386
873.16	20.28307
873.3017	16.63456
873.4434	15.83535
873.585	17.84733
873.7266	17.40942
873.8683	17.1705
874.0099	19.11174
874.1516	17.92282
874.2932	19.11347
874.4348	19.26681
874.5763	15.0125
874.7179	12.97342
874.8594	17.31774
875.001	17.98022
875.1425	16.99898
875.2841	15.72482
875.4256	11.17162
875.5671	14.43871
875.7086	16.04188
875.85	16.51405
875.9915	14.32116
876.133	14.17032
876.2744	14.9766
876.4159	17.74264
876.5573	14.29124
876.6987	15.73293
876.8401	16.33813
876.9815	12.25412
877.1229	13.20995
877.2643	8.476075
877.4056	13.6642
877.547	16.03776
877.6884	12.3144
877.8297	13.09554
877.971	12.63421
878.1123	14.90492
878.2536	17.77538
878.3949	14.34843
878.5362	15.02275
878.6774	14.73445
878.8187	14.96668
878.9599	16.71836
879.1011	16.97309
879.2424	12.86265
879.3836	18.98378
879.5248	16.33222
879.666	12.74651
879.8071	12.68033
879.9483	13.92699
880.0895	15.498
880.2306	11.66055
880.3718	18.04548
880.5129	14.88882
880.654	15.58158
880.7951	13.8929
880.9362	10.50631
881.0773	13.58406
881.2183	13.2483
881.3594	8.210455
881.5004	9.349545
881.6414	15.66914
881.7825	16.20513
881.9235	13.18914
882.0645	11.8676
882.2054	15.78436
882.3464	13.7054
882.4874	16.70353
882.6284	18.0793
882.7693	14.59762
882.9103	12.17042
883.0512	12.21475
883.1921	12.5804
883.333	12.02195
883.4739	14.28438
883.6147	15.6573
883.7556	15.67036
883.8965	16.39379
884.0374	12.79772
884.1782	14.59329
884.319	16.97542
884.4598	20.36888
884.6006	15.58728
884.7414	11.73248
884.8822	14.45901
885.0229	15.86254
885.1637	9.797827
885.3044	14.26477
885.4452	8.480194
885.5859	10.25481
885.7266	11.96862
885.8673	11.52113
886.008	14.47273
886.1487	10.52168
886.2894	9.735116
886.43	4.237084
886.5707	11.6981
886.7113	9.914383
886.8519	10.83389
886.9926	13.79096
887.1331	11.93782
887.2737	15.61241
887.4143	14.80416
887.5549	16.55721
887.6954	12.07191
887.836	11.86907
887.9765	12.24854
888.1171	12.85876
888.2576	10.10697
888.3981	14.67331
888.5386	13.38857
888.679	10.36705
888.8195	11.23984
888.96	10.48163
889.1004	14.93051
889.2408	11.76435
889.3813	11.08704
889.5217	11.5981
889.6621	12.85069
889.8025	13.00782
889.9429	13.29938
890.0833	15.06358
890.2236	10.34906
890.364	7.740134
890.5043	6.387064
890.6446	11.20646
890.7849	10.04647
890.9252	11.56465
891.0655	9.084723
891.2058	9.797892
891.3461	12.25328
891.4863	15.34962
891.6266	14.1847
891.7668	11.80069
891.907	16.7642
892.0472	14.26414
892.1874	14.9863
892.3276	13.25809
892.4678	17.09043
892.608	14.98621
892.7481	14.23323
892.8883	14.50492
893.0284	16.57778
893.1685	13.36406
893.3087	5.162741
893.4487	10.75219
893.5889	9.314944
893.7289	16.32592
893.869	13.35815
894.009	10.8435
894.1491	11.78234
894.2891	13.8509
894.4291	10.47396
894.5692	12.06252
894.7092	13.34392
894.8491	8.671741
894.9891	7.722703
895.1291	9.432996
895.269	11.1388
895.409	13.49355
895.549	13.22026
895.6888	15.27137
895.8288	14.18185
895.9687	12.76967
896.1086	10.35079
896.2484	7.822553
896.3883	6.124481
896.5281	4.24853
896.668	7.709496
896.8079	10.26495
896.9476	8.761857
897.0875	12.79635
897.2272	15.65285
897.3671	10.50712
897.5068	8.840839
897.6466	10.15073
897.7864	8.10393
897.9261	8.607654
898.0658	9.100463
898.2056	8.902772
898.3453	12.73598
898.4849	13.51262
898.6246	5.299733
898.7643	8.828835
898.904	7.785938
899.0436	8.440928
899.1833	7.751832
899.3229	8.07778
899.4625	14.71154
899.6021	7.229346
899.7417	11.45749
899.8813	14.21703
900.0209	13.14264
900.1605	12.30805
900.3	7.406138
900.4395	9.390213
900.579	13.15351
900.7186	9.753583
900.8581	8.82085
900.9976	7.519241
901.1371	8.576644
901.2766	8.528552
901.416	10.69194
901.5555	8.630108
901.6949	14.28166
901.8344	10.4814
901.9738	10.9892
902.1132	5.803318
902.2526	11.77551
902.3919	10.63027
902.5313	9.626846
902.6707	6.389209
