SPECTRUM DATA FILE
SpectrumCount:	1
PixelCount:	3648
UserName:	ToughBook User
SampleName:	
LightSource:	
Comments:	
DeviceName:	Qwave
DeviceManufacturer:	Broadcom
DeviceSerialNo:	11311

Name:	last spectrum
Date:	2024-05-02T15:02:12.0043360+02:00
ExposureTime:	0.02
TemporalAvg:	1
IntensityUnit:	normalizedCounts
CCDLoadLevel:	0.04173744
Temperature:	29.55258
DiagramColor:	200
ProcessingSteps:	335

Wavelength [nm]	Intensity1
334.421	6.387091
334.5891	7.746283
334.7573	11.40077
334.9254	10.85774
335.0935	10.91493
335.2616	17.43091
335.4297	10.74753
335.5978	15.52158
335.7659	13.70079
335.934	13.90927
336.1021	13.57221
336.2701	10.65738
336.4382	16.39417
336.6063	11.87517
336.7744	13.67677
336.9424	8.807972
337.1105	12.53113
337.2785	9.836064
337.4466	12.31798
337.6146	12.94373
337.7827	12.09816
337.9507	14.1981
338.1187	13.90495
338.2867	14.44492
338.4548	9.70153
338.6228	5.811803
338.7908	11.28655
338.9588	12.37921
339.1268	11.01465
339.2948	11.28813
339.4628	9.607382
339.6308	12.088
339.7988	14.30476
339.9667	11.78734
340.1347	14.91233
340.3027	12.05334
340.4707	12.06196
340.6386	4.467336
340.8066	9.219766
340.9745	13.82501
341.1425	16.00591
341.3104	14.43896
341.4784	12.59587
341.6463	12.19027
341.8142	13.50158
341.9821	13.99549
342.1501	9.405099
342.318	10.2509
342.4859	16.14095
342.6538	14.66338
342.8217	14.60281
342.9896	15.29176
343.1575	11.50324
343.3254	14.49691
343.4933	11.66852
343.6612	10.98719
343.829	14.44406
343.9969	9.25193
344.1648	13.88448
344.3326	14.9493
344.5005	14.56667
344.6683	8.5577
344.8362	9.470401
345.004	13.09559
345.1719	10.10293
345.3397	15.06693
345.5075	17.14605
345.6754	14.87152
345.8432	13.79535
346.011	13.92864
346.1788	14.92212
346.3466	11.41147
346.5144	15.66062
346.6822	13.95015
346.85	9.643671
347.0178	12.29755
347.1856	12.90032
347.3534	15.75278
347.5211	17.152
347.6889	15.30921
347.8567	13.13386
348.0244	13.00541
348.1922	11.17881
348.3599	12.42271
348.5277	14.30408
348.6954	12.99483
348.8632	12.93569
349.0309	9.779782
349.1986	10.24267
349.3663	10.08668
349.5341	14.73361
349.7018	10.11545
349.8695	8.389499
350.0372	17.02156
350.2049	14.02132
350.3726	9.896326
350.5403	12.77925
350.7079	13.782
350.8756	12.29686
351.0433	10.57011
351.211	15.74165
351.3786	14.99867
351.5463	13.30331
351.714	11.15268
351.8816	14.38389
352.0493	18.13308
352.2169	10.55075
352.3846	15.56758
352.5522	14.00163
352.7198	15.21294
352.8875	10.56161
353.0551	10.49596
353.2227	12.77182
353.3903	9.134422
353.5579	8.974527
353.7255	19.38068
353.8931	16.72276
354.0607	15.19844
354.2283	15.38352
354.3958	20.80058
354.5634	13.37027
354.731	14.26184
354.8986	18.29193
355.0661	15.15217
355.2337	13.30625
355.4012	14.36883
355.5688	13.66115
355.7363	13.91354
355.9039	18.21857
356.0714	17.96179
356.239	16.8964
356.4065	14.04278
356.574	18.04617
356.7415	17.5526
356.909	17.36357
357.0765	12.85658
357.244	13.13613
357.4115	12.28541
357.579	18.37424
357.7465	18.10413
357.914	15.59772
358.0815	14.3416
358.249	12.98596
358.4164	14.51166
358.5839	16.1309
358.7513	17.33693
358.9188	15.30433
359.0862	15.81205
359.2537	18.73692
359.4211	17.14242
359.5886	16.91173
359.756	18.06858
359.9234	16.40098
360.0909	20.39529
360.2583	15.6895
360.4257	17.39377
360.5931	14.53315
360.7605	20.55224
360.9279	17.80091
361.0953	18.84934
361.2627	13.48827
361.4301	18.1248
361.5974	20.99281
361.7648	18.54546
361.9322	14.73845
362.0995	12.7001
362.2669	16.17007
362.4343	21.32459
362.6016	19.01193
362.769	20.47935
362.9363	19.04394
363.1036	13.40637
363.271	18.4939
363.4383	16.56537
363.6056	16.21886
363.7729	17.48112
363.9402	21.78422
364.1075	21.8747
364.2748	19.34507
364.4421	18.03684
364.6094	17.11861
364.7767	17.14862
364.944	21.41542
365.1113	21.47438
365.2786	12.38189
365.4458	22.56871
365.6131	22.1371
365.7803	20.93378
365.9476	17.34733
366.1148	14.05255
366.2821	19.61052
366.4493	22.01991
366.6166	17.15604
366.7838	22.79411
366.951	21.96742
367.1182	21.87194
367.2855	18.88817
367.4527	16.6499
367.6199	23.11805
367.7871	21.15868
367.9543	17.55633
368.1215	21.29681
368.2886	17.99486
368.4558	16.07726
368.623	17.12916
368.7902	21.65139
368.9573	20.32456
369.1245	16.41088
369.2917	17.39362
369.4588	19.67497
369.6259	21.05784
369.7931	18.08905
369.9602	22.68987
370.1274	21.16333
370.2945	21.75682
370.4616	17.98726
370.6287	14.29273
370.7958	16.06408
370.963	25.3476
371.1301	21.66276
371.2971	22.70192
371.4643	19.77078
371.6313	25.48245
371.7984	25.79423
371.9655	19.45729
372.1326	20.99066
372.2997	21.42
372.4667	21.38397
372.6338	18.43663
372.8008	21.6726
372.9679	20.94987
373.1349	28.25197
373.3019	18.55729
373.469	18.38334
373.636	17.75986
373.803	25.96973
373.9701	17.26581
374.1371	16.54482
374.3041	23.8148
374.4711	23.78002
374.6381	17.16433
374.8051	17.90103
374.9721	19.01518
375.1391	18.50587
375.3061	20.28497
375.473	22.78021
375.64	26.28601
375.8069	24.37919
375.9739	24.10069
376.1409	21.5039
376.3078	20.04959
376.4748	19.77052
376.6417	18.77696
376.8087	20.7209
376.9756	16.21658
377.1425	21.90876
377.3094	22.47405
377.4763	23.53554
377.6432	22.59286
377.8102	23.35555
377.9771	24.02972
378.144	25.05152
378.3109	23.63707
378.4777	23.26363
378.6446	27.88408
378.8115	25.03329
378.9784	21.38801
379.1452	21.04837
379.3121	16.61245
379.4789	21.7122
379.6458	18.21027
379.8127	23.96017
379.9795	26.62069
380.1463	24.33306
380.3131	25.90906
380.48	23.71177
380.6468	25.14193
380.8136	27.2656
380.9804	26.56592
381.1472	25.96376
381.314	23.3183
381.4808	26.44767
381.6476	22.75768
381.8144	23.45052
381.9812	21.19922
382.148	20.3539
382.3147	22.77582
382.4815	20.49645
382.6483	21.01098
382.815	15.48181
382.9818	15.29593
383.1485	19.95798
383.3153	15.49717
383.482	19.19005
383.6487	18.17798
383.8155	20.67289
383.9822	21.73843
384.1489	22.28291
384.3156	29.56329
384.4823	24.92028
384.649	29.21586
384.8157	31.17224
384.9824	31.67861
385.1491	29.61177
385.3158	27.85929
385.4825	28.1557
385.6491	23.29682
385.8158	20.67532
385.9825	21.75216
386.1491	25.53498
386.3157	24.10969
386.4824	29.20487
386.649	26.61041
386.8157	27.27004
386.9823	27.04221
387.1489	25.20103
387.3156	22.20764
387.4821	24.53071
387.6488	27.75511
387.8154	23.41275
387.982	27.24997
388.1486	29.05647
388.3152	24.58739
388.4818	30.0122
388.6483	28.36708
388.8149	25.77861
388.9815	28.6623
389.148	29.86238
389.3146	32.43893
389.4811	30.1044
389.6477	30.91175
389.8142	30.9142
389.9808	29.4311
390.1473	28.41435
390.3138	31.31344
390.4804	28.64541
390.6469	27.30848
390.8134	30.02492
390.9799	31.7645
391.1464	33.14305
391.3129	36.30764
391.4794	34.4329
391.6459	32.87923
391.8124	35.40139
391.9789	35.36979
392.1453	30.17749
392.3118	28.9134
392.4782	31.44302
392.6447	30.18499
392.8112	26.20701
392.9776	24.43063
393.144	22.93467
393.3105	21.37844
393.4769	25.12638
393.6433	22.19929
393.8098	21.52206
393.9762	29.34843
394.1426	30.91215
394.309	32.2412
394.4754	36.11143
394.6418	32.78006
394.8082	31.73693
394.9746	35.63123
395.141	39.22087
395.3073	36.02174
395.4737	31.68789
395.64	37.60432
395.8064	36.86382
395.9728	36.1501
396.1391	38.48814
396.3055	34.10173
396.4718	36.11619
396.6381	33.53377
396.8045	26.17903
396.9708	20.86028
397.1371	25.29784
397.3034	33.30646
397.4697	35.8505
397.636	32.74089
397.8023	31.49319
397.9686	43.71294
398.1349	38.59243
398.3012	43.86382
398.4675	39.69062
398.6337	42.3698
398.8	42.53637
398.9662	46.5073
399.1325	41.82308
399.2988	48.34911
399.465	44.5729
399.6313	42.85731
399.7975	45.24611
399.9637	48.4985
400.1299	46.55536
400.2961	51.70474
400.4624	43.39397
400.6286	42.85989
400.7948	46.37984
400.961	43.2534
401.1272	49.18854
401.2934	49.17917
401.4595	47.6291
401.6257	50.07825
401.7919	53.56541
401.9581	52.18288
402.1242	50.32767
402.2904	52.56673
402.4565	50.68319
402.6227	50.41019
402.7888	48.08462
402.955	47.28512
403.1211	49.43016
403.2872	48.61678
403.4533	44.55332
403.6194	51.65495
403.7856	47.59951
403.9517	53.23361
404.1177	51.22263
404.2838	50.27998
404.4499	47.8848
404.616	47.83796
404.7821	48.36136
404.9482	49.22323
405.1142	54.86315
405.2803	57.30238
405.4464	52.07938
405.6124	43.76094
405.7784	44.96157
405.9445	45.32023
406.1105	50.90463
406.2766	48.66025
406.4426	52.64717
406.6086	48.49385
406.7746	52.10981
406.9406	50.82519
407.1066	50.08522
407.2726	48.70207
407.4386	50.05278
407.6046	52.13506
407.7706	52.6854
407.9366	54.69442
408.1025	51.02158
408.2685	60.26882
408.4344	52.93178
408.6004	56.09984
408.7664	61.4478
408.9323	63.38731
409.0983	60.03239
409.2642	60.5653
409.4301	58.53524
409.596	61.62185
409.762	54.57643
409.9279	53.29098
410.0938	50.04345
410.2597	49.05396
410.4256	49.35157
410.5915	60.12268
410.7574	62.48131
410.9232	64.66588
411.0891	65.27708
411.255	65.04025
411.4209	63.96523
411.5867	63.27182
411.7526	58.10744
411.9184	57.50024
412.0843	62.11436
412.2501	62.80832
412.4159	60.59251
412.5818	61.08054
412.7476	61.23014
412.9134	61.97674
413.0792	63.64358
413.245	62.28253
413.4108	56.40552
413.5766	62.98489
413.7424	63.04592
413.9082	69.47343
414.074	64.52187
414.2397	65.70015
414.4055	60.22559
414.5713	62.1704
414.737	63.52052
414.9028	65.5332
415.0685	62.82063
415.2343	61.25519
415.4	61.52997
415.5658	61.92137
415.7315	59.45755
415.8972	61.84924
416.0629	63.47749
416.2286	71.36619
416.3943	73.94109
416.56	72.68375
416.7257	71.08033
416.8914	67.54457
417.0571	65.78785
417.2228	65.93401
417.3884	60.95741
417.5541	56.7957
417.7198	60.76427
417.8854	65.48771
418.0511	64.89234
418.2167	65.78171
418.3824	66.95689
418.548	65.18113
418.7136	65.66733
418.8792	63.83428
419.0449	64.20736
419.2105	74.10762
419.3761	69.95156
419.5417	67.78532
419.7073	67.40363
419.8729	64.13884
420.0385	64.91515
420.204	67.02166
420.3696	68.43938
420.5352	71.09817
420.7007	76.74854
420.8663	76.22073
421.0319	67.07727
421.1974	68.96997
421.3629	69.83299
421.5285	69.72333
421.694	73.63656
421.8595	73.62369
422.0251	76.58804
422.1906	72.14046
422.3561	67.35243
422.5216	63.33213
422.6871	57.0314
422.8526	59.44526
423.0181	70.27236
423.1835	71.52966
423.349	78.19221
423.5145	75.13359
423.68	73.70752
423.8454	67.4632
424.0109	74.55695
424.1763	76.10584
424.3418	79.59035
424.5072	75.50923
424.6726	78.64227
424.838	67.79988
425.0035	66.36085
425.1689	67.22827
425.3343	72.73002
425.4997	75.47941
425.6651	75.04017
425.8305	73.73716
425.9959	72.56013
426.1613	71.2181
426.3267	77.57001
426.492	82.74141
426.6574	80.9968
426.8228	73.50849
426.9881	71.59391
427.1534	70.68473
427.3188	74.23331
427.4841	71.60907
427.6495	76.62655
427.8148	71.94357
427.9801	75.17661
428.1454	74.60948
428.3107	70.48787
428.476	77.91776
428.6414	77.6372
428.8066	72.78441
428.9719	77.38664
429.1372	74.15929
429.3025	75.8896
429.4678	70.12281
429.633	71.33398
429.7983	64.16492
429.9636	60.76432
430.1288	56.53249
430.294	51.64331
430.4593	62.89028
430.6245	61.23067
430.7897	58.27605
430.955	54.48877
431.1202	60.51554
431.2854	67.37095
431.4506	73.83691
431.6158	83.29666
431.781	90.22096
431.9462	94.5498
432.1114	90.06365
432.2766	80.37737
432.4417	72.94067
432.6069	68.76291
432.772	73.19621
432.9372	85.97076
433.1024	90.06397
433.2675	92.09645
433.4326	92.03085
433.5977	83.17023
433.7629	78.91319
433.928	72.21205
434.0931	67.99227
434.2582	73.44361
434.4233	80.67778
434.5884	80.69603
434.7535	93.08989
434.9186	90.41293
435.0837	89.55177
435.2488	88.12073
435.4138	83.78137
435.5789	88.89333
435.744	94.23748
435.909	93.78918
436.0741	97.38174
436.2391	98.63371
436.4042	93.28716
436.5692	98.03899
436.7342	98.72363
436.8992	96.12891
437.0643	96.38181
437.2293	97.74404
437.3943	96.52964
437.5593	93.24123
437.7243	95.34933
437.8893	100.0735
438.0542	99.22282
438.2192	90.45131
438.3842	82.52953
438.5491	82.08807
438.7141	86.07682
438.8791	94.82364
439.044	95.68319
439.209	90.87452
439.3739	90.73214
439.5388	100.258
439.7037	100.1265
439.8687	99.1017
440.0336	96.03036
440.1985	102.8865
440.3634	98.77438
440.5283	94.68587
440.6932	92.85906
440.8581	93.91486
441.0229	102.9196
441.1878	106.3324
441.3527	101.3941
441.5175	103.4415
441.6824	105.668
441.8472	108.5434
442.0121	108.3339
442.1769	109.3064
442.3418	107.2038
442.5066	110.6074
442.6714	110.9618
442.8362	108.4598
443.001	107.3121
443.1659	103.5625
443.3307	104.3252
443.4955	107.2145
443.6602	103.2872
443.825	105.1096
443.9898	107.4661
444.1546	111.1139
444.3193	108.2094
444.4841	109.9144
444.6488	111.553
444.8136	116.8754
444.9783	109.8542
445.1431	111.1854
445.3078	105.8579
445.4725	106.4757
445.6372	99.42245
445.802	99.00229
445.9667	100.4657
446.1314	101.4382
446.2961	108.5032
446.4608	111.6022
446.6255	111.5996
446.7901	109.0846
446.9548	110.4488
447.1195	110.4277
447.2841	115.0933
447.4488	119.9209
447.6134	118.4819
447.7781	117.3974
447.9427	117.8894
448.1074	116.2001
448.272	106.14
448.4366	116.1591
448.6012	121.4188
448.7658	123.8172
448.9305	116.5067
449.095	115.0584
449.2596	118.8727
449.4242	120.7868
449.5888	114.0003
449.7534	117.5317
449.9179	121.6991
450.0825	123.9236
450.2471	126.7179
450.4116	127.301
450.5762	130.3193
450.7407	126.1815
450.9052	127.0564
451.0698	126.0484
451.2343	132.8117
451.3988	125.5694
451.5633	123.3984
451.7278	127.1653
451.8923	126.3812
452.0568	125.5203
452.2213	127.3608
452.3858	127.6735
452.5503	119.9908
452.7148	119.6943
452.8792	117.1935
453.0437	114.5027
453.2081	119.2688
453.3726	115.0985
453.537	130.9614
453.7015	125.8315
453.8659	130.5248
454.0303	126.2665
454.1947	127.4019
454.3592	127.3163
454.5236	129.1897
454.688	130.8592
454.8524	131.8342
455.0168	134.8297
455.1811	128.8018
455.3455	130.8318
455.5099	127.7903
455.6743	122.9718
455.8386	128.8104
456.003	133.1164
456.1673	135.1508
456.3317	131.8662
456.496	127.0931
456.6603	133.4205
456.8246	136.1566
456.989	135.1901
457.1533	134.5769
457.3176	136.0443
457.4819	140.5222
457.6462	143.2564
457.8105	136.4314
457.9748	126.9943
458.1391	134.9993
458.3033	131.4454
458.4676	130.1083
458.6319	122.6016
458.7961	134.0598
458.9604	136.4618
459.1246	131.6051
459.2888	126.04
459.4531	125.5051
459.6173	126.8513
459.7815	127.6014
459.9457	131.8937
460.11	131.7902
460.2741	131.8954
460.4384	127.5046
460.6025	127.1289
460.7667	135.5746
460.9309	130.9571
461.0951	136.4321
461.2592	135.5747
461.4234	136.6333
461.5876	137.1388
461.7517	143.4049
461.9159	140.968
462.08	136.6095
462.2441	138.8037
462.4082	132.4419
462.5724	136.3588
462.7365	146.2727
462.9006	141.1123
463.0647	139.8547
463.2288	135.6342
463.3929	141.5189
463.557	139.6577
463.721	134.5559
463.8851	135.4949
464.0492	131.5728
464.2132	139.3507
464.3773	141.4407
464.5414	133.817
464.7054	133.1053
464.8694	130.8133
465.0334	132.9103
465.1975	141.3603
465.3615	134.7241
465.5255	134.7955
465.6895	137.4592
465.8535	140.9555
466.0175	143.4418
466.1815	138.429
466.3455	138.5331
466.5095	138.2508
466.6734	127.4556
466.8374	132.7351
467.0014	134.9379
467.1653	144.3023
467.3293	142.5038
467.4932	138.7986
467.6571	140.6549
467.8211	138.2025
467.985	134.8544
468.1489	136.9444
468.3128	145.5862
468.4767	154.8385
468.6406	140.0464
468.8045	141.4133
468.9684	139.5802
469.1323	138.56
469.2962	141.0223
469.46	146.8174
469.6239	148.2953
469.7878	144.3858
469.9516	142.3036
470.1154	133.8846
470.2793	131.2534
470.4431	134.6454
470.607	138.808
470.7708	139.4698
470.9346	149.6676
471.0984	148.9375
471.2622	142.6081
471.426	145.4711
471.5898	145.7402
471.7536	149.619
471.9174	154.8662
472.0811	157.5463
472.2449	152.3012
472.4087	155.2351
472.5724	151.587
472.7362	151.9378
472.8999	143.3504
473.0637	144.9937
473.2274	141.7149
473.3911	141.9702
473.5548	145.8049
473.7185	145.697
473.8822	145.6698
474.0459	145.8053
474.2096	152.3952
474.3733	155.9479
474.537	153.2426
474.7007	144.9156
474.8643	144.175
475.028	151.8276
475.1917	152.1469
475.3553	146.9375
475.519	142.575
475.6826	153.2211
475.8463	148.8764
476.0099	154.7899
476.1735	145.8755
476.3371	141.7164
476.5007	137.4697
476.6643	141.354
476.8279	133.9361
476.9915	146.41
477.1551	147.1816
477.3187	153.6321
477.4823	148.9919
477.6458	149.0279
477.8094	152.6624
477.9729	155.5076
478.1365	152.2576
478.3	154.4024
478.4636	154.0379
478.6271	149.7034
478.7906	147.4092
478.9541	147.2941
479.1176	147.1636
479.2812	154.671
479.4447	155.1785
479.6082	155.2379
479.7716	148.5044
479.9351	155.924
480.0986	152.4271
480.2621	147.1599
480.4255	145.0867
480.589	150.2619
480.7524	157.4563
480.9159	151.9266
481.0793	152.9942
481.2428	150.4779
481.4062	149.2363
481.5696	151.3284
481.733	159.4163
481.8964	155.0562
482.0598	155.3304
482.2232	154.23
482.3866	153.6264
482.55	149.8043
482.7134	149.2085
482.8768	154.1351
483.0401	153.3891
483.2035	155.7824
483.3668	153.9425
483.5302	153.8365
483.6935	149.5428
483.8568	152.4581
484.0202	156.0814
484.1835	150.1799
484.3468	146.8299
484.5101	152.2396
484.6734	160.0062
484.8367	156.3754
485	157.9206
485.1633	156.8242
485.3266	151.5462
485.4899	142.0087
485.6531	138.6479
485.8164	144.4604
485.9796	135.8526
486.1429	113.7732
486.3061	114.5755
486.4694	132.162
486.6326	136.7956
486.7958	139.019
486.959	150.7823
487.1223	141.1692
487.2855	146.3941
487.4486	146.3488
487.6118	158.898
487.775	158.823
487.9382	154.6963
488.1014	154.4315
488.2646	162.4839
488.4277	160.6524
488.5909	152.0806
488.754	149.4441
488.9171	148.362
489.0803	145.5584
489.2434	140.4887
489.4066	144.629
489.5697	160.0567
489.7328	159.7569
489.8959	160.4232
490.059	162.4526
490.2221	156.1048
490.3852	157.9385
490.5482	150.4175
490.7113	153.961
490.8744	157.7949
491.0374	153.8708
491.2005	162.5142
491.3636	162.7759
491.5266	164.6351
491.6896	158.4641
491.8527	151.5555
492.0157	142.8286
492.1787	149.301
492.3417	149.7766
492.5047	152.9982
492.6677	162.7356
492.8307	164.7075
492.9937	167.5565
493.1567	167.2527
493.3196	165.1611
493.4826	158.4452
493.6456	157.517
493.8085	161.4082
493.9715	156.1232
494.1344	157.6472
494.2974	165.1344
494.4603	168.0511
494.6232	162.4253
494.7861	166.4041
494.949	169.6833
495.1119	172.1173
495.2748	164.6685
495.4377	159.9243
495.6006	161.7508
495.7635	158.5705
495.9264	157.2685
496.0892	166.7811
496.2521	170.986
496.4149	173.8465
496.5778	166.8098
496.7407	166.3314
496.9035	160.8962
497.0663	164.3802
497.2291	164.1847
497.3919	167.8607
497.5547	164.8847
497.7176	163.2881
497.8804	160.9864
498.0432	162.0873
498.2059	159.2007
498.3687	151.141
498.5315	152.6962
498.6942	157.8764
498.857	166.4382
499.0198	175.1831
499.1825	170.1353
499.3452	168.1345
499.508	167.0728
499.6707	164.9304
499.8334	169.4529
499.9962	164.7049
500.1589	163.8989
500.3216	162.7894
500.4843	158.6987
500.6469	159.4489
500.8096	158.6275
500.9723	157.8462
501.135	160.6165
501.2976	159.9597
501.4603	154.4099
501.623	159.5191
501.7856	164.3115
501.9482	158.4281
502.1109	159.0928
502.2735	164.1399
502.4361	163.4911
502.5987	168.4414
502.7614	174.1956
502.924	171.7505
503.0865	170.0984
503.2491	174.2114
503.4117	172.4532
503.5743	171.8345
503.7368	164.877
503.8994	161.381
504.062	158.9356
504.2245	155.7272
504.3871	166.7992
504.5496	168.6872
504.7121	172.6132
504.8746	167.7552
505.0372	163.9435
505.1997	165.2093
505.3622	172.7781
505.5247	178.3471
505.6872	175.0205
505.8497	176.9841
506.0121	177.9126
506.1746	179.4981
506.3371	178.581
506.4995	173.6662
506.662	169.4125
506.8244	173.0457
506.9869	171.3189
507.1493	172.7726
507.3117	174.368
507.4742	175.5049
507.6366	175.9769
507.799	176.1326
507.9614	175.328
508.1238	166.3367
508.2862	163.6439
508.4485	180.3411
508.6109	180.8194
508.7733	177.9276
508.9357	177.6098
509.098	180.9695
509.2604	182.9768
509.4227	184.74
509.5851	175.9774
509.7474	180.2193
509.9097	171.5286
510.072	165.849
510.2343	180.6933
510.3966	181.5471
510.5589	183.3369
510.7212	172.6808
510.8835	174.6771
511.0458	170.32
511.2081	170.6766
511.3703	176.9407
511.5326	179.8543
511.6949	185.8175
511.8571	184.2638
512.0193	179.9958
512.1816	171.8015
512.3438	168.3081
512.506	171.5275
512.6682	165.6219
512.8304	168.8759
512.9926	173.6584
513.1548	176.8076
513.317	176.8372
513.4792	167.695
513.6414	175.936
513.8035	171.196
513.9657	171.5041
514.1279	169.219
514.29	165.2579
514.4521	169.936
514.6143	170.7588
514.7764	171.4474
514.9385	169.6446
515.1006	168.6445
515.2628	175.638
515.4249	173.4059
515.587	175.775
515.7491	177.8638
515.9111	178.7832
516.0732	175.6527
516.2353	165.1836
516.3973	167.4708
516.5594	156.5264
516.7214	149.9659
516.8835	146.0551
517.0455	144.1898
517.2076	147.6962
517.3696	151.8826
517.5316	154.1161
517.6937	165.8275
517.8557	168.5904
518.0176	171.1697
518.1796	166.0108
518.3416	153.4039
518.5036	141.6435
518.6656	156.4471
518.8275	168.0517
518.9895	166.0095
519.1514	163.7771
519.3134	163.0788
519.4753	163.4904
519.6373	169.0436
519.7992	172.1097
519.9611	173.4904
520.123	181.5554
520.2849	185.2039
520.4468	179.8463
520.6087	169.6154
520.7706	166.6797
520.9325	172.8776
521.0944	171.4142
521.2562	174.7622
521.4181	181.9937
521.58	172.9143
521.7418	171.8023
521.9036	173.0305
522.0655	179.9819
522.2273	177.9219
522.3891	180.1569
522.551	179.0199
522.7128	170.1069
522.8746	167.7559
523.0363	175.6139
523.1981	176.6015
523.3599	173.0382
523.5217	170.3043
523.6835	172.3626
523.8452	180.1782
524.007	181.8094
524.1687	185.5431
524.3304	175.1899
524.4922	181.1415
524.6539	183.6612
524.8157	187.9642
524.9774	183.951
525.1391	180.0738
525.3008	180.8413
525.4625	178.5262
525.6241	183.2796
525.7858	187.8211
525.9475	186.3388
526.1092	177.5446
526.2709	176.6419
526.4325	170.2628
526.5942	166.6172
526.7558	164.1937
526.9174	159.8707
527.079	162.6433
527.2407	168.0323
527.4023	173.6441
527.5639	172.3689
527.7255	180.7616
527.8871	186.7774
528.0487	186.3052
528.2103	183.7162
528.3718	180.8867
528.5334	174.677
528.695	184.7974
528.8565	189.2727
529.0181	191.3817
529.1796	189.6543
529.3412	193.2294
529.5027	192.2911
529.6642	184.6567
529.8257	181.7736
529.9872	180.3775
530.1487	181.2797
530.3102	186.6244
530.4717	188.152
530.6332	187.088
530.7947	187.0116
530.9562	193.6848
531.1176	196.5064
531.2791	190.8203
531.4405	184.3138
531.6019	185.7829
531.7634	190.4614
531.9248	190.6216
532.0862	194.6413
532.2477	188.2214
532.4091	184.2439
532.5704	181.1313
532.7319	173.5138
532.8932	169.3288
533.0546	173.6094
533.216	179.6611
533.3774	186.8581
533.5388	183.0196
533.7001	178.0426
533.8615	183.398
534.0228	179.3979
534.1841	175.8085
534.3455	186.0676
534.5068	188.4584
534.6681	183.1478
534.8293	178.656
534.9907	177.2895
535.152	186.4486
535.3132	185.4716
535.4745	184.6677
535.6358	192.8112
535.7971	194.337
535.9583	197.9224
536.1196	194.2315
536.2808	193.4579
536.4421	183.2473
536.6033	186.8097
536.7645	181.9697
536.9258	178.0405
537.087	183.8207
537.2482	182.2713
537.4094	177.7169
537.5706	183.5734
537.7318	191.2704
537.8929	189.9058
538.0541	182.6667
538.2153	175.2156
538.3764	175.8716
538.5376	178.8424
538.6987	185.323
538.8599	183.3403
539.021	184.2231
539.1821	177.1529
539.3432	183.6119
539.5043	182.4488
539.6655	181.4583
539.8265	181.73
539.9876	175.9181
540.1487	177.4437
540.3098	173.8191
540.4708	169.7448
540.6319	165.4458
540.793	171.1205
540.954	176.3027
541.1151	178.5199
541.2761	173.794
541.4371	173.417
541.5981	171.8266
541.7592	180.8896
541.9202	176.4495
542.0812	183.2906
542.2422	183.3687
542.4031	180.4548
542.5641	181.5519
542.7251	188.053
542.886	182.4805
543.0471	171.651
543.208	175.0246
543.369	179.1957
543.5298	178.7776
543.6908	178.2378
543.8517	183.8707
544.0126	187.9571
544.1736	188.8007
544.3345	185.5556
544.4954	178.4315
544.6563	174.8128
544.8171	182.9582
544.978	180.4795
545.1389	187.7428
545.2997	188.7279
545.4606	185.2742
545.6215	183.1443
545.7823	186.3675
545.9432	183.449
546.104	181.5188
546.2648	182.9984
546.4256	178.5623
546.5864	179.7331
546.7473	182.6582
546.908	183.5745
547.0688	190.9212
547.2296	194.6553
547.3904	188.8167
547.5511	185.5628
547.7119	177.116
547.8727	182.4849
548.0334	185.3472
548.1942	175.7838
548.3549	183.7248
548.5156	186.1136
548.6763	190.0562
548.837	186.1547
548.9977	185.559
549.1584	184.9561
549.3192	188.44
549.4798	187.2321
549.6405	182.8831
549.8011	191.3005
549.9619	183.4701
550.1225	177.3987
550.2831	178.8894
550.4438	179.0524
550.6044	175.0205
550.765	186.3424
550.9257	188.0329
551.0863	185.7165
551.2469	187.0882
551.4075	186.6174
551.5681	184.1308
551.7287	194.5068
551.8893	186.8568
552.0498	186.2715
552.2104	191.7901
552.371	188.015
552.5315	187.7534
552.6921	186.0387
552.8526	180.5313
553.0131	184.086
553.1736	187.6743
553.3342	183.1179
553.4947	184.8041
553.6552	189.9178
553.8157	194.2153
553.9762	189.3785
554.1367	191.6092
554.2971	193.6151
554.4576	185.0517
554.618	181.5373
554.7785	184.435
554.939	193.9702
555.0994	188.8641
555.2598	183.576
555.4203	187.0168
555.5807	183.0771
555.7411	180.4058
555.9015	184.6347
556.0619	184.6392
556.2223	183.7207
556.3827	185.8762
556.5431	187.1521
556.7034	176.5749
556.8638	178.4389
557.0242	180.4658
557.1845	180.4929
557.3448	184.9065
557.5052	181.0649
557.6655	186.2486
557.8259	182.6031
557.9861	185.9047
558.1465	186.9052
558.3068	182.019
558.467	175.8405
558.6274	171.9991
558.7877	169.9448
558.9479	171.2831
559.1082	178.1959
559.2684	173.6198
559.4287	178.1204
559.5889	180.6318
559.7491	175.3526
559.9094	176.2957
560.0696	174.9121
560.2299	172.8495
560.3901	175.9803
560.5502	180.7056
560.7104	182.5019
560.8707	180.5579
561.0308	183.7824
561.191	183.5558
561.3511	180.306
561.5114	177.7271
561.6714	176.1424
561.8316	178.0527
561.9918	184.4084
562.1519	177.6724
562.312	169.8361
562.4722	172.4168
562.6323	170.9151
562.7924	176.123
562.9525	178.7758
563.1125	181.7515
563.2726	181.5716
563.4327	172.6939
563.5928	183.3521
563.7528	174.2503
563.9129	179.5647
564.0729	173.4638
564.233	171.833
564.393	173.6966
564.553	177.0729
564.7131	176.8651
564.873	179.934
565.0331	177.1377
565.1931	181.9258
565.353	175.678
565.5131	171.7567
565.673	168.3254
565.833	167.7611
565.9929	163.3416
566.1529	169.1664
566.3129	180.6623
566.4728	178.3205
566.6328	170.3556
566.7927	173.356
566.9526	182.527
567.1125	173.6356
567.2724	179.1126
567.4323	178.0942
567.5922	176.8407
567.7521	174.2993
567.9119	173.2563
568.0718	178.0252
568.2317	178.01
568.3915	181.0995
568.5514	175.2533
568.7112	173.2765
568.871	173.4957
569.0309	170.9585
569.1907	172.9946
569.3505	172.341
569.5103	176.7155
569.6701	176.8521
569.8299	179.0301
569.9897	171.8484
570.1495	163.6199
570.3092	164.686
570.469	165.6003
570.6287	175.3328
570.7885	172.446
570.9482	165.1073
571.108	160.5003
571.2677	158.2201
571.4274	166.1884
571.5871	165.3072
571.7468	178.5346
571.9066	179.188
572.0662	174.7946
572.2259	174.5967
572.3856	177.9876
572.5452	171.2471
572.7049	170.5213
572.8646	178.7654
573.0242	175.493
573.1838	171.4497
573.3435	172.4253
573.5031	179.1437
573.6627	175.0594
573.8223	171.1925
573.9819	173.8185
574.1415	181.3898
574.3011	177.1132
574.4607	181.4928
574.6203	177.1002
574.7798	175.3243
574.9394	174.2496
575.099	169.6135
575.2585	166.3837
575.418	168.0085
575.5776	169.1303
575.7371	177.0038
575.8966	177.5309
576.0562	173.8199
576.2156	166.556
576.3751	168.7707
576.5346	177.7176
576.6941	177.5544
576.8536	172.6377
577.0131	172.4489
577.1725	169.9549
577.332	171.7649
577.4914	176.2878
577.6508	177.3491
577.8103	173.7473
577.9697	172.9864
578.1291	171.2365
578.2885	169.3366
578.4479	166.2053
578.6073	167.2189
578.7667	169.05
578.9261	163.4698
579.0854	166.3115
579.2448	161.1563
579.4042	165.1975
579.5635	168.747
579.7229	166.2339
579.8822	169.0055
580.0416	173.1122
580.2009	163.989
580.3602	170.0338
580.5195	166.8276
580.6788	169.3341
580.8381	172.9955
580.9974	168.3987
581.1566	168.9798
581.3159	170.0276
581.4752	169.8223
581.6345	168.9874
581.7937	164.3369
581.9529	168.3962
582.1122	166.5053
582.2714	164.5105
582.4306	168.3834
582.5898	167.7527
582.749	164.1273
582.9082	164.6986
583.0674	175.2543
583.2266	171.391
583.3857	167.4587
583.5449	173.1846
583.7041	165.6932
583.8633	160.7997
584.0224	158.5712
584.1815	167.1165
584.3407	171.4961
584.4998	165.5665
584.6589	162.5845
584.818	161.7116
584.9771	162.9692
585.1362	153.1187
585.2953	159.4638
585.4544	163.9476
585.6135	160.2914
585.7725	157.5932
585.9316	157.3147
586.0906	160.9489
586.2497	160.632
586.4087	157.8384
586.5677	158.1972
586.7267	160.5638
586.8858	166.9866
587.0448	161.2649
587.2038	160.7388
587.3628	161.3811
587.5218	160.6354
587.6807	156.7074
587.8397	157.9234
587.9987	153.6296
588.1577	158.4562
588.3166	163.2763
588.4755	156.5349
588.6345	151.3058
588.7934	152.5658
588.9523	146.2568
589.1112	141.5044
589.2701	141.1826
589.429	138.6716
589.5879	143.0456
589.7468	144.1404
589.9056	145.1857
590.0645	148.852
590.2234	151.534
590.3822	156.83
590.5411	158.6442
590.6999	164.141
590.8588	157.3639
591.0176	154.626
591.1764	153.3827
591.3352	153.1663
591.494	152.2146
591.6528	147.9158
591.8116	156.7974
591.9703	154.3145
592.1291	152.2835
592.2878	154.1772
592.4467	156.82
592.6053	153.7541
592.7641	149.2598
592.9229	152.7905
593.0816	156.9072
593.2403	146.3781
593.399	154.1333
593.5577	155.0424
593.7164	155.3916
593.8751	159.0445
594.0338	157.2762
594.1924	152.3575
594.3511	153.5531
594.5098	149.8918
594.6684	151.869
594.8271	151.9881
594.9857	151.2309
595.1443	148.6913
595.303	146.7595
595.4615	152.6161
595.6202	154.5097
595.7787	158.6954
595.9374	152.3418
596.0959	152.9763
596.2545	150.5764
596.4131	157.4617
596.5717	146.1517
596.7302	151.5006
596.8887	156.8191
597.0473	157.705
597.2058	154.52
597.3644	154.0557
597.5229	149.6094
597.6814	155.9766
597.8399	155.0662
597.9984	152.897
598.1569	151.1872
598.3154	149.3081
598.4738	152.0734
598.6323	159.1207
598.7908	155.7478
598.9492	155.4675
599.1076	152.3903
599.2661	154.0586
599.4245	154.0887
599.5829	157.6338
599.7413	157.3889
599.8997	153.3867
600.0581	159.2292
600.2165	150.2209
600.3749	152.7295
600.5333	149.7271
600.6917	152.3498
600.85	152.1345
601.0084	155.7546
601.1667	158.3639
601.325	154.2982
601.4833	152.1675
601.6417	150.0875
601.8	151.8501
601.9583	156.3265
602.1166	152.1023
602.2749	153.9924
602.4332	143.5755
602.5914	147.7949
602.7498	150.0924
602.908	153.8345
603.0662	158.8227
603.2245	154.2628
603.3828	155.069
603.541	153.7602
603.6992	158.75
603.8574	152.6622
604.0156	154.3006
604.1738	154.1177
604.332	149.6981
604.4902	151.4611
604.6484	150.3999
604.8065	148.5347
604.9647	157.3091
605.1229	148.6941
605.281	145.1142
605.4391	148.0965
605.5973	152.7347
605.7554	150.4522
605.9135	144.3881
606.0717	148.9457
606.2297	149.9044
606.3878	151.9335
606.5459	150.3545
606.704	144.8845
606.8621	149.8824
607.0201	155.2783
607.1782	156.725
607.3362	156.2736
607.4943	149.2689
607.6523	154.7253
607.8104	156.5282
607.9684	149.0172
608.1264	155.3271
608.2844	150.3117
608.4424	146.6214
608.6003	144.261
608.7584	148.1771
608.9163	149.8684
609.0743	148.9901
609.2322	152.3081
609.3902	149.2277
609.5482	152.5513
609.7061	150.091
609.864	149.3953
610.0219	147.7776
610.1798	146.6155
610.3377	153.723
610.4956	147.5408
610.6535	146.7308
610.8114	147.2866
610.9693	147.1482
611.1271	150.9637
611.285	149.996
611.4429	149.4534
611.6007	152.8678
611.7585	148.116
611.9164	151.0004
612.0742	145.3694
612.232	142.3367
612.3898	142.9273
612.5476	137.9404
612.7054	144.1467
612.8632	147.1647
613.0209	144.2427
613.1787	148.8919
613.3365	143.833
613.4942	141.1531
613.652	142.489
613.8097	137.2291
613.9674	138.0583
614.1252	144.507
614.2829	143.3116
614.4406	135.9948
614.5983	143.7795
614.756	146.4787
614.9136	141.5784
615.0714	142.6207
615.229	145.7392
615.3867	140.3623
615.5443	142.4652
615.702	144.4579
615.8596	141.4385
616.0172	141.5282
616.1748	140.8705
616.3325	134.7554
616.4901	138.9789
616.6476	141.5746
616.8052	139.933
616.9628	135.1356
617.1204	135.3894
617.278	136.2151
617.4355	138.7216
617.5931	139.8726
617.7506	137.6687
617.9081	137.9935
618.0657	136.7604
618.2232	137.5205
618.3807	139.9164
618.5382	145.2359
618.6957	144.1441
618.8532	139.8091
619.0107	133.2923
619.1682	137.9044
619.3256	136.3227
619.4831	132.9284
619.6406	144.2237
619.798	135.7609
619.9554	133.6971
620.1129	147.1805
620.2703	142.03
620.4277	142.9059
620.5851	135.3947
620.7425	140.5148
620.8998	142.4128
621.0573	145.9693
621.2146	136.5275
621.372	133.9918
621.5294	136.092
621.6867	134.7722
621.8441	135.6537
622.0013	133.9447
622.1587	133.4582
622.316	131.6741
622.4733	137.7997
622.6306	142.4548
622.7879	137.7794
622.9452	137.843
623.1025	141.9184
623.2598	137.3275
623.4171	136.9393
623.5743	136.1522
623.7316	134.1439
623.8888	140.2871
624.046	137.8982
624.2032	134.6716
624.3605	132.5108
624.5176	133.3521
624.6749	132.2532
624.8321	138.0342
624.9893	134.5838
625.1464	136.2827
625.3036	135.5275
625.4608	131.343
625.6179	130.0179
625.7751	133.6042
625.9322	132.2975
626.0894	137.3093
626.2465	139.0307
626.4036	133.8069
626.5607	128.0124
626.7178	133.6547
626.8749	133.0168
627.032	130.4284
627.189	128.6206
627.3461	132.8811
627.5032	132.4598
627.6602	130.0234
627.8173	128.5704
627.9743	132.2061
628.1313	132.5985
628.2884	136.7523
628.4454	132.1631
628.6024	128.8781
628.7594	133.8017
628.9164	135.3867
629.0734	132.693
629.2303	135.2527
629.3873	131.1045
629.5443	132.2723
629.7012	133.8324
629.8582	134.8778
630.0151	126.1206
630.172	125.4973
630.3289	125.0027
630.4858	126.7204
630.6428	128.4895
630.7996	131.0585
630.9565	133.0593
631.1134	130.431
631.2703	128.2337
631.4272	129.2756
631.584	126.8635
631.7408	126.7424
631.8977	129.4135
632.0546	127.8424
632.2114	127.7887
632.3682	131.4991
632.525	126.8796
632.6818	130.0233
632.8386	132.4255
632.9954	129.5101
633.1522	132.392
633.3089	132.7466
633.4657	133.7497
633.6224	131.4782
633.7792	125.5226
633.9359	122.5946
634.0927	129.5791
634.2494	127.5601
634.4061	126.6064
634.5628	129.257
634.7195	130.0477
634.8762	128.8309
635.0329	128.3571
635.1895	124.571
635.3462	133.3718
635.5029	139.5464
635.6595	133.6571
635.8162	129.7725
635.9728	128.2253
636.1295	128.0049
636.2861	130.0306
636.4427	120.6217
636.5992	128.8965
636.7559	127.9718
636.9124	132.4617
637.069	138.9134
637.2256	132.9301
637.3821	128.3662
637.5387	128.9126
637.6953	132.1137
637.8518	127.4438
638.0084	126.9902
638.1649	122.3243
638.3214	121.2512
638.4779	127.1923
638.6344	131.9022
638.7909	133.3133
638.9474	132.6556
639.1038	128.561
639.2603	121.7164
639.4167	128.0667
639.5732	126.268
639.7297	126.5533
639.8861	126.0072
640.0425	126.4839
640.199	121.6347
640.3553	126.3482
640.5118	124.8324
640.6682	121.8003
640.8245	127.4231
640.981	129.3587
641.1373	125.6526
641.2936	128.2397
641.45	134.5366
641.6064	125.6855
641.7627	124.237
641.9191	127.6567
642.0754	129.1814
642.2317	127.8589
642.388	123.9937
642.5443	126.1837
642.7006	126.9063
642.8569	132.5177
643.0131	116.9376
643.1694	113.033
643.3257	123.3633
643.4819	123.3925
643.6382	128.2671
643.7944	121.8441
643.9506	125.9135
644.1069	122.7335
644.2631	126.2748
644.4193	120.7157
644.5754	118.5896
644.7316	122.9302
644.8878	128.4112
645.044	135.0855
645.2002	126.3055
645.3563	123.0721
645.5125	121.529
645.6686	120.6676
645.8248	128.3754
645.9809	122.3663
646.137	124.7021
646.2931	121.0455
646.4492	116.6022
646.6053	119.4492
646.7614	120.4995
646.9174	119.8968
647.0735	117.3815
647.2296	117.8694
647.3856	116.4581
647.5417	117.2845
647.6977	122.4998
647.8537	120.0795
648.0098	124.0118
648.1658	118.8067
648.3218	114.9541
648.4777	115.2642
648.6337	116.6239
648.7897	112.9807
648.9457	116.3152
649.1016	115.4505
649.2576	108.7881
649.4135	109.256
649.5695	109.6003
649.7254	111.1504
649.8813	109.9485
650.0372	118.5271
650.1932	113.4153
650.3491	117.2528
650.5049	110.7519
650.6608	116.4913
650.8167	118.1838
650.9725	114.9092
651.1284	110.0932
651.2842	109.3466
651.4401	112.3805
651.5959	111.0595
651.7518	115.6474
651.9076	113.7272
652.0634	114.2717
652.2192	113.9639
652.3749	113.2247
652.5308	112.2644
652.6865	114.8328
652.8423	115.1375
652.998	116.2028
653.1538	112.5551
653.3096	114.9155
653.4653	120.2355
653.621	117.6609
653.7767	112.9069
653.9324	112.6659
654.0881	114.8084
654.2438	117.577
654.3995	114.3993
654.5552	115.6469
654.7109	115.3015
654.8665	113.4488
655.0222	113.6875
655.1778	110.9892
655.3334	110.6423
655.4891	106.203
655.6447	109.8712
655.8003	112.41
655.9559	104.7506
656.1115	96.56079
656.2671	89.99126
656.4227	91.70005
656.5782	99.69398
656.7338	99.9368
656.8893	104.6994
657.0449	109.6282
657.2004	107.2749
657.356	111.5277
657.5115	111.3377
657.667	110.9217
657.8225	112.2037
657.978	114.8212
658.1335	118.4897
658.289	121.2925
658.4445	116.5365
658.5999	108.7464
658.7554	105.5192
658.9108	117.1932
659.0663	112.9934
659.2217	108.9181
659.3771	111.9009
659.5325	113.0988
659.6879	115.5714
659.8433	111.1061
659.9987	115.9591
660.1541	111.3598
660.3095	113.4873
660.4648	111.8304
660.6202	113.2021
660.7756	116.9813
660.9309	115.1926
661.0862	110.8667
661.2416	112.4439
661.3969	111.7453
661.5522	116.5762
661.7075	118.3639
661.8628	119.1824
662.0181	113.6776
662.1733	112.8606
662.3286	106.7754
662.4839	114.0387
662.6391	115.9576
662.7944	111.3628
662.9496	113.8192
663.1048	117.163
663.26	106.9845
663.4152	107.0818
663.5704	111.3929
663.7256	110.9945
663.8808	114.7464
664.036	111.0912
664.1912	112.0738
664.3463	108.6089
664.5015	111.47
664.6566	112.8451
664.8118	117.3201
664.9669	112.5717
665.122	110.523
665.2771	110.6927
665.4322	111.7529
665.5873	111.1711
665.7424	112.3169
665.8975	114.4324
666.0526	119.8868
666.2076	115.7996
666.3627	110.2927
666.5177	110.7573
666.6727	111.1363
666.8278	111.5587
666.9828	108.1942
667.1378	112.5297
667.2928	111.8052
667.4478	108.8835
667.6028	109.0644
667.7578	109.3772
667.9127	111.0478
668.0677	105.9666
668.2226	111.4415
668.3776	109.2372
668.5325	112.7483
668.6874	109.6228
668.8423	112.2735
668.9973	113.2469
669.1522	114.1529
669.3071	113.0384
669.4619	112.6424
669.6168	109.5832
669.7717	105.574
669.9265	109.0617
670.0814	111.2974
670.2362	108.4603
670.3911	103.4945
670.5459	107.0429
670.7007	104.8944
670.8555	110.3402
671.0103	108.458
671.1651	109.6743
671.3199	106.4695
671.4747	109.429
671.6295	110.6214
671.7842	104.3333
671.939	103.2977
672.0937	107.7008
672.2484	107.1652
672.4031	108.3481
672.5579	108.9132
672.7126	103.9189
672.8673	101.045
673.022	105.3904
673.1767	109.1588
673.3314	112.7452
673.486	110.3602
673.6407	109.794
673.7953	108.8232
673.95	108.5785
674.1046	105.6848
674.2592	104.9778
674.4138	98.90589
674.5684	103.8177
674.723	102.9956
674.8776	111.1547
675.0322	106.4388
675.1868	101.6018
675.3414	101.7912
675.4959	97.86276
675.6505	100.4271
675.805	107.593
675.9595	108.81
676.1141	104.4577
676.2686	105.2727
676.4231	104.9937
676.5776	105.5503
676.7321	103.1237
676.8866	105.6607
677.041	106.1277
677.1955	101.9195
677.35	105.3572
677.5044	99.00932
677.6589	97.85114
677.8133	102.5554
677.9677	104.7356
678.1221	101.1701
678.2766	102.7589
678.4309	99.80296
678.5853	103.3143
678.7397	109.3653
678.8941	102.2691
679.0485	95.2115
679.2028	97.13207
679.3571	103.4987
679.5115	99.7881
679.6658	106.4539
679.8201	97.45254
679.9744	100.8753
680.1288	104.5088
680.2831	97.33223
680.4373	96.87801
680.5916	100.2702
680.7459	102.0726
680.9001	94.95154
681.0544	94.30598
681.2087	93.45672
681.3629	100.377
681.5171	101.9151
681.6713	99.06811
681.8256	101.2039
681.9797	93.49159
682.134	92.61015
682.2881	96.61857
682.4423	98.16221
682.5965	99.89527
682.7507	96.3233
682.9048	93.91883
683.059	97.67712
683.2131	98.74405
683.3672	95.11301
683.5213	93.23063
683.6754	90.1006
683.8295	94.70082
683.9836	92.799
684.1377	94.15945
684.2918	98.61894
684.4459	91.29805
684.5999	91.22207
684.754	100.4985
684.908	97.23877
685.062	97.4586
685.2161	94.90235
685.3701	93.81521
685.5241	93.36863
685.6781	96.25778
685.8321	92.73322
685.9861	92.58608
686.14	92.51926
686.294	92.56956
686.4479	87.2698
686.6019	89.75959
686.7559	83.97935
686.9098	77.92741
687.0637	74.13877
687.2176	73.40511
687.3715	76.12146
687.5254	80.91287
687.6793	76.63615
687.8332	80.03323
687.9871	81.67844
688.1409	83.83327
688.2947	89.72285
688.4486	90.19327
688.6024	87.85419
688.7563	82.39538
688.9101	80.49014
689.0639	87.44124
689.2177	83.26968
689.3715	81.76241
689.5253	79.66692
689.6791	83.60472
689.8328	84.34618
689.9866	85.4913
690.1403	87.79803
690.2941	80.8382
690.4478	77.04457
690.6015	78.90376
690.7552	82.67289
690.9089	78.16064
691.0626	82.58619
691.2164	82.3102
691.37	86.37016
691.5237	88.50892
691.6774	85.54316
691.831	89.35445
691.9847	89.18345
692.1383	80.03465
692.2919	84.48508
692.4456	85.089
692.5992	84.40378
692.7527	84.39465
692.9064	88.18616
693.0599	78.58736
693.2136	82.15218
693.3671	81.78475
693.5207	86.73637
693.6742	85.15309
693.8278	86.86628
693.9813	84.39075
694.1348	83.18658
694.2883	76.42078
694.4418	76.86886
694.5953	80.08772
694.7488	82.53968
694.9023	84.13796
695.0558	84.94734
695.2093	81.11507
695.3627	79.79591
695.5162	79.31493
695.6696	82.96334
695.8231	80.81563
695.9764	80.70339
696.1299	84.52809
696.2833	86.9129
696.4367	84.17719
696.5901	84.04831
696.7435	82.20092
696.8968	80.55441
697.0502	85.00421
697.2036	88.5797
697.3569	84.02104
697.5102	85.91463
697.6635	80.80884
697.8168	76.30756
697.9702	84.68913
698.1235	83.38802
698.2768	83.51035
698.4301	83.68896
698.5833	84.85228
698.7366	80.33451
698.8898	83.27952
699.0431	79.10886
699.1964	81.57951
699.3495	76.75099
699.5028	81.26242
699.656	83.97993
699.8092	85.14787
699.9624	80.12875
700.1156	81.45827
700.2688	82.0464
700.4219	75.73273
700.5751	77.94746
700.7283	78.4286
700.8814	78.16473
701.0345	80.62556
701.1877	80.87347
701.3408	78.90659
701.4939	72.83097
701.647	78.00903
701.8001	74.50905
701.9532	77.74686
702.1063	78.64061
702.2593	75.24052
702.4124	79.79829
702.5654	80.94986
702.7184	77.04545
702.8715	83.61506
703.0245	81.90909
703.1776	77.48921
703.3305	74.10408
703.4835	78.9975
703.6365	82.25936
703.7895	79.70837
703.9424	82.16541
704.0954	74.90344
704.2484	79.32368
704.4013	78.02817
704.5543	76.54665
704.7072	79.81895
704.8601	78.29487
705.013	76.92354
705.1659	85.10284
705.3188	75.60786
705.4717	80.89924
705.6246	83.68778
705.7774	83.86603
705.9303	83.54127
706.0831	79.7401
706.236	79.70515
706.3888	83.30616
706.5416	80.2685
706.6944	83.67415
706.8472	75.89629
707	83.80229
707.1528	77.71248
707.3056	85.42406
707.4583	80.6179
707.6111	80.92395
707.7639	82.02692
707.9166	79.03031
708.0693	83.71793
708.222	80.98397
708.3748	85.69172
708.5275	81.55816
708.6802	77.60113
708.8328	77.17995
708.9855	77.47817
709.1382	73.91122
709.2909	74.68214
709.4435	74.9487
709.5962	76.57436
709.7488	81.72641
709.9014	77.81029
710.054	77.16199
710.2067	77.38939
710.3593	78.32674
710.5118	78.68356
710.6644	78.45229
710.817	78.18919
710.9695	74.9154
711.1221	78.02037
711.2747	78.21377
711.4272	75.713
711.5797	76.38367
711.7322	74.94407
711.8848	77.03265
712.0373	80.75054
712.1898	75.17962
712.3422	73.35517
712.4948	72.56818
712.6472	77.42744
712.7996	74.67085
712.9521	75.32314
713.1046	80.6072
713.257	76.76047
713.4094	78.54275
713.5618	76.361
713.7142	77.27631
713.8666	79.09495
714.019	76.11599
714.1714	73.16671
714.3237	75.27404
714.4761	74.42848
714.6285	71.16908
714.7808	71.75488
714.9331	70.59829
715.0854	73.48897
715.2378	73.54447
715.3901	79.54398
715.5424	81.06087
715.6947	79.08699
715.8469	77.5079
715.9992	74.23782
716.1515	75.28368
716.3037	76.60012
716.456	75.90808
716.6082	70.49074
716.7604	68.12431
716.9127	66.26856
717.0649	67.26525
717.2171	64.59341
717.3693	64.46318
717.5214	65.94363
717.6736	66.32951
717.8258	65.23172
717.978	68.89761
718.1301	68.94448
718.2822	65.24792
718.4344	66.41232
718.5865	62.7524
718.7386	60.95793
718.8907	64.68922
719.0428	64.89751
719.1949	60.95316
719.3469	60.20477
719.499	63.76004
719.6511	67.06287
719.8031	63.68959
719.9551	61.22935
720.1072	59.76344
720.2592	62.43675
720.4112	64.05269
720.5632	64.84196
720.7152	69.10072
720.8672	64.42889
721.0192	64.63283
721.1711	72.71354
721.3231	74.00467
721.475	69.0064
721.627	69.46825
721.7789	73.20126
721.9308	73.80963
722.0828	67.33752
722.2347	68.35211
722.3866	70.2177
722.5385	68.39707
722.6903	63.16651
722.8422	72.30476
722.9941	68.56021
723.1459	67.7458
723.2977	66.34011
723.4496	64.08151
723.6014	57.77906
723.7532	61.16388
723.905	61.94381
724.0568	63.31432
724.2086	68.84875
724.3604	62.45705
724.5121	58.94326
724.6639	62.41327
724.8157	62.64457
724.9674	63.79036
725.1191	65.5676
725.2709	58.18115
725.4226	56.9701
725.5743	58.25829
725.726	56.30577
725.8777	66.98898
726.0294	64.49683
726.181	66.59075
726.3327	66.97773
726.4844	67.66361
726.636	62.04832
726.7877	62.74977
726.9393	61.83411
727.0909	68.70554
727.2425	63.73653
727.3941	64.28428
727.5457	61.45669
727.6973	65.3312
727.8488	60.18807
728.0004	66.10325
728.1519	67.87092
728.3035	65.19836
728.455	64.11761
728.6066	67.47624
728.7581	65.97478
728.9095	65.15195
729.0611	60.71718
729.2126	58.82479
729.364	63.62674
729.5155	66.41216
729.667	68.3589
729.8184	66.11545
729.9698	67.28427
730.1213	64.39517
730.2727	62.02858
730.4241	63.49997
730.5756	62.05454
730.7269	66.70455
730.8784	67.14658
731.0297	57.18717
731.1811	53.7522
731.3325	61.85808
731.4838	68.32136
731.6351	67.84387
731.7865	64.75561
731.9378	68.52114
732.0891	65.73633
732.2404	65.33324
732.3917	64.1348
732.543	67.31665
732.6943	68.63757
732.8456	63.5662
732.9968	64.50594
733.1481	69.68687
733.2993	69.37671
733.4506	72.00331
733.6018	66.94916
733.753	68.80263
733.9042	68.96471
734.0554	67.209
734.2066	67.50436
734.3578	67.84364
734.509	67.49079
734.6602	62.79921
734.8113	65.66402
734.9624	59.29694
735.1136	64.32521
735.2647	71.63022
735.4158	70.01152
735.5669	65.19978
735.718	65.39938
735.8691	65.82357
736.0201	68.63231
736.1713	63.07061
736.3223	61.60221
736.4733	60.84897
736.6244	63.15874
736.7755	66.01586
736.9265	63.58704
737.0775	62.69406
737.2285	66.77734
737.3795	67.60431
737.5305	64.18075
737.6815	67.0686
737.8324	70.55215
737.9834	61.68086
738.1343	64.77128
738.2853	70.56959
738.4362	62.8909
738.5871	63.01868
738.738	64.54285
738.8889	66.26122
739.0399	63.32137
739.1907	62.25337
739.3416	60.33953
739.4925	65.0586
739.6433	66.06261
739.7942	64.80831
739.945	66.11851
740.0958	66.204
740.2467	65.67017
740.3975	63.70066
740.5483	65.4604
740.6991	64.58255
740.8499	63.68421
741.0007	63.5019
741.1514	62.20405
741.3022	65.4615
741.4529	66.55729
741.6036	66.52673
741.7544	66.29411
741.9051	58.94092
742.0558	63.83872
742.2065	61.15868
742.3572	61.74288
742.5079	62.33636
742.6586	63.44082
742.8093	59.35201
742.9599	62.14695
743.1105	63.1346
743.2612	63.79314
743.4118	65.39279
743.5624	63.12273
743.7131	64.43031
743.8636	65.90266
744.0142	65.86684
744.1648	62.30974
744.3154	59.17012
744.4659	62.15715
744.6165	58.0572
744.767	63.31185
744.9176	69.09448
745.0681	62.76711
745.2186	57.04871
745.3691	61.20202
745.5197	58.43513
745.6702	61.83656
745.8206	60.32727
745.9711	58.72338
746.1215	59.77107
746.272	59.11801
746.4224	61.25215
746.5729	59.94442
746.7233	60.07482
746.8737	60.56513
747.0241	60.44434
747.1745	59.94838
747.3249	62.73418
747.4753	58.99012
747.6257	59.646
747.776	64.56935
747.9264	58.3037
748.0767	58.02237
748.2271	58.36395
748.3774	59.59067
748.5276	63.50102
748.678	64.27345
748.8282	58.31725
748.9786	61.62327
749.1288	58.84423
749.2791	62.45694
749.4294	58.39461
749.5796	58.39415
749.7299	60.75854
749.8801	59.08438
750.0303	58.64901
750.1805	63.4943
750.3307	56.07978
750.4809	57.96523
750.6311	56.16475
750.7813	60.43275
750.9314	54.84935
751.0816	58.58775
751.2318	59.67071
751.3818	60.20322
751.532	60.28917
751.6821	60.63392
751.8322	62.34294
751.9823	58.31828
752.1324	58.58913
752.2825	58.55712
752.4326	60.74281
752.5826	58.04368
752.7327	56.21231
752.8827	58.56387
753.0327	60.43834
753.1827	61.03883
753.3328	61.79002
753.4828	52.2289
753.6328	53.4668
753.7828	58.87605
753.9327	58.79718
754.0827	53.38144
754.2327	53.14653
754.3826	58.90081
754.5325	58.90779
754.6825	56.98524
754.8324	61.59254
754.9823	58.47542
755.1322	60.17312
755.2821	51.26293
755.432	54.20887
755.5818	54.34188
755.7318	57.11312
755.8816	55.65286
756.0314	55.12371
756.1813	60.10112
756.3311	58.30363
756.4809	59.03149
756.6307	49.20079
756.7805	48.93319
756.9303	55.0008
757.0801	57.21941
757.2299	55.5344
757.3796	52.04029
757.5294	51.96776
757.6791	52.8538
757.8289	53.78199
757.9786	56.19874
758.1283	51.71588
758.278	46.27538
758.4277	50.47773
758.5773	49.29764
758.7271	49.75667
758.8767	50.56801
759.0264	45.86691
759.176	51.4226
759.3256	45.25983
759.4753	40.43596
759.6249	38.33216
759.7745	34.56056
759.9241	36.08493
760.0737	30.17089
760.2233	29.74932
760.3729	28.31682
760.5224	29.58301
760.6719	26.80056
760.8215	26.02438
760.971	29.19418
761.1205	28.29672
761.2701	28.43644
761.4196	29.54282
761.5691	30.33217
761.7186	35.66151
761.868	42.73589
762.0175	45.38882
762.167	43.40319
762.3164	38.21072
762.4659	31.63589
762.6153	34.05017
762.7647	34.96665
762.9141	33.43178
763.0635	27.82178
763.2129	30.51969
763.3623	33.86096
763.5117	39.63847
763.661	32.64235
763.8104	32.14795
763.9597	33.62747
764.1091	37.51927
764.2584	35.87825
764.4077	36.91577
764.557	36.7584
764.7063	38.6043
764.8556	40.07973
765.0049	39.23869
765.1541	41.86279
765.3034	41.60185
765.4526	39.94627
765.6019	40.21202
765.7511	37.25214
765.9003	39.48904
766.0496	43.50323
766.1987	43.26492
766.348	41.11914
766.4971	43.40312
766.6463	48.34977
766.7955	44.97073
766.9446	39.75711
767.0938	45.23512
767.2429	43.80621
767.392	43.87742
767.5411	42.99493
767.6902	43.4008
767.8394	45.07575
767.9884	42.93951
768.1375	46.69931
768.2866	48.22118
768.4356	47.18983
768.5847	40.69577
768.7337	46.39315
768.8828	45.48757
769.0317	43.41183
769.1808	40.07158
769.3298	42.5324
769.4788	46.95129
769.6277	44.14486
769.7767	43.33962
769.9257	44.65124
770.0746	46.70943
770.2236	44.91137
770.3725	46.64947
770.5214	47.56894
770.6703	46.89736
770.8193	41.87578
770.9681	42.17852
771.1171	46.79658
771.2659	48.30527
771.4148	47.71346
771.5637	48.81337
771.7125	44.23053
771.8613	44.60298
772.0101	43.2121
772.159	48.16802
772.3078	47.10762
772.4566	49.57785
772.6054	47.45235
772.7542	45.35497
772.903	41.86668
773.0517	41.91184
773.2004	40.16344
773.3492	40.71072
773.4979	45.05912
773.6467	38.84961
773.7953	43.55497
773.944	44.79789
774.0928	45.09853
774.2415	45.02943
774.3901	42.83792
774.5388	44.18679
774.6874	43.29402
774.8361	44.29808
774.9847	47.52753
775.1334	40.27195
775.282	37.46424
775.4305	41.27241
775.5792	41.06086
775.7277	43.09326
775.8763	43.72223
776.0249	45.67439
776.1735	42.21624
776.322	41.70189
776.4705	39.66621
776.6191	43.77694
776.7676	41.79826
776.9161	40.37931
777.0646	45.18659
777.2131	44.30745
777.3616	42.51395
777.5101	45.24284
777.6585	44.17451
777.8069	40.2588
777.9554	40.81475
778.1038	40.88593
778.2523	37.9361
778.4007	40.09261
778.5491	35.17167
778.6974	41.50913
778.8459	42.53462
778.9942	44.59376
779.1426	43.1824
779.291	41.38909
779.4393	41.96915
779.5876	45.49229
779.736	44.15084
779.8843	38.16375
780.0326	40.23592
780.1809	40.3474
780.3292	39.70795
780.4775	42.49798
780.6257	42.70767
780.774	36.64547
780.9222	41.8032
781.0704	42.20412
781.2187	40.46213
781.3669	38.69107
781.5151	39.93131
781.6633	35.41985
781.8115	40.5719
781.9597	40.2697
782.1078	42.71613
782.256	40.87196
782.4042	35.4929
782.5523	40.39201
782.7004	42.88551
782.8486	42.47813
782.9967	43.70412
783.1448	40.04849
783.2929	41.17508
783.441	36.60297
783.5891	35.74115
783.7371	36.21341
783.8851	41.77625
784.0332	43.33385
784.1812	39.43865
784.3293	36.91664
784.4773	36.93079
784.6253	42.35136
784.7733	41.39615
784.9213	39.42331
785.0692	40.40052
785.2172	43.94029
785.3652	40.82752
785.5131	43.24667
785.6611	42.79148
785.809	38.30747
785.9569	40.74492
786.1048	43.75363
786.2527	43.20695
786.4006	37.19931
786.5485	39.26123
786.6964	38.07499
786.8442	40.50626
786.9921	42.46362
787.1399	37.36446
787.2877	38.87856
787.4355	39.23671
787.5833	39.0159
787.7311	35.74977
787.8789	38.29888
788.0267	39.53353
788.1745	37.55838
788.3223	39.55465
788.47	37.44794
788.6177	36.09089
788.7654	38.27209
788.9132	38.0671
789.0609	36.24067
789.2086	34.45872
789.3563	38.94276
789.504	39.71196
789.6517	34.28974
789.7993	36.66718
789.947	32.80525
790.0946	35.46169
790.2422	36.22683
790.3898	36.86424
790.5375	39.37171
790.6851	41.04654
790.8326	36.61057
790.9802	37.6452
791.1278	36.07529
791.2754	39.4587
791.423	37.50198
791.5705	35.98751
791.718	34.24096
791.8655	33.97968
792.0131	29.26892
792.1606	33.06954
792.308	35.53341
792.4556	36.14508
792.603	33.07444
792.7505	38.54925
792.8979	33.81807
793.0454	33.61607
793.1928	37.36996
793.3403	36.96338
793.4877	34.43573
793.6351	32.68044
793.7825	36.05839
793.9299	33.06899
794.0772	37.77312
794.2246	34.16957
794.3719	35.70971
794.5193	36.53413
794.6666	36.3987
794.814	33.03216
794.9613	37.85262
795.1086	35.13737
795.2559	33.9891
795.4032	35.97512
795.5505	34.45336
795.6978	35.10343
795.845	34.5055
795.9922	33.14664
796.1395	35.95856
796.2867	35.84426
796.4339	32.65312
796.5811	34.98724
796.7283	34.82142
796.8755	33.80933
797.0227	36.48845
797.1699	33.14251
797.317	30.72262
797.4642	32.94609
797.6113	39.14098
797.7584	36.2585
797.9056	37.5628
798.0527	34.817
798.1998	33.21259
798.3469	32.57027
798.494	30.93616
798.641	32.38351
798.7881	33.8555
798.9351	32.59922
799.0822	35.00513
799.2292	36.17425
799.3762	34.63128
799.5232	34.71889
799.6702	33.4782
799.8172	33.99125
799.9642	30.50226
800.1111	35.64923
800.2581	35.06768
800.4051	36.8657
800.552	33.38929
800.6989	33.79904
800.8458	34.79211
800.9927	26.34994
801.1396	31.77736
801.2866	33.93206
801.4334	31.66388
801.5803	28.48067
801.7272	32.91796
801.874	31.60007
802.0209	35.09746
802.1677	37.46031
802.3145	36.84366
802.4613	35.65481
802.6081	34.20009
802.7549	33.25682
802.9017	35.12809
803.0485	36.80072
803.1952	32.45552
803.342	30.0461
803.4887	31.30013
803.6354	29.59041
803.7822	30.51893
803.9289	33.10857
804.0756	35.39098
804.2223	36.10967
804.369	30.39156
804.5156	30.99543
804.6623	30.32573
804.8089	25.46743
804.9556	29.08445
805.1022	30.08745
805.2488	28.56649
805.3954	28.25236
805.542	30.28384
805.6886	30.84842
805.8352	32.82111
805.9818	31.62823
806.1283	32.50708
806.2749	30.79551
806.4214	32.14025
806.5679	26.68498
806.7145	28.26705
806.861	31.8106
807.0074	33.12666
807.154	30.33639
807.3004	32.52873
807.4469	30.64239
807.5934	27.79487
807.7398	32.3995
807.8862	30.69372
808.0327	27.21155
808.1791	29.74507
808.3255	27.65464
808.4719	27.99173
808.6183	29.09093
808.7647	32.60168
808.9111	30.48594
809.0574	28.63264
809.2037	28.24058
809.3501	25.79052
809.4965	24.71889
809.6428	28.982
809.7891	25.49044
809.9354	27.40327
810.0817	25.70943
810.2279	25.41242
810.3742	31.29441
810.5204	32.44085
810.6667	32.2214
810.8129	30.28355
810.9592	25.47117
811.1054	28.86378
811.2516	28.14302
811.3978	29.61986
811.5439	26.79729
811.6901	25.95944
811.8363	31.54113
811.9825	33.24758
812.1286	29.13177
812.2748	26.14189
812.4209	27.70225
812.567	28.33619
812.7131	28.70564
812.8592	26.94032
813.0053	24.99491
813.1514	24.02369
813.2974	27.27819
813.4435	24.34474
813.5895	26.00513
813.7356	30.35708
813.8816	30.03139
814.0276	24.55254
814.1736	21.21021
814.3196	25.21026
814.4656	22.3546
814.6116	21.73862
814.7576	27.02367
814.9035	20.557
815.0494	22.50358
815.1954	26.5208
815.3413	26.51285
815.4872	22.11151
815.6331	21.01064
815.779	27.6237
815.9249	33.94917
816.0707	28.86421
816.2166	24.75532
816.3625	21.0246
816.5083	22.52752
816.6542	23.15801
816.8	25.81813
816.9458	21.90251
817.0916	22.63195
817.2374	21.71577
817.3832	28.13055
817.5289	23.43682
817.6747	24.07305
817.8204	26.1244
817.9662	20.88258
818.1119	21.43923
818.2576	21.85362
818.4034	21.12212
818.5491	23.78074
818.6948	21.68555
818.8405	21.30787
818.9861	22.59375
819.1318	24.94046
819.2774	22.30381
819.423	22.18095
819.5687	22.4474
819.7143	19.22202
819.8599	24.80862
820.0055	25.96813
820.1511	21.94852
820.2967	24.79158
820.4422	25.74755
820.5878	23.47596
820.7333	21.73435
820.8788	22.11215
821.0244	20.13977
821.1699	23.43335
821.3154	26.16751
821.4609	26.08291
821.6064	24.94237
821.7519	25.60547
821.8973	23.81049
822.0428	21.08017
822.1882	19.8533
822.3337	22.8923
822.4791	18.15028
822.6245	20.75151
822.7699	19.82753
822.9153	19.17122
823.0607	20.34835
823.2061	21.2288
823.3514	23.9759
823.4968	21.96235
823.6422	23.05287
823.7875	22.31606
823.9328	24.74479
824.0781	21.87629
824.2234	20.33702
824.3687	18.99366
824.514	21.99321
824.6592	22.53177
824.8045	22.40759
824.9498	21.51134
825.095	22.55558
825.2402	25.06701
825.3854	26.26668
825.5306	23.75542
825.6758	22.97552
825.821	16.66843
825.9662	19.51907
826.1114	21.79102
826.2565	22.20423
826.4017	24.25487
826.5468	20.16302
826.692	19.57406
826.837	26.96608
826.9822	22.61094
827.1273	14.80627
827.2723	19.91307
827.4174	20.45485
827.5625	21.89325
827.7075	22.66866
827.8526	23.15359
827.9976	21.23248
828.1426	19.27016
828.2877	22.20365
828.4327	24.06514
828.5776	19.71784
828.7227	24.3292
828.8676	27.75894
829.0126	20.36986
829.1575	20.84903
829.3024	20.72807
829.4474	18.29145
829.5923	23.20315
829.7372	20.22549
829.8821	18.90218
830.027	22.83633
830.1719	21.72042
830.3168	23.8484
830.4616	22.52609
830.6064	20.6075
830.7513	22.81463
830.8961	22.29342
831.041	19.54645
831.1857	23.1952
831.3306	22.18593
831.4753	20.35389
831.6201	19.24173
831.7649	17.2726
831.9096	21.96105
832.0544	16.981
832.1991	21.08901
832.3438	21.19291
832.4885	14.65076
832.6332	20.31725
832.778	24.99839
832.9226	18.70078
833.0673	19.84389
833.2119	24.81079
833.3566	22.7216
833.5012	23.09387
833.6459	23.00622
833.7905	22.2406
833.9351	19.62011
834.0797	21.61197
834.2243	23.50234
834.3688	21.86031
834.5134	23.257
834.658	19.22375
834.8026	17.82211
834.9471	19.28885
835.0916	19.79043
835.2361	20.34521
835.3806	22.83492
835.5251	22.81439
835.6696	20.13326
835.8141	21.83322
835.9586	21.43163
836.103	20.30581
836.2474	22.51994
836.3918	21.83216
836.5363	22.50722
836.6807	19.93473
836.8251	21.90725
836.9695	20.59797
837.1138	23.39675
837.2582	21.42124
837.4026	19.21315
837.5469	19.12406
837.6913	20.68676
837.8356	18.45187
837.9799	19.83955
838.1242	18.9645
838.2686	24.26633
838.4128	19.35367
838.5571	20.07585
838.7014	15.2326
838.8456	12.07929
838.9899	24.50318
839.1341	22.7515
839.2783	24.00859
839.4225	19.89016
839.5667	18.24818
839.7109	20.84084
839.8551	26.2998
839.9993	20.33367
840.1434	22.55179
840.2876	21.50359
840.4317	19.92401
840.5759	22.29157
840.72	23.10757
840.8641	18.40962
841.0082	22.40444
841.1523	19.7984
841.2963	21.54929
841.4404	23.00912
841.5845	20.20179
841.7285	19.4421
841.8726	19.5157
842.0165	19.96689
842.1606	19.8545
842.3046	14.99537
842.4485	18.04573
842.5925	17.53632
842.7365	18.44349
842.8805	20.24187
843.0244	22.86547
843.1684	20.88334
843.3123	20.0941
843.4562	20.02945
843.6002	19.84011
843.744	20.1556
843.8879	17.04787
844.0318	15.41
844.1757	23.47423
844.3195	21.01203
844.4634	19.81202
844.6072	19.31556
844.751	18.77847
844.8948	18.24642
845.0386	18.54502
845.1824	20.50641
845.3262	19.75854
845.47	18.21099
845.6138	17.87199
845.7575	17.38718
845.9012	20.64096
846.045	17.62588
846.1887	18.7151
846.3324	19.45694
846.4761	19.9269
846.6198	20.25784
846.7635	20.42572
846.9071	18.64367
847.0508	19.66761
847.1944	19.38239
847.3381	18.27105
847.4817	21.37277
847.6253	16.40288
847.7689	14.43801
847.9125	16.64893
848.0561	15.32112
848.1996	17.05325
848.3432	19.64168
848.4868	18.08121
848.6303	17.05518
848.7738	13.50647
848.9174	13.35298
849.0609	18.32441
849.2043	15.75665
849.3478	14.14542
849.4913	17.61289
849.6348	21.33536
849.7782	23.93841
849.9217	17.70881
850.0651	19.08173
850.2086	19.62005
850.3519	18.94451
850.4954	14.42943
850.6387	17.64465
850.7821	17.31062
850.9255	18.12483
851.0688	13.91655
851.2122	13.01957
851.3555	18.86992
851.4988	15.38912
851.6422	18.04175
851.7855	17.2706
851.9288	17.5464
852.0721	17.84577
852.2153	19.84553
852.3586	19.87771
852.5018	18.04359
852.6451	19.49718
852.7883	20.85547
852.9315	18.04126
853.0748	15.54049
853.218	20.19678
853.3611	15.72009
853.5043	18.61942
853.6475	12.58303
853.7906	12.04638
853.9338	16.91096
854.0769	16.65682
854.22	13.26824
854.3632	10.92663
854.5063	11.04021
854.6494	13.96065
854.7924	10.31909
854.9355	15.60498
855.0786	14.80362
855.2216	12.39175
855.3647	14.09815
855.5077	14.18289
855.6507	18.7739
855.7937	17.5459
855.9367	11.97221
856.0797	11.13902
856.2227	18.74206
856.3657	18.91239
856.5086	16.35144
856.6516	14.82666
856.7945	14.36783
856.9374	20.5248
857.0803	14.57445
857.2232	18.68147
857.3661	16.24461
857.509	15.8424
857.6519	16.1072
857.7947	17.47018
857.9376	23.52599
858.0804	17.21779
858.2232	19.24422
858.366	19.74629
858.5089	17.61347
858.6516	17.74724
858.7944	21.82556
858.9372	22.36465
859.08	19.34437
859.2227	17.22361
859.3654	18.38953
859.5082	16.06976
859.6509	12.38142
859.7936	18.29754
859.9363	16.27479
860.079	16.5694
860.2217	15.6828
860.3643	17.29666
860.507	20.05666
860.6496	21.68451
860.7922	12.52619
860.9349	15.27642
861.0775	11.8642
861.2201	11.13428
861.3627	17.65706
861.5052	10.55364
861.6478	15.95836
861.7904	19.18479
861.9329	19.12634
862.0755	18.3099
862.218	17.56869
862.3605	14.22218
862.503	14.45632
862.6455	16.38596
862.788	14.95769
862.9305	14.88005
863.0729	17.97007
863.2154	11.72975
863.3578	12.2028
863.5002	17.04675
863.6426	12.56328
863.7851	18.33877
863.9275	19.08283
864.0698	18.46771
864.2122	16.91273
864.3546	12.84451
864.4969	14.73838
864.6393	13.95489
864.7816	20.04175
864.924	13.79122
865.0662	12.94731
865.2086	14.08065
865.3508	15.6671
865.4931	17.08614
865.6354	16.01348
865.7776	11.70732
865.9199	12.63749
866.0621	17.06572
866.2043	13.70535
866.3466	11.29527
866.4888	11.55368
866.6309	12.13852
866.7731	18.60494
866.9153	13.60282
867.0574	14.76982
867.1996	19.66516
867.3417	14.40399
867.4839	17.27381
867.626	18.58838
867.7681	14.99419
867.9102	13.92117
868.0522	14.60601
868.1943	12.52489
868.3364	17.82649
868.4785	12.86216
868.6205	17.30911
868.7625	14.95015
868.9045	13.29933
869.0465	12.40507
869.1885	14.35004
869.3305	13.16185
869.4725	17.0862
869.6144	16.16391
869.7564	13.14343
869.8983	14.22474
870.0403	15.63343
870.1822	13.65283
870.3241	15.066
870.466	17.02906
870.6079	13.20911
870.7498	19.50685
870.8916	12.97725
871.0335	10.44334
871.1754	9.039847
871.3171	12.03532
871.459	12.4668
871.6008	18.76007
871.7426	14.47901
871.8844	12.73379
872.0262	11.15636
872.1679	15.87857
872.3097	16.87236
872.4514	13.55509
872.5931	13.78464
872.7349	14.84676
872.8766	18.04015
873.0183	13.48871
873.16	13.595
873.3017	12.98569
873.4434	18.13645
873.585	18.41227
873.7266	13.71363
873.8683	14.59764
874.0099	13.44884
874.1516	15.27578
874.2932	14.56503
874.4348	13.03447
874.5763	15.63521
874.7179	13.28949
874.8594	10.46043
875.001	13.47971
875.1425	18.89802
875.2841	14.63313
875.4256	10.13697
875.5671	9.703347
875.7086	11.48101
875.85	10.27092
875.9915	10.67297
876.133	17.89491
876.2744	17.58743
876.4159	9.942174
876.5573	14.47102
876.6987	15.39998
876.8401	17.04871
876.9815	16.37391
877.1229	15.27329
877.2643	11.50088
877.4056	10.78566
877.547	11.6618
877.6884	13.45769
877.8297	11.32425
877.971	15.71904
878.1123	15.01578
878.2536	14.15198
878.3949	18.67058
878.5362	11.15119
878.6774	14.54954
878.8187	16.06124
878.9599	11.22323
879.1011	13.06056
879.2424	14.62219
879.3836	9.369177
879.5248	13.62578
879.666	15.86546
879.8071	17.2394
879.9483	13.15067
880.0895	13.18793
880.2306	14.04634
880.3718	14.0591
880.5129	13.6544
880.654	13.2675
880.7951	15.04083
880.9362	9.548916
881.0773	9.974977
881.2183	12.56997
881.3594	14.72946
881.5004	16.20386
881.6414	14.33127
881.7825	12.91489
881.9235	10.6656
882.0645	16.42388
882.2054	18.64503
882.3464	13.30177
882.4874	17.02165
882.6284	14.66367
882.7693	17.6132
882.9103	17.2225
883.0512	13.58601
883.1921	10.11623
883.333	6.430116
883.4739	12.38308
883.6147	16.91535
883.7556	16.32088
883.8965	13.88537
884.0374	13.18067
884.1782	12.657
884.319	12.96427
884.4598	14.34803
884.6006	9.020507
884.7414	9.421079
884.8822	8.93784
885.0229	11.28911
885.1637	14.36366
885.3044	12.00681
885.4452	11.26965
885.5859	8.757907
885.7266	8.075356
885.8673	10.36696
886.008	13.23199
886.1487	17.0682
886.2894	13.62072
886.43	13.20715
886.5707	17.07506
886.7113	11.51994
886.8519	13.37244
886.9926	13.63566
887.1331	10.15596
887.2737	11.46863
887.4143	7.475666
887.5549	10.35528
887.6954	12.09416
887.836	10.79588
887.9765	13.2375
888.1171	11.51276
888.2576	11.18389
888.3981	7.078607
888.5386	14.01872
888.679	14.53499
888.8195	12.9833
888.96	13.87378
889.1004	10.6064
889.2408	12.47626
889.3813	11.58947
889.5217	12.34025
889.6621	10.34202
889.8025	6.907426
889.9429	13.61622
890.0833	10.35856
890.2236	10.10582
890.364	10.66046
890.5043	12.64349
890.6446	12.15056
890.7849	14.17948
890.9252	17.19773
891.0655	15.7693
891.2058	11.49574
891.3461	12.57099
891.4863	10.9318
891.6266	12.65851
891.7668	12.53317
891.907	13.09216
892.0472	7.282934
892.1874	10.46025
892.3276	9.0802
892.4678	11.58334
892.608	11.57608
892.7481	7.627849
892.8883	9.752142
893.0284	12.59321
893.1685	10.67257
893.3087	5.213763
893.4487	11.79835
893.5889	12.37949
893.7289	14.35562
893.869	10.89506
894.009	7.303344
894.1491	8.342087
894.2891	9.770617
894.4291	8.158977
894.5692	8.274068
894.7092	12.7059
894.8491	7.864931
894.9891	8.167196
895.1291	7.048938
895.269	12.62028
895.409	11.10027
895.549	9.88507
895.6888	9.535703
895.8288	6.389735
895.9687	10.15251
896.1086	6.317197
896.2484	11.78539
896.3883	11.64255
896.5281	8.602617
896.668	7.829575
896.8079	8.446631
896.9476	9.806116
897.0875	7.937228
897.2272	8.672211
897.3671	8.504936
897.5068	8.450879
897.6466	10.16296
897.7864	12.67233
897.9261	11.71302
898.0658	6.813554
898.2056	6.736085
898.3453	7.03428
898.4849	10.83252
898.6246	10.00071
898.7643	6.41327
898.904	8.780244
899.0436	8.680057
899.1833	10.85402
899.3229	7.468426
899.4625	7.679053
899.6021	6.209258
899.7417	8.056359
899.8813	7.596981
900.0209	10.47498
900.1605	8.545636
900.3	10.43922
900.4395	9.280416
900.579	5.702547
900.7186	11.03363
900.8581	11.68659
900.9976	11.23991
901.1371	11.0072
901.2766	10.48945
901.416	7.177928
901.5555	10.88985
901.6949	7.431943
901.8344	8.813299
901.9738	8.157411
902.1132	4.119291
902.2526	9.873734
902.3919	9.185231
902.5313	11.1942
902.6707	9.690732
