SPECTRUM DATA FILE
SpectrumCount:	1
PixelCount:	3648
UserName:	ToughBook User
SampleName:	
LightSource:	
Comments:	
DeviceName:	Qwave
DeviceManufacturer:	Broadcom
DeviceSerialNo:	11311

Name:	last spectrum
Date:	2024-05-02T15:02:26.4413983+02:00
ExposureTime:	0.02
TemporalAvg:	1
IntensityUnit:	normalizedCounts
CCDLoadLevel:	0.0489963
Temperature:	29.44586
DiagramColor:	200
ProcessingSteps:	335

Wavelength [nm]	Intensity1
334.421	11.47582
334.5891	12.49597
334.7573	10.6777
334.9254	16.18007
335.0935	12.21791
335.2616	12.74366
335.4297	10.51058
335.5978	13.70075
335.7659	15.4312
335.934	10.61609
336.1021	9.893223
336.2701	10.85277
336.4382	13.025
336.6063	9.333324
336.7744	10.45356
336.9424	9.110593
337.1105	12.52194
337.2785	8.968802
337.4466	12.60702
337.6146	14.0352
337.7827	13.18086
337.9507	8.252086
338.1187	11.67026
338.2867	14.83915
338.4548	14.57177
338.6228	9.777134
338.7908	10.26445
338.9588	12.05593
339.1268	9.054813
339.2948	11.1558
339.4628	11.50684
339.6308	12.8532
339.7988	12.27943
339.9667	12.80787
340.1347	13.07365
340.3027	10.04474
340.4707	12.97109
340.6386	11.93699
340.8066	8.528796
340.9745	9.146032
341.1425	12.0099
341.3104	12.41391
341.4784	10.38234
341.6463	9.962437
341.8142	14.63999
341.9821	12.80591
342.1501	15.64799
342.318	15.88186
342.4859	14.54424
342.6538	12.54957
342.8217	15.46052
342.9896	14.75872
343.1575	15.08847
343.3254	13.97125
343.4933	14.27304
343.6612	15.07549
343.829	15.25022
343.9969	14.82444
344.1648	17.15543
344.3326	15.5625
344.5005	12.45774
344.6683	10.72376
344.8362	11.3344
345.004	18.29156
345.1719	12.98681
345.3397	14.19541
345.5075	16.90321
345.6754	14.00475
345.8432	14.17757
346.011	13.89595
346.1788	11.29601
346.3466	17.47788
346.5144	16.16383
346.6822	18.29601
346.85	18.89146
347.0178	11.37467
347.1856	10.87094
347.3534	15.92744
347.5211	10.91371
347.6889	12.72129
347.8567	16.21602
348.0244	15.5883
348.1922	15.74556
348.3599	16.31028
348.5277	21.27259
348.6954	12.8998
348.8632	15.44367
349.0309	13.56066
349.1986	15.39048
349.3663	13.30958
349.5341	12.96394
349.7018	11.18311
349.8695	14.76616
350.0372	14.99782
350.2049	10.61972
350.3726	14.30819
350.5403	16.05295
350.7079	14.5885
350.8756	10.13892
351.0433	14.0095
351.211	18.43463
351.3786	14.97559
351.5463	15.45977
351.714	18.91392
351.8816	13.59047
352.0493	15.2872
352.2169	17.35737
352.3846	14.17935
352.5522	11.69266
352.7198	18.4724
352.8875	18.76142
353.0551	19.95467
353.2227	19.99801
353.3903	14.08823
353.5579	18.60231
353.7255	22.64364
353.8931	19.34987
354.0607	17.1425
354.2283	15.76292
354.3958	15.19896
354.5634	18.7191
354.731	20.85526
354.8986	16.1976
355.0661	16.14411
355.2337	16.45192
355.4012	20.29052
355.5688	20.29235
355.7363	16.63757
355.9039	15.75055
356.0714	14.88771
356.239	16.36018
356.4065	13.93236
356.574	13.32108
356.7415	14.32567
356.909	16.244
357.0765	19.52827
357.244	13.98655
357.4115	14.71948
357.579	14.07635
357.7465	17.97397
357.914	11.47129
358.0815	10.29284
358.249	16.76199
358.4164	15.14173
358.5839	13.92725
358.7513	18.25007
358.9188	14.42837
359.0862	15.89768
359.2537	17.23616
359.4211	22.94473
359.5886	14.2622
359.756	13.32632
359.9234	22.21567
360.0909	16.75512
360.2583	16.51404
360.4257	17.16773
360.5931	14.60182
360.7605	18.01735
360.9279	15.37711
361.0953	17.55146
361.2627	16.4938
361.4301	15.13035
361.5974	17.02119
361.7648	17.81072
361.9322	15.7036
362.0995	19.42098
362.2669	21.79781
362.4343	22.43867
362.6016	19.71358
362.769	22.28575
362.9363	16.98148
363.1036	13.88468
363.271	17.02401
363.4383	19.7272
363.6056	19.79071
363.7729	22.39861
363.9402	20.81752
364.1075	15.53871
364.2748	16.34575
364.4421	18.93056
364.6094	17.721
364.7767	22.76386
364.944	20.25448
365.1113	22.25752
365.2786	19.07792
365.4458	16.11148
365.6131	23.93421
365.7803	21.63363
365.9476	25.69656
366.1148	16.45424
366.2821	21.10547
366.4493	18.89254
366.6166	16.53144
366.7838	22.16633
366.951	19.50063
367.1182	23.50721
367.2855	27.54482
367.4527	22.43617
367.6199	22.53593
367.7871	20.07601
367.9543	20.49991
368.1215	19.07954
368.2886	18.52497
368.4558	21.4146
368.623	20.94137
368.7902	18.99902
368.9573	19.28826
369.1245	22.15469
369.2917	21.35146
369.4588	23.17932
369.6259	22.33015
369.7931	22.74271
369.9602	26.33065
370.1274	22.74977
370.2945	20.43547
370.4616	19.65767
370.6287	19.39128
370.7958	20.53472
370.963	23.2009
371.1301	22.62173
371.2971	24.4477
371.4643	27.91441
371.6313	27.35073
371.7984	24.85763
371.9655	21.52863
372.1326	20.75587
372.2997	27.78397
372.4667	25.65795
372.6338	24.56714
372.8008	20.80877
372.9679	21.87472
373.1349	27.38327
373.3019	26.47029
373.469	20.96936
373.636	21.08738
373.803	25.19561
373.9701	22.64147
374.1371	21.70016
374.3041	22.10985
374.4711	19.19172
374.6381	19.77626
374.8051	18.81952
374.9721	23.41836
375.1391	23.85783
375.3061	24.70077
375.473	25.29889
375.64	24.59687
375.8069	23.40622
375.9739	23.02654
376.1409	23.96332
376.3078	27.04499
376.4748	26.13114
376.6417	26.11251
376.8087	20.91574
376.9756	25.69916
377.1425	22.17609
377.3094	22.46437
377.4763	29.67362
377.6432	34.5493
377.8102	26.66267
377.9771	32.90106
378.144	32.97543
378.3109	28.80719
378.4777	28.97295
378.6446	27.3808
378.8115	25.48937
378.9784	29.28918
379.1452	25.93883
379.3121	27.38321
379.4789	28.4769
379.6458	24.75386
379.8127	22.83652
379.9795	28.0626
380.1463	26.1193
380.3131	29.42559
380.48	28.37819
380.6468	29.64717
380.8136	24.97621
380.9804	27.53308
381.1472	32.01822
381.314	30.83522
381.4808	31.08398
381.6476	29.70855
381.8144	26.73701
381.9812	26.63166
382.148	24.72852
382.3147	24.43694
382.4815	24.3573
382.6483	24.7663
382.815	24.79827
382.9818	21.31039
383.1485	22.74189
383.3153	22.1481
383.482	24.02415
383.6487	26.47548
383.8155	27.6232
383.9822	22.10102
384.1489	28.61084
384.3156	30.23245
384.4823	31.80779
384.649	30.99405
384.8157	37.11255
384.9824	32.05527
385.1491	32.62509
385.3158	33.73537
385.4825	30.36941
385.6491	26.76081
385.8158	29.87893
385.9825	30.24642
386.1491	31.88692
386.3157	30.24459
386.4824	34.95856
386.649	33.36559
386.8157	29.60328
386.9823	26.28824
387.1489	26.50241
387.3156	32.83554
387.4821	30.74484
387.6488	30.59085
387.8154	25.94215
387.982	30.47634
388.1486	33.19285
388.3152	30.62711
388.4818	30.90749
388.6483	32.07086
388.8149	28.74836
388.9815	30.9265
389.148	36.01846
389.3146	34.60372
389.4811	33.42498
389.6477	37.94501
389.8142	33.81722
389.9808	36.69677
390.1473	40.01258
390.3138	37.16816
390.4804	29.88789
390.6469	31.49698
390.8134	32.57516
390.9799	37.18158
391.1464	39.7502
391.3129	42.15428
391.4794	42.51589
391.6459	42.15548
391.8124	39.5039
391.9789	40.12241
392.1453	28.83038
392.3118	32.46545
392.4782	37.98725
392.6447	34.00993
392.8112	20.44876
392.9776	23.66525
393.144	21.60044
393.3105	21.34623
393.4769	23.11185
393.6433	27.13436
393.8098	29.08654
393.9762	32.41949
394.1426	32.34455
394.309	35.233
394.4754	34.81006
394.6418	40.54794
394.8082	40.62515
394.9746	41.5989
395.141	44.61129
395.3073	45.24976
395.4737	42.38419
395.64	40.10775
395.8064	39.06374
395.9728	43.5958
396.1391	37.32846
396.3055	35.30674
396.4718	28.34046
396.6381	36.21072
396.8045	24.79847
396.9708	30.68789
397.1371	29.64978
397.3034	31.50657
397.4697	37.09093
397.636	41.13915
397.8023	50.04955
397.9686	42.73551
398.1349	47.23813
398.3012	53.22461
398.4675	54.33746
398.6337	50.12869
398.8	49.55613
398.9662	48.01917
399.1325	46.63744
399.2988	54.08585
399.465	55.24386
399.6313	52.2385
399.7975	53.0794
399.9637	52.76688
400.1299	55.18673
400.2961	52.99693
400.4624	51.73635
400.6286	51.05849
400.7948	51.76907
400.961	58.96375
401.1272	56.19368
401.2934	55.58236
401.4595	60.26649
401.6257	57.76877
401.7919	56.7625
401.9581	56.42978
402.1242	60.79656
402.2904	58.47334
402.4565	60.48885
402.6227	60.56375
402.7888	55.42044
402.955	59.37601
403.1211	58.19572
403.2872	55.96881
403.4533	54.45341
403.6194	52.26572
403.7856	54.76733
403.9517	62.22131
404.1177	60.56105
404.2838	60.70655
404.4499	51.3318
404.616	49.90847
404.7821	53.99162
404.9482	60.79142
405.1142	65.26256
405.2803	66.52483
405.4464	59.02514
405.6124	57.01198
405.7784	54.64386
405.9445	57.60671
406.1105	54.12616
406.2766	55.70514
406.4426	60.38023
406.6086	59.01249
406.7746	61.35058
406.9406	61.72
407.1066	61.32691
407.2726	64.45447
407.4386	58.04274
407.6046	58.89798
407.7706	55.58702
407.9366	59.47167
408.1025	70.25393
408.2685	68.90074
408.4344	64.28532
408.6004	63.71851
408.7664	69.78989
408.9323	64.39336
409.0983	71.43887
409.2642	68.50644
409.4301	63.35332
409.596	64.88633
409.762	60.64023
409.9279	56.98973
410.0938	55.43806
410.2597	55.39225
410.4256	57.35202
410.5915	67.43101
410.7574	63.38792
410.9232	59.51194
411.0891	67.55178
411.255	70.46983
411.4209	74.96163
411.5867	71.64404
411.7526	72.37035
411.9184	74.15796
412.0843	72.05009
412.2501	75.24709
412.4159	78.48467
412.5818	73.79434
412.7476	75.49283
412.9134	69.56598
413.0792	71.63467
413.245	71.98428
413.4108	68.05061
413.5766	76.76664
413.7424	73.83774
413.9082	75.78489
414.074	76.43948
414.2397	73.29013
414.4055	77.30037
414.5713	70.10349
414.737	74.13741
414.9028	80.00514
415.0685	76.91439
415.2343	65.37659
415.4	72.91351
415.5658	68.63088
415.7315	67.09376
415.8972	69.35099
416.0629	76.5335
416.2286	82.33685
416.3943	78.48363
416.56	75.3091
416.7257	77.50262
416.8914	77.87505
417.0571	75.79377
417.2228	71.78767
417.3884	66.9792
417.5541	69.49069
417.7198	69.88686
417.8854	71.08409
418.0511	79.96414
418.2167	80.73432
418.3824	75.00841
418.548	73.15193
418.7136	76.08762
418.8792	73.1798
419.0449	76.38543
419.2105	80.98728
419.3761	78.1027
419.5417	83.30233
419.7073	78.43732
419.8729	77.6202
420.0385	75.74695
420.204	75.73813
420.3696	79.2385
420.5352	80.62617
420.7007	86.21756
420.8663	87.60844
421.0319	86.63919
421.1974	79.61749
421.3629	87.26626
421.5285	84.96929
421.694	82.40325
421.8595	82.43297
422.0251	86.86652
422.1906	89.00436
422.3561	82.91729
422.5216	78.07504
422.6871	70.96369
422.8526	80.78192
423.0181	83.21329
423.1835	84.9183
423.349	86.02457
423.5145	82.75749
423.68	83.87675
423.8454	80.00495
424.0109	84.17787
424.1763	86.15337
424.3418	92.52557
424.5072	94.73452
424.6726	89.08983
424.838	86.36234
425.0035	83.5471
425.1689	88.72932
425.3343	87.05297
425.4997	81.54825
425.6651	86.77481
425.8305	87.24728
425.9959	84.49818
426.1613	86.27132
426.3267	85.58004
426.492	86.44051
426.6574	95.79922
426.8228	90.75925
426.9881	81.73388
427.1534	77.96557
427.3188	77.80692
427.4841	75.89675
427.6495	84.36363
427.8148	92.91145
427.9801	100.5593
428.1454	96.49542
428.3107	91.38913
428.476	86.95968
428.6414	82.53172
428.8066	73.74866
428.9719	82.94084
429.1372	78.80086
429.3025	83.29905
429.4678	86.18509
429.633	90.88216
429.7983	81.1353
429.9636	74.42056
430.1288	70.53984
430.294	68.96478
430.4593	65.38383
430.6245	73.15399
430.7897	70.26202
430.955	71.57729
431.1202	71.44775
431.2854	78.85451
431.4506	84.60349
431.6158	96.19961
431.781	100.8179
431.9462	101.6479
432.1114	102.4044
432.2766	96.21866
432.4417	84.27959
432.6069	85.01768
432.772	88.04602
432.9372	89.49959
433.1024	102.9433
433.2675	105.1731
433.4326	102.583
433.5977	100.8697
433.7629	88.44549
433.928	82.58173
434.0931	82.09535
434.2582	83.18909
434.4233	93.9249
434.5884	105.5826
434.7535	102.951
434.9186	108.1005
435.0837	103.1653
435.2488	99.59882
435.4138	98.1327
435.5789	99.95734
435.744	107.2686
435.909	106.0102
436.0741	109.9714
436.2391	112.1593
436.4042	110.5683
436.5692	109.5905
436.7342	113.5732
436.8992	118.5628
437.0643	112.0455
437.2293	106.3995
437.3943	108.9211
437.5593	110.1303
437.7243	108.8351
437.8893	117.6518
438.0542	109.1362
438.2192	102.5395
438.3842	94.85371
438.5491	94.74078
438.7141	103.8784
438.8791	109.5858
439.044	102.957
439.209	105.8174
439.3739	106.2093
439.5388	116.1717
439.7037	114.5022
439.8687	116.511
440.0336	111.8776
440.1985	105.7638
440.3634	109.8609
440.5283	110.0529
440.6932	114.7923
440.8581	119.3705
441.0229	126.5925
441.1878	128.1093
441.3527	127.6162
441.5175	118.1303
441.6824	117.8621
441.8472	122.8096
442.0121	123.8838
442.1769	127.4982
442.3418	122.5795
442.5066	120.9213
442.6714	126.7001
442.8362	128.2241
443.001	130.7135
443.1659	127.9219
443.3307	126.9197
443.4955	125.072
443.6602	129.2402
443.825	133.1862
443.9898	131.171
444.1546	124.7633
444.3193	124.4032
444.4841	128.5624
444.6488	132.3872
444.8136	127.0085
444.9783	133.0439
445.1431	134.8805
445.3078	129.779
445.4725	121.3096
445.6372	118.445
445.802	120.0558
445.9667	120.3551
446.1314	118.8655
446.2961	120.0913
446.4608	123.1481
446.6255	130.4355
446.7901	134.8092
446.9548	129.177
447.1195	133.6915
447.2841	138.1142
447.4488	139.8016
447.6134	141.2736
447.7781	144.122
447.9427	141.1356
448.1074	133.0293
448.272	129.8436
448.4366	132.3836
448.6012	137.1615
448.7658	139.2599
448.9305	139.8277
449.095	136.0697
449.2596	135.0505
449.4242	139.0525
449.5888	138.143
449.7534	141.601
449.9179	142.5091
450.0825	149.9418
450.2471	146.9678
450.4116	152.3858
450.5762	152.7889
450.7407	152.1585
450.9052	151.8106
451.0698	150.162
451.2343	146.0607
451.3988	152.2018
451.5633	150.298
451.7278	146.4193
451.8923	149.566
452.0568	152.2981
452.2213	147.4583
452.3858	144.7164
452.5503	147.1943
452.7148	142.3875
452.8792	134.1665
453.0437	133.3993
453.2081	142.3772
453.3726	146.0528
453.537	141.8837
453.7015	146.0178
453.8659	151.1983
454.0303	157.2296
454.1947	156.2697
454.3592	150.9799
454.5236	148.2787
454.688	151.8408
454.8524	149.1238
455.0168	148.0836
455.1811	146.0906
455.3455	153.093
455.5099	153.5059
455.6743	151.5324
455.8386	159.3928
456.003	160.8542
456.1673	165.7493
456.3317	162.5158
456.496	157.2011
456.6603	148.6542
456.8246	155.4908
456.989	157.353
457.1533	156.0054
457.3176	155.8735
457.4819	166.4377
457.6462	157.4689
457.8105	165.6327
457.9748	156.0516
458.1391	150.2485
458.3033	153.4431
458.4676	142.3733
458.6319	151.5363
458.7961	157.7608
458.9604	152.9574
459.1246	153.1756
459.2888	156.63
459.4531	155.2078
459.6173	154.3201
459.7815	151.7989
459.9457	152.8407
460.11	152.9221
460.2741	151.2087
460.4384	153.8108
460.6025	157.5036
460.7667	162.5445
460.9309	160.6642
461.0951	165.5624
461.2592	160.5529
461.4234	158.2264
461.5876	157.1691
461.7517	159.6256
461.9159	159.3144
462.08	156.7523
462.2441	161.1033
462.4082	166.1643
462.5724	166.9245
462.7365	164.6467
462.9006	161.2757
463.0647	160.7336
463.2288	164.9158
463.3929	162.5326
463.557	156.9715
463.721	160.7846
463.8851	157.0819
464.0492	161.2787
464.2132	159.991
464.3773	163.0573
464.5414	163.121
464.7054	159.72
464.8694	149.3264
465.0334	155.0129
465.1975	164.4386
465.3615	162.611
465.5255	166.1668
465.6895	163.9469
465.8535	163.237
466.0175	166.2817
466.1815	163.6341
466.3455	162.9227
466.5095	167.5287
466.6734	158.3824
466.8374	160.9047
467.0014	163.7662
467.1653	161.1826
467.3293	165.6913
467.4932	166.4844
467.6571	175.2663
467.8211	172.7538
467.985	164.3368
468.1489	160.6831
468.3128	164.313
468.4767	166.8608
468.6406	171.296
468.8045	168.7965
468.9684	166.1575
469.1323	162.6177
469.2962	171.8126
469.46	171.6767
469.6239	171.9678
469.7878	170.2651
469.9516	156.7861
470.1154	163.2385
470.2793	153.2572
470.4431	153.8121
470.607	156.8733
470.7708	164.028
470.9346	163.5546
471.0984	169.6824
471.2622	171.0716
471.426	168.7026
471.5898	164.5751
471.7536	175.4316
471.9174	176.9757
472.0811	178.2362
472.2449	177.7185
472.4087	181.2613
472.5724	184.0584
472.7362	176.9482
472.8999	170.1148
473.0637	165.1862
473.2274	164.5308
473.3911	171.7887
473.5548	175.225
473.7185	174.6542
473.8822	178.3037
474.0459	178.6942
474.2096	178.1205
474.3733	168.9939
474.537	170.7649
474.7007	176.1674
474.8643	180.8433
475.028	182.7297
475.1917	174.7871
475.3553	169.3737
475.519	174.9775
475.6826	173.3286
475.8463	175.3071
476.0099	174.7128
476.1735	172.7191
476.3371	173.0092
476.5007	168.2383
476.6643	171.2003
476.8279	167.2259
476.9915	171.36
477.1551	182.4193
477.3187	184.8008
477.4823	181.8174
477.6458	178.0644
477.8094	178.6626
477.9729	185.2919
478.1365	175.5564
478.3	176.8325
478.4636	175.57
478.6271	174.7707
478.7906	173.7508
478.9541	175.1604
479.1176	177.6688
479.2812	181.5564
479.4447	186.8253
479.6082	186.2596
479.7716	181.0086
479.9351	177.1368
480.0986	177.3415
480.2621	174.0979
480.4255	179.2245
480.589	177.0859
480.7524	177.1013
480.9159	171.1904
481.0793	177.2256
481.2428	185.356
481.4062	191.5514
481.5696	191.0064
481.733	185.0458
481.8964	186.6632
482.0598	189.4566
482.2232	187.058
482.3866	176.4334
482.55	175.4349
482.7134	178.2408
482.8768	177.1364
483.0401	178.3758
483.2035	181.3186
483.3668	180.4988
483.5302	184.1589
483.6935	180.6382
483.8568	184.5574
484.0202	175.757
484.1835	175.1506
484.3468	176.616
484.5101	177.9838
484.6734	181.5245
484.8367	173.5818
485	177.8552
485.1633	183.2258
485.3266	174.2093
485.4899	172.0948
485.6531	164.7216
485.8164	160.9308
485.9796	150.7303
486.1429	144.1763
486.3061	142.8813
486.4694	155.3268
486.6326	161.4632
486.7958	164.1271
486.959	171.31
487.1223	167.5613
487.2855	162.0701
487.4486	164.7705
487.6118	173.1671
487.775	177.9097
487.9382	181.2024
488.1014	181.6881
488.2646	187.6645
488.4277	181.5382
488.5909	178.9495
488.754	181.2188
488.9171	173.0755
489.0803	169.4199
489.2434	175.8804
489.4066	180.9051
489.5697	186.8391
489.7328	198.1776
489.8959	192.2595
490.059	187.6502
490.2221	185.1196
490.3852	185.0704
490.5482	194.3643
490.7113	200.4021
490.8744	186.4586
491.0374	181.6712
491.2005	181.6771
491.3636	183.0842
491.5266	189.4606
491.6896	195.4542
491.8527	174.4929
492.0157	168.6317
492.1787	164.7493
492.3417	165.1154
492.5047	175.9367
492.6677	178.0863
492.8307	187.5786
492.9937	201.0655
493.1567	197.1406
493.3196	192.5954
493.4826	193.5479
493.6456	182.496
493.8085	190.8726
493.9715	190.9565
494.1344	181.4523
494.2974	184.2289
494.4603	198.6751
494.6232	196.9211
494.7861	195.3281
494.949	201.6217
495.1119	201.502
495.2748	196.4705
495.4377	188.2174
495.6006	179.3858
495.7635	174.8344
495.9264	180.5928
496.0892	182.9031
496.2521	193.031
496.4149	198.7689
496.5778	199.9448
496.7407	197.2018
496.9035	189.0197
497.0663	194.0305
497.2291	191.1965
497.3919	193.2056
497.5547	201.8188
497.7176	203.5892
497.8804	190.9408
498.0432	187.6333
498.2059	186.8434
498.3687	178.1278
498.5315	177.9659
498.6942	187.3766
498.857	195.5105
499.0198	195.8204
499.1825	196.6021
499.3452	190.1886
499.508	193.6774
499.6707	198.8177
499.8334	198.0822
499.9962	190.6994
500.1589	191.3719
500.3216	193.197
500.4843	187.4085
500.6469	181.6235
500.8096	179.9153
500.9723	193.9939
501.135	197.0058
501.2976	193.494
501.4603	191.6458
501.623	186.9475
501.7856	178.9684
501.9482	191.5618
502.1109	192.8631
502.2735	190.9192
502.4361	194.3705
502.5987	199.5579
502.7614	199.589
502.924	194.6963
503.0865	195.3619
503.2491	197.6775
503.4117	205.9471
503.5743	199.8271
503.7368	190.8113
503.8994	187.7866
504.062	189.4475
504.2245	187.8493
504.3871	192.8649
504.5496	198.1421
504.7121	206.2023
504.8746	199.5798
505.0372	197.4727
505.1997	197.7582
505.3622	200.2882
505.5247	206.917
505.6872	205.6298
505.8497	201.8586
506.0121	207.9131
506.1746	208.9958
506.3371	213.4372
506.4995	211.7363
506.662	208.6577
506.8244	198.059
506.9869	202.4869
507.1493	205.5526
507.3117	199.8565
507.4742	196.1065
507.6366	206.9761
507.799	206.1446
507.9614	197.8191
508.1238	194.2272
508.2862	196.5811
508.4485	198.4854
508.6109	208.0989
508.7733	203.0507
508.9357	201.9811
509.098	210.198
509.2604	210.1196
509.4227	213.5123
509.5851	214.1846
509.7474	203.1527
509.9097	200.9639
510.072	197.5449
510.2343	201.1433
510.3966	205.4412
510.5589	209.019
510.7212	197.9286
510.8835	199.4872
511.0458	204.4567
511.2081	206.4743
511.3703	213.7283
511.5326	213.9898
511.6949	212.1454
511.8571	215.8036
512.0193	209.6806
512.1816	207.4958
512.3438	202.6951
512.506	202.2093
512.6682	199.591
512.8304	201.8701
512.9926	196.1727
513.1548	195.961
513.317	197.5124
513.4792	198.7247
513.6414	196.5148
513.8035	199.6696
513.9657	189.945
514.1279	190.6321
514.29	201.0594
514.4521	193.182
514.6143	191.667
514.7764	197.7931
514.9385	204.8491
515.1006	198.0156
515.2628	189.3714
515.4249	191.4248
515.587	206.1549
515.7491	205.1612
515.9111	199.3544
516.0732	201.3118
516.2353	200.3844
516.3973	195.8176
516.5594	183.7249
516.7214	176.9397
516.8835	166.995
517.0455	164.4863
517.2076	166.6696
517.3696	171.6393
517.5316	184.7789
517.6937	200.6055
517.8557	203.9392
518.0176	203.6376
518.1796	189.9644
518.3416	174.6182
518.5036	167.4417
518.6656	176.4732
518.8275	194.9876
518.9895	202.5224
519.1514	192.6529
519.3134	198.0351
519.4753	194.0872
519.6373	195.662
519.7992	205.2351
519.9611	202.0436
520.123	208.0973
520.2849	199.4613
520.4468	198.3291
520.6087	200.2152
520.7706	197.9434
520.9325	196.939
521.0944	200.5711
521.2562	198.1183
521.4181	208.5893
521.58	202.1686
521.7418	206.3448
521.9036	210.1074
522.0655	214.0003
522.2273	209.562
522.3891	205.4314
522.551	201.7619
522.7128	194.2667
522.8746	193.499
523.0363	204.668
523.1981	208.7585
523.3599	200.5551
523.5217	196.9227
523.6835	202.1711
523.8452	212.9367
524.007	218.298
524.1687	212.564
524.3304	219.6134
524.4922	217.6344
524.6539	216.0852
524.8157	213.3904
524.9774	213.2276
525.1391	210.5606
525.3008	209.9769
525.4625	214.1294
525.6241	215.1059
525.7858	221.2984
525.9475	216.8257
526.1092	216.334
526.2709	207.6522
526.4325	200.0928
526.5942	192.3227
526.7558	184.1644
526.9174	185.1098
527.079	190.6408
527.2407	197.4913
527.4023	203.5874
527.5639	213.8805
527.7255	206.8648
527.8871	214.0467
528.0487	216.398
528.2103	210.9251
528.3718	205.5453
528.5334	211.7623
528.695	217.7828
528.8565	219.4866
529.0181	228.5999
529.1796	228.3117
529.3412	223.9368
529.5027	231.5738
529.6642	214.4018
529.8257	207.0578
529.9872	209.8702
530.1487	218.5404
530.3102	216.4528
530.4717	218.6163
530.6332	228.291
530.7947	225.4682
530.9562	223.5862
531.1176	217.7315
531.2791	226.0146
531.4405	217.3611
531.6019	216.8299
531.7634	219.4825
531.9248	225.679
532.0862	222.7814
532.2477	218.9579
532.4091	217.5857
532.5704	209.9381
532.7319	202.456
532.8932	197.9314
533.0546	202.2375
533.216	210.5042
533.3774	213.0506
533.5388	220.3412
533.7001	215.9222
533.8615	213.6935
534.0228	217.9036
534.1841	211.3436
534.3455	213.4323
534.5068	210.1621
534.6681	213.9932
534.8293	224.0989
534.9907	220.0946
535.152	216.6508
535.3132	220.4906
535.4745	225.6068
535.6358	228.973
535.7971	224.7545
535.9583	223.3302
536.1196	216.9233
536.2808	212.5741
536.4421	219.3924
536.6033	210.5793
536.7645	209.4858
536.9258	208.3874
537.087	209.7422
537.2482	207.5427
537.4094	208.6242
537.5706	213.9993
537.7318	215.8327
537.8929	221.4345
538.0541	214.0809
538.2153	211.219
538.3764	223.0779
538.5376	216.4475
538.6987	211.2109
538.8599	216.1074
539.021	218.0613
539.1821	210.7106
539.3432	210.4092
539.5043	212.311
539.6655	207.9701
539.8265	206.1106
539.9876	208.1237
540.1487	209.8636
540.3098	204.3301
540.4708	201.6112
540.6319	202.6011
540.793	202.2471
540.954	210.1713
541.1151	211.0387
541.2761	208.1653
541.4371	207.5339
541.5981	207.9286
541.7592	212.1507
541.9202	215.8635
542.0812	208.6468
542.2422	204.131
542.4031	209.9348
542.5641	216.1887
542.7251	210.1787
542.886	207.8432
543.0471	209.696
543.208	210.7505
543.369	204.554
543.5298	208.6589
543.6908	205.7197
543.8517	212.289
544.0126	219.6485
544.1736	220.4219
544.3345	210.4966
544.4954	205.8436
544.6563	209.7056
544.8171	211.6882
544.978	214.6333
545.1389	216.4378
545.2997	211.0057
545.4606	216.7946
545.6215	213.0554
545.7823	215.8769
545.9432	218.1574
546.104	212.0103
546.2648	207.8528
546.4256	211.0688
546.5864	213.5029
546.7473	223.0412
546.908	213.659
547.0688	210.0683
547.2296	219.1854
547.3904	208.9977
547.5511	207.178
547.7119	210.9649
547.8727	207.7116
548.0334	206.7226
548.1942	210.4612
548.3549	204.6144
548.5156	212.6433
548.6763	213.7224
548.837	212.7156
548.9977	212.9967
549.1584	214.7635
549.3192	215.7603
549.4798	211.1195
549.6405	215.8734
549.8011	209.4637
549.9619	209.229
550.1225	214.1042
550.2831	217.8232
550.4438	214.093
550.6044	214.6806
550.765	214.5967
550.9257	211.8125
551.0863	213.8422
551.2469	221.169
551.4075	214.0744
551.5681	215.276
551.7287	224.6931
551.8893	221.6214
552.0498	224.8683
552.2104	220.3151
552.371	214.8368
552.5315	215.8897
552.6921	209.0168
552.8526	205.9688
553.0131	208.6671
553.1736	213.9256
553.3342	214.7673
553.4947	212.6621
553.6552	212.7176
553.8157	214.0935
553.9762	215.2786
554.1367	221.0668
554.2971	210.4937
554.4576	208.9651
554.618	209.3705
554.7785	220.9715
554.939	216.6903
555.0994	212.9452
555.2598	216.209
555.4203	217.7551
555.5807	212.0698
555.7411	213.4255
555.9015	216.2114
556.0619	214.3775
556.2223	209.0213
556.3827	212.9835
556.5431	209.8198
556.7034	207.5261
556.8638	212.1258
557.0242	206.7216
557.1845	213.4631
557.3448	206.5689
557.5052	203.4444
557.6655	211.1411
557.8259	207.9062
557.9861	217.2299
558.1465	219.8201
558.3068	214.6412
558.467	203.566
558.6274	199.0411
558.7877	198.8115
558.9479	200.231
559.1082	201.4407
559.2684	204.2825
559.4287	204.3704
559.5889	202.09
559.7491	206.41
559.9094	197.9514
560.0696	197.7488
560.2299	202.9112
560.3901	202.9742
560.5502	212.4214
560.7104	209.4733
560.8707	210.7551
561.0308	208.4353
561.191	208.3075
561.3511	206.0639
561.5114	202.6869
561.6714	198.5009
561.8316	199.5651
561.9918	201.4124
562.1519	203.3916
562.312	206.6456
562.4722	196.1695
562.6323	201.3848
562.7924	208.0701
562.9525	207.3949
563.1125	205.9646
563.2726	208.0656
563.4327	210.512
563.5928	202.7369
563.7528	198.6988
563.9129	196.7247
564.0729	205.9805
564.233	201.9352
564.393	197.3312
564.553	205.8415
564.7131	204.0208
564.873	198.4823
565.0331	204.2742
565.1931	207.0199
565.353	200.755
565.5131	197.4146
565.673	196.5169
565.833	194.1899
565.9929	194.3246
566.1529	199.629
566.3129	199.6555
566.4728	202.8327
566.6328	205.8696
566.7927	198.4643
566.9526	197.9249
567.1125	203.6806
567.2724	209.9952
567.4323	207.7175
567.5922	206.7366
567.7521	201.4599
567.9119	195.3654
568.0718	198.638
568.2317	198.0242
568.3915	191.5673
568.5514	191.291
568.7112	199.2789
568.871	198.1106
569.0309	197.4445
569.1907	200.3879
569.3505	197.0432
569.5103	196.7842
569.6701	201.2661
569.8299	198.8813
569.9897	195.2963
570.1495	199.0499
570.3092	197.435
570.469	192.8596
570.6287	193.7479
570.7885	196.0954
570.9482	184.3883
571.108	189.4803
571.2677	189.3612
571.4274	197.4469
571.5871	192.1571
571.7468	199.494
571.9066	207.1636
572.0662	203.7085
572.2259	197.598
572.3856	197.7045
572.5452	206.7373
572.7049	203.4435
572.8646	204.4955
573.0242	196.7219
573.1838	199.1553
573.3435	197.0441
573.5031	201.6893
573.6627	206.7041
573.8223	203.5305
573.9819	199.6942
574.1415	207.0515
574.3011	206.5359
574.4607	200.7621
574.6203	195.8984
574.7798	201.0591
574.9394	201.4891
575.099	199.9138
575.2585	191.6301
575.418	196.4689
575.5776	193.0875
575.7371	194.6003
575.8966	196.5371
576.0562	200.0743
576.2156	193.7488
576.3751	198.6685
576.5346	200.6571
576.6941	200.7845
576.8536	198.1603
577.0131	200.2145
577.1725	194.6505
577.332	195.2826
577.4914	194.4524
577.6508	196.7481
577.8103	198.0968
577.9697	197.2721
578.1291	194.4726
578.2885	194.5365
578.4479	189.2099
578.6073	192.2233
578.7667	191.7642
578.9261	197.3333
579.0854	192.8701
579.2448	191.5782
579.4042	195.0813
579.5635	191.4806
579.7229	196.9026
579.8822	196.3559
580.0416	193.7985
580.2009	192.3017
580.3602	192.4391
580.5195	192.8725
580.6788	191.3755
580.8381	194.0995
580.9974	196.0455
581.1566	187.9555
581.3159	192.6645
581.4752	193.2316
581.6345	184.1846
581.7937	193.478
581.9529	196.8763
582.1122	194.3003
582.2714	188.9569
582.4306	196.495
582.5898	195.0192
582.749	196.0749
582.9082	192.7639
583.0674	194.1726
583.2266	188.9315
583.3857	184.7811
583.5449	183.768
583.7041	191.7586
583.8633	194.1182
584.0224	192.3669
584.1815	192.3006
584.3407	191.3298
584.4998	190.7547
584.6589	193.0563
584.818	189.5119
584.9771	185.9268
585.1362	181.3447
585.2953	186.497
585.4544	190.8982
585.6135	188.586
585.7725	181.995
585.9316	178.5394
586.0906	185.3954
586.2497	187.565
586.4087	181.9869
586.5677	185.1675
586.7267	189.3908
586.8858	189.4079
587.0448	186.1644
587.2038	187.6859
587.3628	187.6151
587.5218	182.7908
587.6807	184.8409
587.8397	181.4049
587.9987	174.3611
588.1577	176.3909
588.3166	179.0852
588.4755	173.5719
588.6345	174.3195
588.7934	167.8015
588.9523	171.7686
589.1112	162.5116
589.2701	162.8596
589.429	161.7482
589.5879	163.1774
589.7468	165.1573
589.9056	163.9002
590.0645	161.6104
590.2234	169.6659
590.3822	177.2601
590.5411	179.2576
590.6999	175.189
590.8588	178.1282
591.0176	176.7977
591.1764	174.3306
591.3352	179.7748
591.494	175.7095
591.6528	175.0983
591.8116	172.5564
591.9703	171.8209
592.1291	181.4725
592.2878	173.7641
592.4467	174.2268
592.6053	180.6761
592.7641	172.0895
592.9229	174.8555
593.0816	178.0575
593.2403	171.4884
593.399	174.913
593.5577	179.9392
593.7164	176.4027
593.8751	176.3945
594.0338	183.7051
594.1924	177.7237
594.3511	171.7117
594.5098	176.2214
594.6684	178.6878
594.8271	173.7669
594.9857	176.8514
595.1443	174.495
595.303	171.3964
595.4615	169.4388
595.6202	173.3013
595.7787	175.6748
595.9374	173.6669
596.0959	175.4598
596.2545	176.9058
596.4131	175.3133
596.5717	173.1326
596.7302	176.4328
596.8887	173.6986
597.0473	169.9567
597.2058	174.8434
597.3644	175.8329
597.5229	169.5534
597.6814	169.6015
597.8399	169.9671
597.9984	173.3128
598.1569	173.2765
598.3154	175.7614
598.4738	172.5297
598.6323	175.5435
598.7908	176.4047
598.9492	177.2046
599.1076	178.0402
599.2661	171.6264
599.4245	177.2444
599.5829	177.7622
599.7413	172.1936
599.8997	173.5965
600.0581	172.4598
600.2165	176.7487
600.3749	180.8016
600.5333	176.2475
600.6917	179.5965
600.85	172.1789
601.0084	172.2434
601.1667	166.4951
601.325	173.9847
601.4833	170.169
601.6417	170.4375
601.8	174.089
601.9583	172.2589
602.1166	168.8947
602.2749	164.1136
602.4332	173.5083
602.5914	174.1713
602.7498	168.7831
602.908	176.6286
603.0662	179.1553
603.2245	176.2203
603.3828	180.2184
603.541	179.1003
603.6992	170.404
603.8574	170.825
604.0156	176.892
604.1738	174.8156
604.332	177.2181
604.4902	176.6748
604.6484	177.1437
604.8065	173.7705
604.9647	171.9545
605.1229	172.9035
605.281	174.7939
605.4391	177.4364
605.5973	167.3987
605.7554	172.0768
605.9135	174.1588
606.0717	176.7297
606.2297	174.8939
606.3878	174.1959
606.5459	166.0608
606.704	166.3612
606.8621	175.3886
607.0201	178.5327
607.1782	175.9844
607.3362	180.1685
607.4943	174.2473
607.6523	175.4112
607.8104	174.3204
607.9684	172.8981
608.1264	175.782
608.2844	168.2593
608.4424	168.7835
608.6003	174.7656
608.7584	168.6992
608.9163	171.2313
609.0743	169.4738
609.2322	162.156
609.3902	161.2266
609.5482	170.3828
609.7061	175.58
609.864	171.1868
610.0219	165.5088
610.1798	166.7032
610.3377	158.1806
610.4956	157.6568
610.6535	170.81
610.8114	166.5543
610.9693	166.6068
611.1271	174.4997
611.285	166.8157
611.4429	167.5816
611.6007	161.1763
611.7585	162.765
611.9164	166.7299
612.0742	167.9313
612.232	164.1269
612.3898	160.7957
612.5476	157.9804
612.7054	163.9855
612.8632	163.3237
613.0209	166.9949
613.1787	167.3649
613.3365	169.054
613.4942	168.9359
613.652	159.148
613.8097	162.6723
613.9674	162.8062
614.1252	157.601
614.2829	156.695
614.4406	168.8536
614.5983	166.3009
614.756	164.3395
614.9136	168.2823
615.0714	162.2834
615.229	163.5839
615.3867	159.3974
615.5443	156.7326
615.702	154.9537
615.8596	155.6895
616.0172	156.7651
616.1748	156.215
616.3325	158.7896
616.4901	154.9863
616.6476	156.327
616.8052	151.0316
616.9628	157.006
617.1204	155.8574
617.278	157.6727
617.4355	160.2037
617.5931	158.0677
617.7506	155.6627
617.9081	162.6381
618.0657	152.9543
618.2232	152.8104
618.3807	156.2884
618.5382	157.1656
618.6957	161.306
618.8532	158.5504
619.0107	158.5939
619.1682	156.3495
619.3256	153.9111
619.4831	153.8698
619.6406	159.4248
619.798	159.0842
619.9554	160.9682
620.1129	163.4758
620.2703	157.4916
620.4277	157.4537
620.5851	152.5094
620.7425	157.8134
620.8998	148.7863
621.0573	156.2852
621.2146	151.7953
621.372	155.0424
621.5294	157.6476
621.6867	156.712
621.8441	152.7479
622.0013	155.1623
622.1587	152.7136
622.316	153.5954
622.4733	160.0192
622.6306	159.6444
622.7879	161.0985
622.9452	153.5767
623.1025	159.4469
623.2598	155.8641
623.4171	151.5183
623.5743	157.7307
623.7316	153.2581
623.8888	148.4442
624.046	151.1867
624.2032	146.9889
624.3605	147.0557
624.5176	154.789
624.6749	151.5173
624.8321	149.7417
624.9893	150.4945
625.1464	154.0978
625.3036	148.9978
625.4608	149.6115
625.6179	141.6152
625.7751	143.1194
625.9322	149.6106
626.0894	154.5909
626.2465	149.0082
626.4036	148.6258
626.5607	148.6047
626.7178	149.0578
626.8749	153.3333
627.032	150.7307
627.189	151.4754
627.3461	151.6008
627.5032	152.1671
627.6602	145.6149
627.8173	140.5956
627.9743	142.5364
628.1313	140.4847
628.2884	149.5368
628.4454	147.6993
628.6024	142.2296
628.7594	146.8657
628.9164	152.8514
629.0734	153.4539
629.2303	148.9614
629.3873	145.1913
629.5443	142.4621
629.7012	149.3817
629.8582	145.7601
630.0151	145.5685
630.172	139.4943
630.3289	145.2996
630.4858	144.1323
630.6428	152.6455
630.7996	151.5289
630.9565	154.5762
631.1134	144.2737
631.2703	143.329
631.4272	147.0268
631.584	141.3985
631.7408	144.8052
631.8977	136.6028
632.0546	140.2016
632.2114	142.6938
632.3682	149.4904
632.525	147.3815
632.6818	149.7412
632.8386	151.0604
632.9954	148.4403
633.1522	145.9955
633.3089	146.7212
633.4657	148.8986
633.6224	145.1587
633.7792	144.4211
633.9359	143.8394
634.0927	142.594
634.2494	140.3437
634.4061	145.8067
634.5628	142.5213
634.7195	139.8291
634.8762	142.1082
635.0329	147.361
635.1895	145.0712
635.3462	140.723
635.5029	144.5892
635.6595	137.7048
635.8162	140.2438
635.9728	147.3583
636.1295	143.4478
636.2861	143.7202
636.4427	139.9953
636.5992	135.1017
636.7559	144.7141
636.9124	142.2883
637.069	138.0331
637.2256	141.3014
637.3821	149.7474
637.5387	149.5552
637.6953	141.5182
637.8518	138.5292
638.0084	143.7862
638.1649	139.8107
638.3214	146.9798
638.4779	152.3389
638.6344	147.0759
638.7909	144.6636
638.9474	140.2768
639.1038	147.8537
639.2603	147.4113
639.4167	139.13
639.5732	135.2926
639.7297	143.2036
639.8861	144.346
640.0425	142.9473
640.199	137.4274
640.3553	138.1124
640.5118	134.7459
640.6682	136.3619
640.8245	144.8486
640.981	142.0419
641.1373	141.2854
641.2936	131.8541
641.45	138.5756
641.6064	140.0801
641.7627	143.9582
641.9191	137.1212
642.0754	140.504
642.2317	134.6441
642.388	139.972
642.5443	138.9974
642.7006	138.2852
642.8569	142.2077
643.0131	140.255
643.1694	134.5771
643.3257	136.2503
643.4819	139.4448
643.6382	136.5716
643.7944	137.8554
643.9506	130.6263
644.1069	129.6555
644.2631	135.864
644.4193	139.5715
644.5754	140.131
644.7316	142.9741
644.8878	133.966
645.044	132.1734
645.2002	134.1578
645.3563	130.907
645.5125	134.36
645.6686	131.3897
645.8248	131.1218
645.9809	137.2501
646.137	134.705
646.2931	129.8575
646.4492	135.7574
646.6053	134.6479
646.7614	135.4702
646.9174	132.6824
647.0735	135.1439
647.2296	125.2795
647.3856	126.8333
647.5417	129.2644
647.6977	129.9
647.8537	136.3961
648.0098	130.2422
648.1658	129.8936
648.3218	131.4767
648.4777	128.8109
648.6337	131.4827
648.7897	129.839
648.9457	128.2902
649.1016	129.9007
649.2576	123.2341
649.4135	128.4477
649.5695	130.6738
649.7254	122.0291
649.8813	125.8176
650.0372	128.5513
650.1932	130.2747
650.3491	127.7502
650.5049	127.5919
650.6608	132.8288
650.8167	131.2461
650.9725	130.384
651.1284	131.2997
651.2842	131.9482
651.4401	135.2669
651.5959	124.2991
651.7518	128.2961
651.9076	122.5091
652.0634	128.8997
652.2192	124.0426
652.3749	124.6908
652.5308	130.4663
652.6865	132.7525
652.8423	128.6944
652.998	130.6479
653.1538	133.6564
653.3096	130.5524
653.4653	126.9441
653.621	131.5084
653.7767	131.1149
653.9324	127.1205
654.0881	131.4341
654.2438	124.3921
654.3995	122.4182
654.5552	126.4329
654.7109	130.3124
654.8665	127.8945
655.0222	124.4347
655.1778	118.7597
655.3334	113.9716
655.4891	123.1762
655.6447	128.5979
655.8003	119.9762
655.9559	115.0877
656.1115	107.0007
656.2671	101.4091
656.4227	93.7392
656.5782	101.9241
656.7338	106.015
656.8893	111.0735
657.0449	121.117
657.2004	120.9517
657.356	122.5209
657.5115	129.2372
657.667	126.5521
657.8225	125.1949
657.978	129.5747
658.1335	123.9973
658.289	120.5672
658.4445	122.1473
658.5999	128.9069
658.7554	129.903
658.9108	125.4307
659.0663	126.3898
659.2217	123.2842
659.3771	124.9979
659.5325	131.4007
659.6879	129.2163
659.8433	122.9016
659.9987	131.3532
660.1541	129.2949
660.3095	123.4584
660.4648	128.1951
660.6202	121.3257
660.7756	124.7407
660.9309	128.732
661.0862	128.9118
661.2416	125.9673
661.3969	129.4861
661.5522	129.3101
661.7075	133.3656
661.8628	130.8268
662.0181	122.5529
662.1733	120.4525
662.3286	127.7976
662.4839	129.9913
662.6391	133.3706
662.7944	122.2716
662.9496	124.7077
663.1048	126.0084
663.26	123.7378
663.4152	119.2337
663.5704	121.6918
663.7256	117.2095
663.8808	123.6061
664.036	118.1909
664.1912	123.9623
664.3463	121.5655
664.5015	123.445
664.6566	122.0702
664.8118	127.2477
664.9669	127.538
665.122	123.8345
665.2771	128.1009
665.4322	124.8886
665.5873	127.2032
665.7424	122.9961
665.8975	119.548
666.0526	117.6398
666.2076	115.497
666.3627	120.5488
666.5177	121.104
666.6727	122.4958
666.8278	120.764
666.9828	124.8865
667.1378	122.7155
667.2928	130.4698
667.4478	126.351
667.6028	120.5722
667.7578	125.0501
667.9127	124.8155
668.0677	124.6984
668.2226	126.587
668.3776	118.7692
668.5325	121.3782
668.6874	129.2718
668.8423	123.9722
668.9973	126.014
669.1522	127.3087
669.3071	121.2564
669.4619	117.924
669.6168	119.98
669.7717	117.1639
669.9265	112.0246
670.0814	121.7907
670.2362	126.9766
670.3911	115.9169
670.5459	115.2466
670.7007	122.0597
670.8555	120.4358
671.0103	120.5769
671.1651	118.0419
671.3199	121.1308
671.4747	121.995
671.6295	115.3467
671.7842	122.3006
671.939	118.8305
672.0937	117.5503
672.2484	112.8644
672.4031	119.6257
672.5579	120.9915
672.7126	119.5995
672.8673	126.6511
673.022	123.3163
673.1767	120.9583
673.3314	120.5723
673.486	114.6028
673.6407	119.3936
673.7953	118.773
673.95	117.2777
674.1046	118.9387
674.2592	114.2519
674.4138	113.6091
674.5684	120.2506
674.723	123.4259
674.8776	118.8799
675.0322	122.9852
675.1868	112.6401
675.3414	109.0722
675.4959	117.8959
675.6505	114.6012
675.805	120.5208
675.9595	117.9184
676.1141	116.2863
676.2686	112.6515
676.4231	110.0209
676.5776	109.8967
676.7321	114.5815
676.8866	116.5575
677.041	113.6442
677.1955	113.9808
677.35	112.9581
677.5044	110.0078
677.6589	112.8591
677.8133	114.7489
677.9677	114.6934
678.1221	111.4521
678.2766	110.5017
678.4309	109.8887
678.5853	116.6475
678.7397	107.2979
678.8941	110.2698
679.0485	107.7232
679.2028	112.3128
679.3571	113.1949
679.5115	111.5468
679.6658	111.1398
679.8201	112.2719
679.9744	109.1479
680.1288	110.5087
680.2831	111.0529
680.4373	111.5123
680.5916	110.5242
680.7459	107.8799
680.9001	105.012
681.0544	109.5237
681.2087	109.6949
681.3629	104.6088
681.5171	115.8477
681.6713	102.5941
681.8256	99.38725
681.9797	104.5488
682.134	108.4581
682.2881	109.9001
682.4423	99.14689
682.5965	98.47659
682.7507	107.9044
682.9048	110.1576
683.059	103.7055
683.2131	109.543
683.3672	109.0061
683.5213	108.1765
683.6754	104.5313
683.8295	101.9989
683.9836	103.3968
684.1377	102.8532
684.2918	101.2895
684.4459	103.4909
684.5999	100.5452
684.754	97.11441
684.908	105.4556
685.062	106.2741
685.2161	103.9201
685.3701	102.2618
685.5241	101.2085
685.6781	100.8137
685.8321	102.2843
685.9861	102.0357
686.14	101.4729
686.294	102.9248
686.4479	106.2471
686.6019	103.3411
686.7559	88.74942
686.9098	80.89998
687.0637	80.01994
687.2176	77.78465
687.3715	75.48475
687.5254	84.08337
687.6793	82.61172
687.8332	89.31889
687.9871	91.66428
688.1409	96.84436
688.2947	92.41709
688.4486	95.18902
688.6024	93.8367
688.7563	90.80956
688.9101	88.58372
689.0639	88.71185
689.2177	84.8381
689.3715	91.34345
689.5253	97.9592
689.6791	95.20482
689.8328	93.92233
689.9866	95.04903
690.1403	92.35532
690.2941	90.19097
690.4478	90.01527
690.6015	93.37727
690.7552	90.52892
690.9089	90.72377
691.0626	87.34638
691.2164	91.25494
691.37	94.25439
691.5237	91.5783
691.6774	91.73788
691.831	93.01871
691.9847	89.64442
692.1383	93.35663
692.2919	95.73357
692.4456	92.7483
692.5992	91.34923
692.7527	93.64074
692.9064	91.83411
693.0599	90.13102
693.2136	97.67981
693.3671	90.2384
693.5207	88.21993
693.6742	90.08396
693.8278	92.59327
693.9813	91.80784
694.1348	90.01991
694.2883	85.0129
694.4418	86.15936
694.5953	92.81321
694.7488	90.41909
694.9023	89.7496
695.0558	91.96614
695.2093	85.5261
695.3627	88.93363
695.5162	92.40973
695.6696	90.53668
695.8231	84.44325
695.9764	85.92391
696.1299	89.02895
696.2833	92.60475
696.4367	87.69469
696.5901	95.74585
696.7435	93.60815
696.8968	87.94722
697.0502	92.86224
697.2036	92.41418
697.3569	90.87875
697.5102	94.6673
697.6635	88.84187
697.8168	88.9444
697.9702	91.23228
698.1235	88.15986
698.2768	88.87301
698.4301	88.94401
698.5833	91.76129
698.7366	94.27695
698.8898	89.69637
699.0431	87.20251
699.1964	87.11628
699.3495	88.49677
699.5028	90.94675
699.656	85.42276
699.8092	88.74286
699.9624	90.58035
700.1156	86.90678
700.2688	86.21939
700.4219	87.51939
700.5751	93.93949
700.7283	85.25502
700.8814	87.61254
701.0345	87.73102
701.1877	87.19562
701.3408	90.90825
701.4939	85.03296
701.647	92.36568
701.8001	85.82493
701.9532	85.52747
702.1063	81.63648
702.2593	86.84092
702.4124	87.17663
702.5654	83.2728
702.7184	85.88205
702.8715	87.57145
703.0245	84.70005
703.1776	87.48433
703.3305	90.03062
703.4835	91.13365
703.6365	88.85783
703.7895	83.57891
703.9424	86.42378
704.0954	86.69541
704.2484	85.54655
704.4013	84.62707
704.5543	85.29354
704.7072	89.53619
704.8601	87.91409
705.013	89.8893
705.1659	92.38264
705.3188	92.15039
705.4717	89.94751
705.6246	84.33539
705.7774	86.97277
705.9303	88.09035
706.0831	88.47758
706.236	86.91076
706.3888	86.39051
706.5416	89.86715
706.6944	84.31919
706.8472	79.27259
707	86.20076
707.1528	87.88064
707.3056	84.82891
707.4583	88.75504
707.6111	87.04358
707.7639	87.3656
707.9166	88.9562
708.0693	91.28022
708.222	85.91757
708.3748	80.29317
708.5275	84.73573
708.6802	86.82505
708.8328	87.15303
708.9855	90.07248
709.1382	85.37315
709.2909	91.045
709.4435	89.67771
709.5962	83.19841
709.7488	87.18785
709.9014	87.93942
710.054	89.24199
710.2067	90.43354
710.3593	85.02007
710.5118	79.62543
710.6644	81.14602
710.817	82.73224
710.9695	85.12434
711.1221	84.45204
711.2747	86.40157
711.4272	91.39852
711.5797	85.14338
711.7322	83.01175
711.8848	87.45351
712.0373	85.53345
712.1898	83.958
712.3422	84.00816
712.4948	80.75949
712.6472	84.15004
712.7996	86.59857
712.9521	87.21141
713.1046	81.84374
713.257	86.33248
713.4094	83.51482
713.5618	84.45793
713.7142	84.59299
713.8666	87.58794
714.019	87.67252
714.1714	86.50844
714.3237	85.48754
714.4761	82.7571
714.6285	87.00629
714.7808	84.34112
714.9331	87.46669
715.0854	77.51798
715.2378	76.85947
715.3901	82.19495
715.5424	79.94305
715.6947	79.4727
715.8469	81.23024
715.9992	82.30195
716.1515	79.20219
716.3037	79.74577
716.456	72.516
716.6082	69.17055
716.7604	71.34725
716.9127	75.8147
717.0649	69.81078
717.2171	71.20731
717.3693	69.29284
717.5214	67.60108
717.6736	68.1059
717.8258	70.86262
717.978	70.68018
718.1301	69.80759
718.2822	72.00562
718.4344	66.78273
718.5865	67.26717
718.7386	68.97453
718.8907	67.47395
719.0428	71.62066
719.1949	71.94569
719.3469	70.70197
719.499	67.18939
719.6511	64.29064
719.8031	75.09254
719.9551	68.97463
720.1072	65.56998
720.2592	66.3198
720.4112	66.15639
720.5632	66.92145
720.7152	72.197
720.8672	71.89906
721.0192	69.71954
721.1711	73.00072
721.3231	79.65977
721.475	75.98185
721.627	70.53065
721.7789	75.28311
721.9308	70.01279
722.0828	79.47364
722.2347	77.39748
722.3866	71.20432
722.5385	72.45805
722.6903	74.66269
722.8422	76.83076
722.9941	79.0194
723.1459	71.79161
723.2977	70.06416
723.4496	68.20396
723.6014	68.79202
723.7532	61.15209
723.905	67.24348
724.0568	69.41831
724.2086	69.30167
724.3604	65.69921
724.5121	70.26634
724.6639	70.47216
724.8157	74.54135
724.9674	75.17329
725.1191	71.13144
725.2709	66.78175
725.4226	66.16412
725.5743	70.46925
725.726	73.82584
725.8777	71.85621
726.0294	69.851
726.181	68.71747
726.3327	67.82819
726.4844	68.61224
726.636	70.96097
726.7877	71.87263
726.9393	69.17336
727.0909	67.79329
727.2425	65.46239
727.3941	65.02971
727.5457	64.6716
727.6973	62.09323
727.8488	61.42119
728.0004	64.11768
728.1519	69.22611
728.3035	72.0233
728.455	73.16032
728.6066	71.95988
728.7581	65.27698
728.9095	71.19539
729.0611	65.85999
729.2126	60.15868
729.364	62.41566
729.5155	70.39201
729.667	64.11263
729.8184	66.9885
729.9698	72.25452
730.1213	66.7083
730.2727	63.84817
730.4241	65.73275
730.5756	67.99951
730.7269	66.67154
730.8784	70.46469
731.0297	69.21143
731.1811	66.43228
731.3325	66.53088
731.4838	68.60331
731.6351	69.37654
731.7865	65.20826
731.9378	69.18667
732.0891	70.29612
732.2404	76.50374
732.3917	76.38113
732.543	75.28937
732.6943	72.5984
732.8456	77.88409
732.9968	73.28637
733.1481	73.17001
733.2993	68.85266
733.4506	74.01874
733.6018	74.42898
733.753	75.70679
733.9042	74.59921
734.0554	77.35416
734.2066	75.40384
734.3578	73.67691
734.509	70.49377
734.6602	71.17073
734.8113	74.73163
734.9624	69.88679
735.1136	68.3875
735.2647	72.08262
735.4158	72.02718
735.5669	70.04816
735.718	71.41443
735.8691	65.88898
736.0201	70.47913
736.1713	68.34022
736.3223	69.57217
736.4733	66.57755
736.6244	70.06647
736.7755	73.01563
736.9265	70.69408
737.0775	73.79855
737.2285	72.32104
737.3795	71.61127
737.5305	69.16252
737.6815	70.16515
737.8324	70.31995
737.9834	67.03422
738.1343	71.09698
738.2853	71.41302
738.4362	69.87759
738.5871	72.82909
738.738	68.39989
738.8889	66.90718
739.0399	65.45715
739.1907	72.16779
739.3416	71.30761
739.4925	65.9203
739.6433	68.58047
739.7942	70.81214
739.945	71.07668
740.0958	69.28764
740.2467	65.85279
740.3975	67.46492
740.5483	68.6609
740.6991	71.01393
740.8499	66.69602
741.0007	65.31466
741.1514	67.7607
741.3022	67.96746
741.4529	66.91076
741.6036	66.48978
741.7544	67.92529
741.9051	69.37634
742.0558	67.03019
742.2065	68.15795
742.3572	69.50706
742.5079	66.49429
742.6586	60.96115
742.8093	69.96914
742.9599	69.33621
743.1105	68.00075
743.2612	67.37117
743.4118	67.03951
743.5624	68.16467
743.7131	71.62173
743.8636	65.77922
744.0142	64.67364
744.1648	67.0412
744.3154	66.16216
744.4659	69.72279
744.6165	66.14986
744.767	63.66917
744.9176	67.39783
745.0681	65.47406
745.2186	70.95819
745.3691	67.9484
745.5197	66.90109
745.6702	72.9417
745.8206	69.50085
745.9711	65.1641
746.1215	67.9568
746.272	67.82126
746.4224	66.50975
746.5729	65.88525
746.7233	67.76907
746.8737	69.73751
747.0241	63.64765
747.1745	65.95591
747.3249	69.94623
747.4753	68.14771
747.6257	67.62124
747.776	64.34032
747.9264	60.89958
748.0767	64.62764
748.2271	66.65363
748.3774	58.4775
748.5276	61.02255
748.678	61.88605
748.8282	64.74571
748.9786	69.82861
749.1288	67.94906
749.2791	63.21426
749.4294	63.68663
749.5796	63.0786
749.7299	61.82906
749.8801	63.87733
750.0303	64.73566
750.1805	63.45788
750.3307	60.28319
750.4809	64.4363
750.6311	67.67262
750.7813	63.2576
750.9314	63.88169
751.0816	61.92607
751.2318	60.02781
751.3818	59.37801
751.532	60.1776
751.6821	61.87741
751.8322	64.78388
751.9823	56.04567
752.1324	56.88845
752.2825	65.51479
752.4326	64.25683
752.5826	62.04957
752.7327	61.49636
752.8827	65.84071
753.0327	66.90089
753.1827	59.82148
753.3328	60.19872
753.4828	62.95502
753.6328	62.70801
753.7828	61.33488
753.9327	57.97533
754.0827	58.78412
754.2327	62.40822
754.3826	59.18181
754.5325	58.57539
754.6825	59.43137
754.8324	57.43404
754.9823	58.44522
755.1322	64.38278
755.2821	63.24671
755.432	56.14421
755.5818	57.0642
755.7318	57.47606
755.8816	56.33263
756.0314	55.70338
756.1813	55.93083
756.3311	61.93262
756.4809	59.41502
756.6307	55.46502
756.7805	55.87186
756.9303	55.1614
757.0801	55.51456
757.2299	60.11134
757.3796	60.73412
757.5294	59.79278
757.6791	52.32853
757.8289	55.83368
757.9786	59.70284
758.1283	57.59312
758.278	55.52711
758.4277	60.49583
758.5773	58.65648
758.7271	54.36514
758.8767	56.88626
759.0264	54.85125
759.176	54.15181
759.3256	47.12724
759.4753	41.2201
759.6249	33.75426
759.7745	32.25404
759.9241	27.66091
760.0737	33.12569
760.2233	32.08664
760.3729	27.78778
760.5224	22.86522
760.6719	24.20156
760.8215	25.00216
760.971	25.92084
761.1205	32.52687
761.2701	32.36189
761.4196	31.1889
761.5691	35.34049
761.7186	38.79361
761.868	43.98937
762.0175	42.38916
762.167	41.38978
762.3164	38.66889
762.4659	35.06931
762.6153	33.82327
762.7647	34.954
762.9141	36.65047
763.0635	34.50327
763.2129	32.36011
763.3623	36.09895
763.5117	36.06462
763.661	32.7148
763.8104	33.82209
763.9597	33.02245
764.1091	39.48176
764.2584	36.53693
764.4077	35.29589
764.557	37.04072
764.7063	42.32241
764.8556	36.08676
765.0049	36.23764
765.1541	39.44665
765.3034	39.19724
765.4526	42.00752
765.6019	46.09962
765.7511	39.19259
765.9003	41.43355
766.0496	43.76619
766.1987	44.32244
766.348	46.35814
766.4971	48.54763
766.6463	44.47421
766.7955	45.15512
766.9446	47.41774
767.0938	47.56392
767.2429	47.41692
767.392	47.09663
767.5411	49.00002
767.6902	52.52932
767.8394	49.17372
767.9884	46.05875
768.1375	49.65015
768.2866	52.27501
768.4356	50.62009
768.5847	48.55606
768.7337	49.90704
768.8828	50.89773
769.0317	50.62725
769.1808	53.63769
769.3298	43.98254
769.4788	47.52942
769.6277	52.22948
769.7767	48.85406
769.9257	49.17636
770.0746	44.52016
770.2236	46.96445
770.3725	48.12435
770.5214	52.1938
770.6703	48.2428
770.8193	53.6958
770.9681	53.13081
771.1171	49.34591
771.2659	45.414
771.4148	47.60514
771.5637	47.28561
771.7125	45.30672
771.8613	45.66344
772.0101	49.16189
772.159	52.60944
772.3078	50.65051
772.4566	47.679
772.6054	48.80811
772.7542	47.7189
772.903	43.81009
773.0517	42.49201
773.2004	47.62671
773.3492	48.84506
773.4979	49.8716
773.6467	49.27977
773.7953	48.15753
773.944	47.05166
774.0928	44.76866
774.2415	48.83475
774.3901	55.32829
774.5388	49.07658
774.6874	50.04568
774.8361	49.17731
774.9847	45.7452
775.1334	45.15078
775.282	43.2299
775.4305	48.99278
775.5792	50.47167
775.7277	47.28893
775.8763	44.17801
776.0249	45.44745
776.1735	45.7483
776.322	44.13425
776.4705	44.60331
776.6191	43.741
776.7676	43.24641
776.9161	45.56722
777.0646	45.9662
777.2131	46.43943
777.3616	43.95802
777.5101	46.59327
777.6585	45.13442
777.8069	44.27234
777.9554	44.85077
778.1038	46.98811
778.2523	41.28167
778.4007	42.03334
778.5491	43.35103
778.6974	42.56393
778.8459	43.01498
778.9942	47.61073
779.1426	42.65627
779.291	45.22526
779.4393	44.30216
779.5876	47.55022
779.736	45.49674
779.8843	48.70597
780.0326	44.63852
780.1809	48.50651
780.3292	45.89732
780.4775	45.23074
780.6257	41.2907
780.774	42.14917
780.9222	47.90482
781.0704	41.47735
781.2187	45.58169
781.3669	45.59491
781.5151	44.83118
781.6633	42.57735
781.8115	39.6504
781.9597	42.60983
782.1078	44.36396
782.256	41.83161
782.4042	42.97518
782.5523	42.65268
782.7004	46.80592
782.8486	43.65265
782.9967	42.60141
783.1448	44.06841
783.2929	43.9093
783.441	43.6862
783.5891	36.99094
783.7371	41.13869
783.8851	42.16144
784.0332	40.94229
784.1812	44.83768
784.3293	43.96808
784.4773	42.30927
784.6253	40.96769
784.7733	44.09451
784.9213	39.2882
785.0692	44.1112
785.2172	40.98934
785.3652	47.27766
785.5131	43.21194
785.6611	41.00052
785.809	38.98074
785.9569	36.81175
786.1048	35.15203
786.2527	37.39988
786.4006	38.92925
786.5485	39.23112
786.6964	40.69014
786.8442	43.31847
786.9921	42.45108
787.1399	42.93839
787.2877	39.52879
787.4355	36.85679
787.5833	39.96178
787.7311	46.10808
787.8789	41.79322
788.0267	44.82624
788.1745	39.38218
788.3223	41.67718
788.47	43.97991
788.6177	42.25029
788.7654	42.35766
788.9132	47.94532
789.0609	42.31848
789.2086	38.15954
789.3563	42.96028
789.504	39.99185
789.6517	38.66444
789.7993	40.95974
789.947	37.75964
790.0946	36.72525
790.2422	36.09825
790.3898	37.72764
790.5375	36.98107
790.6851	38.85061
790.8326	40.90153
790.9802	40.54923
791.1278	41.13528
791.2754	42.07203
791.423	39.42865
791.5705	38.11427
791.718	33.42086
791.8655	37.9958
792.0131	35.41982
792.1606	39.41514
792.308	42.36666
792.4556	38.38657
792.603	37.83586
792.7505	35.67441
792.8979	37.02444
793.0454	35.64543
793.1928	37.75033
793.3403	36.36158
793.4877	35.40454
793.6351	39.50801
793.7825	37.22772
793.9299	39.68414
794.0772	37.44536
794.2246	38.152
794.3719	34.99372
794.5193	38.88083
794.6666	39.89805
794.814	37.79942
794.9613	40.36369
795.1086	32.85654
795.2559	34.85999
795.4032	36.82983
795.5505	36.89468
795.6978	40.2588
795.845	34.00382
795.9922	30.17804
796.1395	35.04039
796.2867	36.59296
796.4339	37.7225
796.5811	38.08317
796.7283	39.97218
796.8755	34.9487
797.0227	31.58332
797.1699	33.30352
797.317	33.52079
797.4642	34.47642
797.6113	35.48367
797.7584	38.68339
797.9056	36.15372
798.0527	37.03405
798.1998	36.42865
798.3469	32.72869
798.494	31.60845
798.641	39.96265
798.7881	38.52652
798.9351	38.63576
799.0822	39.46445
799.2292	33.33332
799.3762	40.00764
799.5232	37.92685
799.6702	36.19769
799.8172	31.1143
799.9642	33.8008
800.1111	35.34059
800.2581	39.16599
800.4051	35.85617
800.552	36.42308
800.6989	37.09951
800.8458	30.34647
800.9927	37.57614
801.1396	43.85297
801.2866	36.56176
801.4334	31.23778
801.5803	30.40128
801.7272	33.98331
801.874	30.97796
802.0209	35.548
802.1677	31.0785
802.3145	35.54409
802.4613	31.69954
802.6081	36.24941
802.7549	40.28891
802.9017	36.27609
803.0485	32.66741
803.1952	35.46379
803.342	38.7536
803.4887	37.64928
803.6354	34.28442
803.7822	35.40963
803.9289	34.15124
804.0756	34.86591
804.2223	32.6356
804.369	32.43695
804.5156	34.9066
804.6623	34.24107
804.8089	36.53888
804.9556	34.63719
805.1022	27.79938
805.2488	31.75774
805.3954	32.06223
805.542	28.09321
805.6886	30.62257
805.8352	28.5624
805.9818	28.94489
806.1283	37.29395
806.2749	32.33128
806.4214	28.95244
806.5679	29.3056
806.7145	30.89364
806.861	30.20127
807.0074	34.57843
807.154	35.46304
807.3004	30.81568
807.4469	30.82841
807.5934	30.81829
807.7398	30.9801
807.8862	33.43911
808.0327	29.63677
808.1791	27.24793
808.3255	29.69402
808.4719	35.97292
808.6183	34.18396
808.7647	31.67907
808.9111	29.68563
809.0574	28.50437
809.2037	24.55802
809.3501	26.34825
809.4965	30.79887
809.6428	32.12602
809.7891	36.12973
809.9354	29.96878
810.0817	26.95949
810.2279	31.38341
810.3742	32.46095
810.5204	32.60064
810.6667	25.74319
810.8129	28.97146
810.9592	32.85998
811.1054	28.34002
811.2516	30.27828
811.3978	28.20135
811.5439	31.88368
811.6901	29.85504
811.8363	29.63823
811.9825	32.13949
812.1286	28.91949
812.2748	28.37556
812.4209	29.13843
812.567	28.50509
812.7131	32.30398
812.8592	32.21175
813.0053	31.09251
813.1514	26.65325
813.2974	20.66248
813.4435	24.13648
813.5895	26.96377
813.7356	28.25805
813.8816	25.95665
814.0276	27.69384
814.1736	27.19627
814.3196	23.29667
814.4656	26.69946
814.6116	30.08742
814.7576	26.5997
814.9035	24.39137
815.0494	24.16339
815.1954	24.9061
815.3413	19.35013
815.4872	25.44062
815.6331	23.05731
815.779	24.12283
815.9249	23.21931
816.0707	23.28851
816.2166	26.00623
816.3625	20.30427
816.5083	22.00063
816.6542	22.62636
816.8	25.20947
816.9458	23.64613
817.0916	25.36155
817.2374	24.8659
817.3832	23.54911
817.5289	26.19523
817.6747	23.54508
817.8204	23.80879
817.9662	24.61338
818.1119	22.49273
818.2576	23.20776
818.4034	24.95766
818.5491	26.02867
818.6948	25.72708
818.8405	26.37177
818.9861	26.55198
819.1318	23.64682
819.2774	25.82817
819.423	22.36901
819.5687	26.46999
819.7143	27.00958
819.8599	23.096
820.0055	25.56199
820.1511	25.27388
820.2967	27.32613
820.4422	27.59439
820.5878	30.86495
820.7333	26.8455
820.8788	27.6177
821.0244	25.26449
821.1699	25.50652
821.3154	24.55589
821.4609	22.88011
821.6064	18.50683
821.7519	22.13342
821.8973	21.12283
822.0428	22.0373
822.1882	19.74337
822.3337	21.86951
822.4791	20.87624
822.6245	19.33571
822.7699	24.05808
822.9153	21.11237
823.0607	17.94194
823.2061	21.29172
823.3514	19.0088
823.4968	20.34889
823.6422	22.23191
823.7875	22.77095
823.9328	27.94969
824.0781	27.8424
824.2234	25.74504
824.3687	23.13062
824.514	23.14431
824.6592	22.89326
824.8045	25.54225
824.9498	26.73281
825.095	24.62012
825.2402	22.65447
825.3854	23.68216
825.5306	27.17386
825.6758	23.43526
825.821	23.24741
825.9662	26.17493
826.1114	22.83681
826.2565	16.48346
826.4017	22.96172
826.5468	23.96452
826.692	22.68822
826.837	21.42609
826.9822	25.9239
827.1273	20.51245
827.2723	18.71758
827.4174	20.71862
827.5625	19.88519
827.7075	19.40434
827.8526	20.74912
827.9976	23.36603
828.1426	24.95583
828.2877	23.45824
828.4327	24.72572
828.5776	18.39869
828.7227	19.15539
828.8676	18.9328
829.0126	24.21115
829.1575	23.99472
829.3024	24.05052
829.4474	23.20495
829.5923	21.98609
829.7372	22.16133
829.8821	25.37744
830.027	18.17755
830.1719	20.99988
830.3168	16.51568
830.4616	20.15051
830.6064	23.22849
830.7513	16.96829
830.8961	19.50208
831.041	20.32027
831.1857	18.05481
831.3306	23.23448
831.4753	17.55176
831.6201	20.71622
831.7649	16.45307
831.9096	21.43303
832.0544	21.08277
832.1991	21.17338
832.3438	21.25488
832.4885	21.50467
832.6332	21.09324
832.778	22.23436
832.9226	20.24078
833.0673	22.96004
833.2119	25.2652
833.3566	24.0617
833.5012	22.27495
833.6459	26.40968
833.7905	22.20334
833.9351	19.09414
834.0797	23.25479
834.2243	21.5241
834.3688	25.95591
834.5134	26.4694
834.658	20.76129
834.8026	22.03077
834.9471	20.54072
835.0916	16.14201
835.2361	21.80882
835.3806	19.67095
835.5251	20.21144
835.6696	21.89949
835.8141	20.73972
835.9586	23.46471
836.103	25.41455
836.2474	21.79201
836.3918	17.17123
836.5363	23.45465
836.6807	23.1579
836.8251	24.83757
836.9695	28.0665
837.1138	20.12946
837.2582	23.95097
837.4026	24.60109
837.5469	23.81816
837.6913	23.31981
837.8356	19.8034
837.9799	21.80906
838.1242	23.61047
838.2686	24.85253
838.4128	22.02286
838.5571	18.45828
838.7014	21.54184
838.8456	21.26229
838.9899	21.02841
839.1341	24.00233
839.2783	23.48115
839.4225	20.94488
839.5667	21.30482
839.7109	21.30595
839.8551	25.476
839.9993	19.90634
840.1434	13.76607
840.2876	20.09096
840.4317	19.39406
840.5759	19.39768
840.72	19.72155
840.8641	19.28395
841.0082	22.19853
841.1523	25.60079
841.2963	23.21141
841.4404	15.90073
841.5845	16.98018
841.7285	19.79947
841.8726	19.89754
842.0165	17.4104
842.1606	16.6076
842.3046	18.58343
842.4485	18.50239
842.5925	19.59204
842.7365	23.11489
842.8805	23.73683
843.0244	19.90316
843.1684	19.87344
843.3123	17.45531
843.4562	19.70471
843.6002	16.39243
843.744	23.44191
843.8879	19.67041
844.0318	27.2616
844.1757	17.96253
844.3195	18.52048
844.4634	19.58382
844.6072	19.0772
844.751	17.07255
844.8948	15.68639
845.0386	18.63034
845.1824	22.33813
845.3262	24.12895
845.47	22.38292
845.6138	21.75726
845.7575	21.08307
845.9012	19.23344
846.045	19.97313
846.1887	18.58461
846.3324	18.34873
846.4761	21.38156
846.6198	22.36969
846.7635	22.34214
846.9071	20.07095
847.0508	15.53994
847.1944	19.17391
847.3381	18.74735
847.4817	20.5739
847.6253	17.34664
847.7689	20.19272
847.9125	20.04931
848.0561	15.87682
848.1996	14.16575
848.3432	17.43694
848.4868	19.22563
848.6303	19.77236
848.7738	18.58299
848.9174	18.72207
849.0609	15.93302
849.2043	17.30243
849.3478	21.59038
849.4913	17.38717
849.6348	18.07177
849.7782	19.46542
849.9217	16.59058
850.0651	16.02443
850.2086	12.56555
850.3519	17.83664
850.4954	15.57013
850.6387	20.64573
850.7821	22.3863
850.9255	22.13862
851.0688	17.70762
851.2122	17.78613
851.3555	19.0291
851.4988	18.38096
851.6422	17.03391
851.7855	17.04627
851.9288	21.72736
852.0721	21.32754
852.2153	22.64505
852.3586	19.551
852.5018	17.02747
852.6451	17.11265
852.7883	16.82335
852.9315	18.32785
853.0748	16.68614
853.218	19.96544
853.3611	18.1559
853.5043	17.79902
853.6475	11.29088
853.7906	19.39597
853.9338	15.19829
854.0769	16.62266
854.22	14.02221
854.3632	13.65155
854.5063	13.65806
854.6494	15.20384
854.7924	17.3746
854.9355	21.56164
855.0786	21.26704
855.2216	20.33134
855.3647	16.52645
855.5077	17.11975
855.6507	18.54468
855.7937	13.18903
855.9367	16.35777
856.0797	15.95072
856.2227	19.98527
856.3657	21.04408
856.5086	20.28171
856.6516	15.084
856.7945	19.75294
856.9374	21.08452
857.0803	16.2153
857.2232	16.29052
857.3661	19.43741
857.509	16.7098
857.6519	17.17511
857.7947	18.80962
857.9376	12.7277
858.0804	14.94526
858.2232	20.09462
858.366	20.69928
858.5089	18.78832
858.6516	17.51956
858.7944	16.09956
858.9372	16.85318
859.08	15.59002
859.2227	15.71773
859.3654	15.90878
859.5082	20.25206
859.6509	18.82143
859.7936	17.77941
859.9363	15.65732
860.079	15.46252
860.2217	17.11543
860.3643	13.53551
860.507	18.55249
860.6496	18.60306
860.7922	16.0316
860.9349	17.20997
861.0775	16.74758
861.2201	15.6578
861.3627	13.49442
861.5052	17.53033
861.6478	21.06364
861.7904	14.35642
861.9329	14.9855
862.0755	17.88621
862.218	18.24438
862.3605	14.30832
862.503	18.43643
862.6455	14.78039
862.788	20.59813
862.9305	19.73574
863.0729	18.05545
863.2154	14.54547
863.3578	14.13225
863.5002	17.70632
863.6426	18.71274
863.7851	20.49129
863.9275	16.68881
864.0698	13.40791
864.2122	16.09683
864.3546	17.42232
864.4969	14.50835
864.6393	13.74629
864.7816	13.34636
864.924	15.62342
865.0662	13.10802
865.2086	15.13398
865.3508	16.72121
865.4931	17.24693
865.6354	11.23443
865.7776	12.48135
865.9199	17.21124
866.0621	16.16808
866.2043	14.3594
866.3466	15.49715
866.4888	12.62811
866.6309	13.4761
866.7731	19.27992
866.9153	18.60276
867.0574	14.14312
867.1996	16.56992
867.3417	12.71507
867.4839	12.12245
867.626	13.8033
867.7681	14.75841
867.9102	15.29055
868.0522	17.43118
868.1943	16.14366
868.3364	10.08451
868.4785	13.81422
868.6205	14.10204
868.7625	16.61941
868.9045	17.31409
869.0465	14.66418
869.1885	12.34423
869.3305	18.43595
869.4725	16.97499
869.6144	17.63912
869.7564	16.27615
869.8983	14.09962
870.0403	11.15222
870.1822	17.8894
870.3241	21.36875
870.466	20.16687
870.6079	17.33321
870.7498	15.1409
870.8916	16.20205
871.0335	16.83934
871.1754	13.35721
871.3171	14.96871
871.459	11.43631
871.6008	14.273
871.7426	13.37453
871.8844	13.88607
872.0262	9.936651
872.1679	16.2418
872.3097	16.85885
872.4514	14.73405
872.5931	11.67031
872.7349	17.42398
872.8766	12.41346
873.0183	11.4073
873.16	15.43102
873.3017	16.59445
873.4434	13.46425
873.585	10.88066
873.7266	14.88214
873.8683	14.86093
874.0099	13.71456
874.1516	12.09842
874.2932	13.37256
874.4348	11.52116
874.5763	18.65063
874.7179	21.38748
874.8594	18.49142
875.001	16.97742
875.1425	16.22659
875.2841	11.18963
875.4256	16.33634
875.5671	14.88095
875.7086	17.16607
875.85	14.57487
875.9915	16.06603
876.133	12.64388
876.2744	13.03936
876.4159	14.16607
876.5573	13.15692
876.6987	11.4277
876.8401	12.59704
876.9815	13.99225
877.1229	15.46052
877.2643	12.66051
877.4056	10.35684
877.547	9.955173
877.6884	9.701512
877.8297	14.17178
877.971	15.00161
878.1123	12.41982
878.2536	15.98909
878.3949	15.88832
878.5362	17.13514
878.6774	15.01434
878.8187	14.36115
878.9599	13.16357
879.1011	13.73449
879.2424	15.96404
879.3836	14.75221
879.5248	15.36174
879.666	11.50569
879.8071	12.39957
879.9483	11.93346
880.0895	14.24071
880.2306	13.51892
880.3718	14.64153
880.5129	11.25078
880.654	12.57389
880.7951	15.20801
880.9362	10.4294
881.0773	8.260715
881.2183	9.871743
881.3594	14.00381
881.5004	15.67363
881.6414	16.27981
881.7825	9.150227
881.9235	14.47752
882.0645	13.33329
882.2054	12.79651
882.3464	12.50265
882.4874	13.43688
882.6284	8.421732
882.7693	13.13063
882.9103	15.11634
883.0512	13.45487
883.1921	13.12988
883.333	8.36229
883.4739	16.60813
883.6147	17.10314
883.7556	10.4928
883.8965	15.13572
884.0374	13.75822
884.1782	11.66725
884.319	11.95685
884.4598	10.78645
884.6006	13.31467
884.7414	12.2282
884.8822	12.33526
885.0229	13.04753
885.1637	11.89989
885.3044	17.28037
885.4452	12.81151
885.5859	13.07909
885.7266	12.26925
885.8673	14.19951
886.008	11.71504
886.1487	12.77667
886.2894	9.533801
886.43	9.915894
886.5707	15.86057
886.7113	16.34375
886.8519	13.63737
886.9926	10.43895
887.1331	14.27834
887.2737	8.868412
887.4143	13.55442
887.5549	9.254642
887.6954	9.396227
887.836	6.32092
887.9765	11.82278
888.1171	14.07048
888.2576	14.63066
888.3981	14.78485
888.5386	16.64044
888.679	11.45964
888.8195	8.451735
888.96	15.92339
889.1004	13.63408
889.2408	15.00295
889.3813	11.576
889.5217	13.49496
889.6621	13.06932
889.8025	13.96111
889.9429	14.17064
890.0833	15.04174
890.2236	13.90139
890.364	12.98765
890.5043	16.85685
890.6446	12.33781
890.7849	12.67085
890.9252	13.12044
891.0655	9.456549
891.2058	16.98052
891.3461	17.36237
891.4863	13.67873
891.6266	12.54342
891.7668	8.452986
891.907	14.83025
892.0472	13.26044
892.1874	9.644414
892.3276	11.10861
892.4678	13.51493
892.608	9.603761
892.7481	12.32845
892.8883	11.98146
893.0284	16.60154
893.1685	12.50281
893.3087	11.96675
893.4487	13.86224
893.5889	12.5631
893.7289	13.54668
893.869	10.0645
894.009	9.36567
894.1491	12.96157
894.2891	10.22522
894.4291	7.238654
894.5692	7.358479
894.7092	10.11632
894.8491	12.37116
894.9891	13.35035
895.1291	8.090594
895.269	10.64457
895.409	8.529578
895.549	6.404905
895.6888	7.827769
895.8288	11.39613
895.9687	11.98724
896.1086	8.547823
896.2484	7.317098
896.3883	8.859641
896.5281	10.74184
896.668	12.73526
896.8079	8.338253
896.9476	9.698003
897.0875	11.06149
897.2272	12.47457
897.3671	11.31708
897.5068	6.162037
897.6466	8.261357
897.7864	7.241675
897.9261	8.04911
898.0658	9.067409
898.2056	11.54886
898.3453	8.773347
898.4849	7.471575
898.6246	9.477699
898.7643	6.593882
898.904	8.353261
899.0436	8.544902
899.1833	10.02951
899.3229	3.787178
899.4625	4.683001
899.6021	6.69385
899.7417	9.03535
899.8813	7.066025
900.0209	7.684697
900.1605	9.92473
900.3	6.235376
900.4395	4.885877
900.579	9.166813
900.7186	5.56311
900.8581	6.402351
900.9976	5.277097
901.1371	9.292324
901.2766	9.264883
901.416	3.671028
901.5555	10.95792
901.6949	9.283122
901.8344	8.777943
901.9738	10.61337
902.1132	8.794473
902.2526	13.74452
902.3919	7.259212
902.5313	8.677017
902.6707	9.264743
