SPECTRUM DATA FILE
SpectrumCount:	1
PixelCount:	3648
UserName:	ToughBook User
SampleName:	
LightSource:	
Comments:	
DeviceName:	Qwave
DeviceManufacturer:	Broadcom
DeviceSerialNo:	11311

Name:	last spectrum
Date:	2024-05-02T15:02:37.8037833+02:00
ExposureTime:	0.02
TemporalAvg:	1
IntensityUnit:	normalizedCounts
CCDLoadLevel:	0.04930523
Temperature:	29.44586
DiagramColor:	200
ProcessingSteps:	335

Wavelength [nm]	Intensity1
334.421	5.890944
334.5891	9.771117
334.7573	11.5005
334.9254	10.31612
335.0935	14.3954
335.2616	12.64726
335.4297	10.20637
335.5978	13.18945
335.7659	9.091005
335.934	8.211028
336.1021	11.46558
336.2701	12.54292
336.4382	10.43225
336.6063	10.59593
336.7744	10.35524
336.9424	18.08533
337.1105	15.11444
337.2785	9.914155
337.4466	7.180952
337.6146	10.13813
337.7827	10.44441
337.9507	7.849788
338.1187	9.353564
338.2867	14.03938
338.4548	9.177701
338.6228	10.28961
338.7908	14.42649
338.9588	12.35852
339.1268	9.257657
339.2948	11.75251
339.4628	10.16405
339.6308	12.66884
339.7988	11.0431
339.9667	13.58671
340.1347	11.94065
340.3027	10.14662
340.4707	13.83126
340.6386	14.88287
340.8066	10.89623
340.9745	14.08608
341.1425	9.46845
341.3104	11.75512
341.4784	10.67584
341.6463	11.69138
341.8142	9.86961
341.9821	12.81581
342.1501	11.89248
342.318	15.30402
342.4859	16.31333
342.6538	12.06776
342.8217	16.75489
342.9896	13.76675
343.1575	15.2983
343.3254	12.86861
343.4933	14.08178
343.6612	14.88151
343.829	11.37325
343.9969	9.871717
344.1648	13.65453
344.3326	15.57271
344.5005	14.23183
344.6683	9.266958
344.8362	16.54431
345.004	13.69768
345.1719	14.14019
345.3397	18.07294
345.5075	16.39489
345.6754	12.97456
345.8432	12.5299
346.011	12.24803
346.1788	12.43302
346.3466	12.1335
346.5144	10.46117
346.6822	14.84185
346.85	13.55472
347.0178	11.38696
347.1856	13.97789
347.3534	9.238732
347.5211	11.3156
347.6889	12.23885
347.8567	11.84586
348.0244	10.84727
348.1922	12.97668
348.3599	14.98222
348.5277	16.3633
348.6954	9.607661
348.8632	13.40131
349.0309	13.38426
349.1986	9.946544
349.3663	11.01005
349.5341	10.95892
349.7018	10.27668
349.8695	9.483418
350.0372	12.25304
350.2049	15.03118
350.3726	13.67078
350.5403	12.5726
350.7079	11.63169
350.8756	12.27833
351.0433	13.17314
351.211	12.90706
351.3786	14.41188
351.5463	12.61732
351.714	13.93439
351.8816	13.59475
352.0493	14.90518
352.2169	13.45881
352.3846	15.66682
352.5522	13.7799
352.7198	18.08395
352.8875	12.36328
353.0551	18.85733
353.2227	16.78185
353.3903	14.60424
353.5579	14.1371
353.7255	13.44827
353.8931	15.98356
354.0607	15.30064
354.2283	11.77227
354.3958	14.89922
354.5634	19.14159
354.731	18.69891
354.8986	18.98668
355.0661	16.8779
355.2337	13.99987
355.4012	13.62436
355.5688	13.55694
355.7363	14.19588
355.9039	13.7295
356.0714	17.5336
356.239	16.47001
356.4065	17.36457
356.574	21.62239
356.7415	14.936
356.909	14.27391
357.0765	9.575729
357.244	13.99472
357.4115	12.96947
357.579	15.63766
357.7465	11.89812
357.914	13.49064
358.0815	15.56269
358.249	17.62429
358.4164	15.15292
358.5839	11.39297
358.7513	11.3701
358.9188	14.81322
359.0862	13.27481
359.2537	16.02018
359.4211	17.12259
359.5886	18.01945
359.756	20.21762
359.9234	18.07597
360.0909	15.5292
360.2583	12.33813
360.4257	17.94423
360.5931	18.53934
360.7605	19.47068
360.9279	16.44761
361.0953	17.6572
361.2627	18.26282
361.4301	19.48535
361.5974	17.5246
361.7648	14.42975
361.9322	9.914927
362.0995	15.90224
362.2669	14.63647
362.4343	21.0232
362.6016	20.02724
362.769	22.19279
362.9363	18.32503
363.1036	14.20418
363.271	15.38599
363.4383	16.74782
363.6056	16.50444
363.7729	20.55235
363.9402	16.40292
364.1075	16.68668
364.2748	19.34448
364.4421	21.00279
364.6094	15.98658
364.7767	18.35616
364.944	19.13892
365.1113	19.09348
365.2786	17.25311
365.4458	15.91602
365.6131	16.42915
365.7803	20.42666
365.9476	11.90941
366.1148	20.08935
366.2821	19.51106
366.4493	23.5953
366.6166	17.82941
366.7838	22.07766
366.951	23.24506
367.1182	23.02575
367.2855	17.32908
367.4527	24.77564
367.6199	23.4091
367.7871	22.77087
367.9543	22.03557
368.1215	19.94446
368.2886	18.25421
368.4558	25.00602
368.623	20.29553
368.7902	15.73431
368.9573	22.00244
369.1245	24.58648
369.2917	23.68505
369.4588	20.49047
369.6259	24.10509
369.7931	22.19133
369.9602	26.8015
370.1274	20.41426
370.2945	23.35497
370.4616	18.34333
370.6287	20.72943
370.7958	22.84254
370.963	24.6526
371.1301	20.78806
371.2971	25.14274
371.4643	26.15084
371.6313	26.07514
371.7984	22.6712
371.9655	20.73759
372.1326	21.37175
372.2997	19.26623
372.4667	15.9415
372.6338	24.26826
372.8008	22.57817
372.9679	26.03129
373.1349	22.90997
373.3019	20.31104
373.469	21.08734
373.636	20.99469
373.803	23.30549
373.9701	23.28512
374.1371	16.41524
374.3041	22.01564
374.4711	23.33242
374.6381	21.90081
374.8051	16.28698
374.9721	20.5757
375.1391	21.33339
375.3061	16.49094
375.473	18.25087
375.64	23.45251
375.8069	24.4613
375.9739	23.45226
376.1409	24.18153
376.3078	24.98779
376.4748	24.69462
376.6417	25.81478
376.8087	28.57054
376.9756	27.83599
377.1425	28.73775
377.3094	24.67635
377.4763	27.39477
377.6432	28.82346
377.8102	26.08663
377.9771	27.44533
378.144	26.87252
378.3109	28.62163
378.4777	28.97938
378.6446	26.82133
378.8115	26.63061
378.9784	19.12623
379.1452	22.14125
379.3121	20.93006
379.4789	23.89473
379.6458	23.02775
379.8127	24.75927
379.9795	23.98651
380.1463	27.21563
380.3131	21.02269
380.48	26.94362
380.6468	25.05161
380.8136	29.77765
380.9804	29.89487
381.1472	29.93798
381.314	25.1157
381.4808	26.06301
381.6476	25.50492
381.8144	26.9316
381.9812	24.04829
382.148	22.68539
382.3147	24.25535
382.4815	19.93193
382.6483	22.03041
382.815	21.76326
382.9818	23.42744
383.1485	16.78038
383.3153	16.54218
383.482	17.12544
383.6487	22.08683
383.8155	21.63342
383.9822	24.28531
384.1489	24.04884
384.3156	23.1502
384.4823	28.30756
384.649	29.39376
384.8157	28.8227
384.9824	26.69127
385.1491	26.94561
385.3158	28.34579
385.4825	27.51809
385.6491	26.16075
385.8158	26.91315
385.9825	24.19448
386.1491	29.32162
386.3157	35.50597
386.4824	35.5867
386.649	29.05556
386.8157	27.86388
386.9823	32.88071
387.1489	31.55003
387.3156	25.87421
387.4821	32.60341
387.6488	34.89368
387.8154	34.52628
387.982	31.90872
388.1486	34.01165
388.3152	33.46813
388.4818	27.89166
388.6483	26.45719
388.8149	29.66084
388.9815	25.64691
389.148	28.96609
389.3146	36.20002
389.4811	37.08558
389.6477	35.69888
389.8142	38.81754
389.9808	32.23065
390.1473	38.95851
390.3138	39.8819
390.4804	36.0599
390.6469	33.03545
390.8134	37.36066
390.9799	41.47173
391.1464	42.51191
391.3129	43.49039
391.4794	42.71445
391.6459	40.75747
391.8124	39.60903
391.9789	38.25683
392.1453	31.75162
392.3118	33.51018
392.4782	32.54824
392.6447	31.10395
392.8112	29.0325
392.9776	25.56214
393.144	22.65086
393.3105	19.26739
393.4769	17.59512
393.6433	20.7455
393.8098	23.72695
393.9762	29.44526
394.1426	31.66922
394.309	32.90316
394.4754	34.62188
394.6418	37.01323
394.8082	37.16553
394.9746	37.52437
395.141	38.3215
395.3073	37.32703
395.4737	39.6674
395.64	39.81219
395.8064	39.58596
395.9728	40.33739
396.1391	36.31184
396.3055	32.33168
396.4718	32.37695
396.6381	24.12946
396.8045	22.3194
396.9708	19.17519
397.1371	28.8303
397.3034	27.56364
397.4697	32.83091
397.636	37.92364
397.8023	47.35032
397.9686	45.98247
398.1349	43.80808
398.3012	48.34159
398.4675	49.14246
398.6337	49.72536
398.8	51.85238
398.9662	49.79237
399.1325	54.70422
399.2988	56.15304
399.465	52.17374
399.6313	52.96964
399.7975	53.70719
399.9637	54.40861
400.1299	51.94347
400.2961	53.10354
400.4624	58.81575
400.6286	49.46286
400.7948	53.17751
400.961	60.46694
401.1272	54.81682
401.2934	54.90182
401.4595	54.58044
401.6257	57.58101
401.7919	59.69333
401.9581	56.05396
402.1242	54.73759
402.2904	58.48507
402.4565	66.99282
402.6227	65.51337
402.7888	60.24471
402.955	57.22519
403.1211	56.80246
403.2872	49.17611
403.4533	51.2166
403.6194	54.22379
403.7856	59.856
403.9517	58.64277
404.1177	60.84613
404.2838	58.23904
404.4499	58.21233
404.616	54.67195
404.7821	55.46602
404.9482	58.70209
405.1142	57.58756
405.2803	59.11401
405.4464	59.49308
405.6124	55.91608
405.7784	56.97145
405.9445	55.95184
406.1105	53.48383
406.2766	53.85285
406.4426	58.98594
406.6086	53.19401
406.7746	60.6953
406.9406	61.44529
407.1066	59.33262
407.2726	58.41047
407.4386	57.86302
407.6046	59.68335
407.7706	58.13333
407.9366	54.9659
408.1025	66.31357
408.2685	68.91163
408.4344	66.89314
408.6004	68.34414
408.7664	67.17726
408.9323	70.3864
409.0983	69.10445
409.2642	75.0589
409.4301	73.32371
409.596	67.98607
409.762	64.57579
409.9279	58.76095
410.0938	53.57774
410.2597	58.11127
410.4256	65.39825
410.5915	65.56054
410.7574	74.1912
410.9232	72.63864
411.0891	69.66523
411.255	73.52875
411.4209	72.5591
411.5867	69.13444
411.7526	73.11945
411.9184	68.81595
412.0843	66.70869
412.2501	72.32396
412.4159	72.84455
412.5818	73.80888
412.7476	78.21971
412.9134	71.86932
413.0792	69.87904
413.245	67.43887
413.4108	66.30592
413.5766	70.79737
413.7424	76.00494
413.9082	79.99858
414.074	74.72063
414.2397	68.93034
414.4055	67.99786
414.5713	71.42674
414.737	77.9673
414.9028	71.8131
415.0685	68.86722
415.2343	79.84094
415.4	74.59805
415.5658	70.01335
415.7315	72.258
415.8972	74.47872
416.0629	79.13825
416.2286	80.14718
416.3943	85.92715
416.56	80.06016
416.7257	78.9296
416.8914	83.06984
417.0571	70.36386
417.2228	69.18304
417.3884	72.94781
417.5541	71.91151
417.7198	73.50369
417.8854	74.23067
418.0511	70.76574
418.2167	70.54169
418.3824	76.4864
418.548	77.93474
418.7136	72.24854
418.8792	76.85947
419.0449	71.25557
419.2105	82.00646
419.3761	86.29465
419.5417	81.3848
419.7073	73.46925
419.8729	73.09349
420.0385	76.58784
420.204	77.05192
420.3696	81.67897
420.5352	85.32175
420.7007	90.74324
420.8663	84.69344
421.0319	83.05023
421.1974	83.79073
421.3629	85.94225
421.5285	83.63528
421.694	84.72149
421.8595	87.96146
422.0251	90.37785
422.1906	84.52149
422.3561	80.66882
422.5216	72.56977
422.6871	71.37213
422.8526	80.19916
423.0181	87.61347
423.1835	91.03698
423.349	89.74755
423.5145	83.37111
423.68	79.64523
423.8454	78.29496
424.0109	85.20092
424.1763	86.88044
424.3418	86.71616
424.5072	90.24446
424.6726	90.43496
424.838	85.13741
425.0035	78.8203
425.1689	83.38467
425.3343	88.09582
425.4997	88.78587
425.6651	89.78528
425.8305	83.23615
425.9959	83.7891
426.1613	87.52222
426.3267	89.72058
426.492	98.0029
426.6574	93.85223
426.8228	86.34737
426.9881	84.51939
427.1534	78.17816
427.3188	83.45604
427.4841	82.45792
427.6495	84.47482
427.8148	88.43564
427.9801	95.08047
428.1454	90.22321
428.3107	90.69644
428.476	92.11947
428.6414	84.75803
428.8066	77.87142
428.9719	81.75734
429.1372	82.09613
429.3025	85.38912
429.4678	86.49103
429.633	87.4509
429.7983	79.87032
429.9636	68.46728
430.1288	66.75517
430.294	67.815
430.4593	65.30161
430.6245	67.00558
430.7897	62.49905
430.955	64.98958
431.1202	68.40824
431.2854	79.91112
431.4506	90.48248
431.6158	95.9247
431.781	103.8393
431.9462	109.3584
432.1114	103.1654
432.2766	88.94649
432.4417	83.17149
432.6069	78.60642
432.772	89.91077
432.9372	99.53365
433.1024	104.3431
433.2675	105.185
433.4326	102.5003
433.5977	97.81728
433.7629	89.38462
433.928	79.90087
434.0931	81.82738
434.2582	86.08805
434.4233	92.7213
434.5884	95.10117
434.7535	99.67076
434.9186	109.2452
435.0837	108.2874
435.2488	100.3684
435.4138	100.5221
435.5789	106.0823
435.744	106.3154
435.909	108.9186
436.0741	111.1497
436.2391	119.3805
436.4042	118.9912
436.5692	117.9455
436.7342	119.4975
436.8992	112.2417
437.0643	111.1667
437.2293	109.0027
437.3943	105.5256
437.5593	111.0458
437.7243	106.427
437.8893	110.2748
438.0542	112.1946
438.2192	99.80315
438.3842	92.21124
438.5491	90.04713
438.7141	101.6365
438.8791	111.2395
439.044	109.0368
439.209	110.6749
439.3739	112.7345
439.5388	114.3187
439.7037	114.4088
439.8687	121.0857
440.0336	116.4549
440.1985	108.7874
440.3634	108.625
440.5283	104.1428
440.6932	107.2101
440.8581	111.6917
441.0229	120.7892
441.1878	120.2289
441.3527	122.9601
441.5175	119.9089
441.6824	116.5268
441.8472	121.1658
442.0121	129.7781
442.1769	128.6444
442.3418	127.0107
442.5066	124.1111
442.6714	126.8153
442.8362	130.0751
443.001	128.0756
443.1659	125.0867
443.3307	119.4294
443.4955	127.3074
443.6602	125.525
443.825	123.9624
443.9898	126.875
444.1546	130.9691
444.3193	130.3882
444.4841	122.0241
444.6488	128.7402
444.8136	136.5692
444.9783	129.5261
445.1431	134.9879
445.3078	136.1152
445.4725	124.5223
445.6372	115.9466
445.802	116.8956
445.9667	123.1442
446.1314	125.6514
446.2961	131.786
446.4608	130.4483
446.6255	135.6356
446.7901	135.29
446.9548	132.8412
447.1195	138.1877
447.2841	138.7778
447.4488	138.8842
447.6134	141.38
447.7781	144.8763
447.9427	133.9429
448.1074	135.6249
448.272	133.1684
448.4366	138.6419
448.6012	141.2997
448.7658	152.0059
448.9305	143.5023
449.095	134.8899
449.2596	138.533
449.4242	138.787
449.5888	135.6824
449.7534	145.0979
449.9179	150.9683
450.0825	146.4609
450.2471	151.2204
450.4116	152.2158
450.5762	154.9331
450.7407	157.0897
450.9052	154.0548
451.0698	155.9562
451.2343	154.767
451.3988	148.0809
451.5633	148.9893
451.7278	149.2659
451.8923	147.8704
452.0568	154.9727
452.2213	149.1876
452.3858	141.1848
452.5503	145.9567
452.7148	138.918
452.8792	136.7009
453.0437	135.5528
453.2081	139.5482
453.3726	141.1482
453.537	136.5672
453.7015	144.0488
453.8659	150.2172
454.0303	155.044
454.1947	152.2693
454.3592	151.3956
454.5236	148.2929
454.688	143.3269
454.8524	149.238
455.0168	154.7375
455.1811	154.2026
455.3455	147.0425
455.5099	143.0122
455.6743	150.3053
455.8386	154.1327
456.003	154.2359
456.1673	154.8591
456.3317	157.3281
456.496	156.4823
456.6603	156.8115
456.8246	161.6742
456.989	160.7125
457.1533	161.9797
457.3176	160.4923
457.4819	158.1866
457.6462	154.9661
457.8105	153.3954
457.9748	157.5309
458.1391	160.2911
458.3033	155.018
458.4676	149.3736
458.6319	153.5304
458.7961	150.4866
458.9604	154.5311
459.1246	153.6041
459.2888	153.013
459.4531	154.7033
459.6173	150.2
459.7815	156.2444
459.9457	153.9877
460.11	158.8885
460.2741	154.8031
460.4384	156.372
460.6025	157.9234
460.7667	157.69
460.9309	163.713
461.0951	160.1295
461.2592	163.1745
461.4234	159.2378
461.5876	158.6808
461.7517	154.3611
461.9159	157.0435
462.08	161.6056
462.2441	162.9869
462.4082	158.6275
462.5724	167.7208
462.7365	162.9077
462.9006	156.0455
463.0647	159.9725
463.2288	165.8937
463.3929	162.0656
463.557	158.8971
463.721	159.1737
463.8851	160.0499
464.0492	160.0573
464.2132	156.4065
464.3773	160.5188
464.5414	160.1174
464.7054	156.8158
464.8694	155.3545
465.0334	158.3035
465.1975	159.3029
465.3615	158.6095
465.5255	160.1219
465.6895	158.7477
465.8535	161.1084
466.0175	172.3228
466.1815	175.9821
466.3455	169.3321
466.5095	164.9434
466.6734	155.7082
466.8374	153.4039
467.0014	157.1913
467.1653	158.1346
467.3293	163.1035
467.4932	163.5194
467.6571	169.6919
467.8211	164.5643
467.985	166.2185
468.1489	170.2411
468.3128	167.0475
468.4767	167.4392
468.6406	171.7801
468.8045	170.9799
468.9684	176.0134
469.1323	162.7282
469.2962	171.6373
469.46	174.3623
469.6239	175.1374
469.7878	173.8232
469.9516	170.1566
470.1154	165.179
470.2793	163.3207
470.4431	160.2254
470.607	165.249
470.7708	163.0636
470.9346	161.8038
471.0984	170.6764
471.2622	170.8866
471.426	165.7563
471.5898	172.1892
471.7536	174.951
471.9174	183.0469
472.0811	188.8017
472.2449	180.6222
472.4087	179.48
472.5724	179.9721
472.7362	170.8494
472.8999	168.5208
473.0637	161.2813
473.2274	173.1018
473.3911	174.319
473.5548	166.663
473.7185	172.6477
473.8822	170.731
474.0459	174.1516
474.2096	177.4232
474.3733	181.0721
474.537	179.8095
474.7007	175.1678
474.8643	179.3318
475.028	169.6253
475.1917	171.7506
475.3553	171.5242
475.519	170.9268
475.6826	173.3474
475.8463	171.0462
476.0099	170.7542
476.1735	167.5362
476.3371	165.4964
476.5007	167.2335
476.6643	170.0983
476.8279	175.164
476.9915	172.8973
477.1551	173.4135
477.3187	175.5009
477.4823	180.8208
477.6458	178.9887
477.8094	181.0983
477.9729	183.1916
478.1365	177.9819
478.3	182.9641
478.4636	176.1797
478.6271	168.0828
478.7906	169.7739
478.9541	168.2011
479.1176	173.705
479.2812	179.8834
479.4447	181.9897
479.6082	190.0322
479.7716	189.3062
479.9351	179.1191
480.0986	168.6141
480.2621	177.736
480.4255	183.8315
480.589	184.417
480.7524	174.4876
480.9159	175.3719
481.0793	172.3092
481.2428	177.8463
481.4062	179.3386
481.5696	179.3184
481.733	184.771
481.8964	186.1982
482.0598	181.8378
482.2232	181.0734
482.3866	180.3523
482.55	180.2063
482.7134	188.4061
482.8768	182.5516
483.0401	183.1255
483.2035	180.4823
483.3668	178.0528
483.5302	181.1496
483.6935	181.6889
483.8568	182.783
484.0202	181.241
484.1835	181.8583
484.3468	180.9667
484.5101	178.5635
484.6734	179.9302
484.8367	179.5565
485	180.8993
485.1633	181.2507
485.3266	181.6226
485.4899	174.0105
485.6531	169.1213
485.8164	161.7104
485.9796	149.8815
486.1429	144.475
486.3061	134.0865
486.4694	142.8782
486.6326	158.3966
486.7958	170.4947
486.959	171.7088
487.1223	168.2486
487.2855	164.6031
487.4486	172.1637
487.6118	177.8569
487.775	175.877
487.9382	183.3702
488.1014	184.8446
488.2646	183.0534
488.4277	184.5114
488.5909	183.7111
488.754	182.9185
488.9171	179.7463
489.0803	170.8305
489.2434	171.8035
489.4066	177.1203
489.5697	191.0694
489.7328	196.1793
489.8959	192.8813
490.059	193.1194
490.2221	189.0785
490.3852	192.8886
490.5482	185.6488
490.7113	186.4918
490.8744	183.1133
491.0374	183.8251
491.2005	180.0597
491.3636	179.6266
491.5266	183.5452
491.6896	188.6147
491.8527	170.6101
492.0157	165.7742
492.1787	164.4534
492.3417	165.9473
492.5047	176.0486
492.6677	186.6172
492.8307	197.5457
492.9937	192.566
493.1567	185.6778
493.3196	182.9751
493.4826	189.0569
493.6456	186.8135
493.8085	181.5725
493.9715	181.1542
494.1344	181.2603
494.2974	188.7363
494.4603	194.9083
494.6232	189.586
494.7861	188.5114
494.949	191.8611
495.1119	202.9442
495.2748	202.8937
495.4377	194.9317
495.6006	190.4496
495.7635	182.5389
495.9264	183.6408
496.0892	184.4322
496.2521	195.9699
496.4149	199.8921
496.5778	190.8195
496.7407	188.2862
496.9035	192.2392
497.0663	191.7462
497.2291	194.9959
497.3919	197.1944
497.5547	197.7612
497.7176	191.4134
497.8804	191.9411
498.0432	179.95
498.2059	177.0082
498.3687	186.3011
498.5315	184.6478
498.6942	189.9328
498.857	190.7413
499.0198	192.0351
499.1825	187.9772
499.3452	197.3662
499.508	196.8793
499.6707	194.6884
499.8334	194.923
499.9962	197.7157
500.1589	190.0434
500.3216	184.699
500.4843	184.3672
500.6469	181.6378
500.8096	188.3936
500.9723	189.1658
501.135	188.5771
501.2976	183.3657
501.4603	185.1329
501.623	186.7722
501.7856	180.1125
501.9482	182.5567
502.1109	195.7837
502.2735	195.806
502.4361	199.5348
502.5987	194.6144
502.7614	194.2725
502.924	194.1467
503.0865	199.6623
503.2491	197.1315
503.4117	198.6974
503.5743	194.6283
503.7368	187.9411
503.8994	189.5669
504.062	183.6911
504.2245	182.0892
504.3871	189.8973
504.5496	204.4077
504.7121	203.9743
504.8746	200.8063
505.0372	204.4953
505.1997	198.7981
505.3622	203.4883
505.5247	206.8373
505.6872	210.344
505.8497	204.4177
506.0121	206.0386
506.1746	208.1593
506.3371	207.4817
506.4995	204.8119
506.662	196.7558
506.8244	192.7192
506.9869	206.0427
507.1493	206.6223
507.3117	207.8586
507.4742	201.9046
507.6366	192.2965
507.799	192.1165
507.9614	196.9583
508.1238	188.6944
508.2862	194.2564
508.4485	195.6628
508.6109	197.1494
508.7733	198.1559
508.9357	204.654
509.098	210.3112
509.2604	215.0704
509.4227	216.1987
509.5851	211.9218
509.7474	201.3807
509.9097	194.9046
510.072	200.3522
510.2343	198.6607
510.3966	205.5571
510.5589	203.6133
510.7212	202.6651
510.8835	205.0555
511.0458	201.2365
511.2081	195.9619
511.3703	203.6039
511.5326	211.0598
511.6949	213.2774
511.8571	217.0354
512.0193	206.1338
512.1816	201.7103
512.3438	201.9971
512.506	201.9159
512.6682	192.6626
512.8304	199.1254
512.9926	204.0731
513.1548	197.6151
513.317	195.4755
513.4792	202.7379
513.6414	203.1927
513.8035	191.788
513.9657	186.9808
514.1279	188.1843
514.29	195.4306
514.4521	192.6845
514.6143	190.0405
514.7764	187.3381
514.9385	196.8512
515.1006	199.7795
515.2628	194.8261
515.4249	195.8477
515.587	198.8988
515.7491	197.7012
515.9111	198.8564
516.0732	200.2017
516.2353	199.3757
516.3973	193.688
516.5594	180.0676
516.7214	167.0662
516.8835	156.826
517.0455	164.1969
517.2076	164.3506
517.3696	165.6712
517.5316	172.9383
517.6937	188.4756
517.8557	200.0098
518.0176	199.3137
518.1796	192.9007
518.3416	172.9231
518.5036	170.1695
518.6656	184.615
518.8275	190.1951
518.9895	205.7417
519.1514	199.8711
519.3134	188.7603
519.4753	191.8052
519.6373	195.8774
519.7992	195.2297
519.9611	203.3425
520.123	205.249
520.2849	198.8835
520.4468	196.3757
520.6087	194.5361
520.7706	190.5007
520.9325	198.2239
521.0944	194.921
521.2562	203.9777
521.4181	205.8839
521.58	203.8321
521.7418	206.3559
521.9036	202.3893
522.0655	206.5874
522.2273	205.535
522.3891	196.9854
522.551	197.5533
522.7128	196.9664
522.8746	194.088
523.0363	192.3404
523.1981	193.8725
523.3599	201.9028
523.5217	201.8807
523.6835	204.4639
523.8452	206.224
524.007	215.9468
524.1687	214.4676
524.3304	210.3787
524.4922	213.1166
524.6539	215.8162
524.8157	216.4192
524.9774	211.5427
525.1391	209.9151
525.3008	206.4147
525.4625	203.6113
525.6241	212.2074
525.7858	217.8415
525.9475	215.7124
526.1092	204.8799
526.2709	200.9877
526.4325	194.6497
526.5942	189.6052
526.7558	188.9863
526.9174	182.8601
527.079	185.9343
527.2407	193.1598
527.4023	199.82
527.5639	207.919
527.7255	209.8236
527.8871	208.0687
528.0487	209.2641
528.2103	211.898
528.3718	208.2398
528.5334	212.4453
528.695	216.2608
528.8565	223.8226
529.0181	231.0191
529.1796	227.4578
529.3412	226.1749
529.5027	222.7779
529.6642	216.6452
529.8257	216.1931
529.9872	204.547
530.1487	210.6884
530.3102	212.3846
530.4717	221.2556
530.6332	220.5078
530.7947	221.4772
530.9562	225.3619
531.1176	224.016
531.2791	225.1457
531.4405	230.7277
531.6019	221.4675
531.7634	219.3034
531.9248	216.2315
532.0862	218.3501
532.2477	216.1045
532.4091	209.3812
532.5704	209.657
532.7319	196.9146
532.8932	195.364
533.0546	194.7878
533.216	206.0369
533.3774	212.7647
533.5388	225.8335
533.7001	218.9284
533.8615	213.6077
534.0228	210.5303
534.1841	207.065
534.3455	213.1506
534.5068	212.1778
534.6681	207.4969
534.8293	206.0837
534.9907	213.593
535.152	216.6663
535.3132	216.2886
535.4745	211.5637
535.6358	220.1415
535.7971	227.6859
535.9583	226.9671
536.1196	219.2506
536.2808	208.5613
536.4421	209.0281
536.6033	210.0937
536.7645	210.5125
536.9258	198.2073
537.087	198.556
537.2482	203.3246
537.4094	205.2133
537.5706	208.77
537.7318	211.2138
537.8929	211.4738
538.0541	211.6761
538.2153	212.8506
538.3764	206.8432
538.5376	210.1062
538.6987	212.8408
538.8599	210.6767
539.021	201.7456
539.1821	207.8035
539.3432	210.4246
539.5043	207.3933
539.6655	206.9809
539.8265	208.4402
539.9876	202.0131
540.1487	201.8458
540.3098	199.9268
540.4708	195.1035
540.6319	192.7932
540.793	201.464
540.954	199.9634
541.1151	201.6389
541.2761	201.2778
541.4371	201.7557
541.5981	211.8293
541.7592	209.6754
541.9202	206.6377
542.0812	206.976
542.2422	201.9682
542.4031	206.5827
542.5641	203.7292
542.7251	208.0197
542.886	202.7258
543.0471	201.918
543.208	200.9133
543.369	202.6002
543.5298	204.0486
543.6908	204.9482
543.8517	211.0256
544.0126	211.9279
544.1736	213.9958
544.3345	211.7768
544.4954	205.3691
544.6563	203.5945
544.8171	200.1393
544.978	211.3451
545.1389	214.9976
545.2997	213.8323
545.4606	208.1062
545.6215	207.8567
545.7823	206.9216
545.9432	207.6605
546.104	211.3474
546.2648	210.4722
546.4256	209.3504
546.5864	206.4123
546.7473	206.4495
546.908	212.1406
547.0688	210.754
547.2296	203.7659
547.3904	207.2866
547.5511	202.594
547.7119	194.9
547.8727	203.4221
548.0334	206.3524
548.1942	209.3271
548.3549	207.2086
548.5156	211.989
548.6763	211.0613
548.837	205.7461
548.9977	207.2735
549.1584	208.657
549.3192	211.4704
549.4798	213.1432
549.6405	213.497
549.8011	211.6801
549.9619	208.5719
550.1225	206.8307
550.2831	208.0496
550.4438	211.4179
550.6044	210.3708
550.765	212.6854
550.9257	209.8052
551.0863	210.8674
551.2469	208.3395
551.4075	205.7703
551.5681	208.5138
551.7287	208.8235
551.8893	217.6666
552.0498	217.513
552.2104	213.2396
552.371	217.6714
552.5315	210.7439
552.6921	206.5953
552.8526	207.9371
553.0131	211.9067
553.1736	212.1828
553.3342	214.4901
553.4947	211.3076
553.6552	215.3761
553.8157	212.6344
553.9762	212.6383
554.1367	216.0721
554.2971	217.3943
554.4576	207.9943
554.618	210.6687
554.7785	216.7354
554.939	207.8103
555.0994	213.6538
555.2598	215.5301
555.4203	210.3495
555.5807	209.1133
555.7411	211.5588
555.9015	212.4601
556.0619	214.1934
556.2223	208.6378
556.3827	200.3725
556.5431	200.9722
556.7034	201.3646
556.8638	204.2602
557.0242	200.3374
557.1845	195.1754
557.3448	202.0851
557.5052	196.4522
557.6655	195.239
557.8259	206.8172
557.9861	204.5208
558.1465	204.4121
558.3068	202.836
558.467	202.9776
558.6274	190.9324
558.7877	187.8865
558.9479	190.4181
559.1082	197.9484
559.2684	209.2126
559.4287	199.4668
559.5889	199.2929
559.7491	192.9861
559.9094	193.5524
560.0696	201.4706
560.2299	194.7001
560.3901	197.266
560.5502	198.6814
560.7104	204.972
560.8707	203.9462
561.0308	200.3203
561.191	211.1309
561.3511	206.7792
561.5114	194.0698
561.6714	192.6968
561.8316	198.1737
561.9918	205.931
562.1519	206.7096
562.312	199.0486
562.4722	195.4868
562.6323	200.3997
562.7924	207.9851
562.9525	205.0166
563.1125	202.589
563.2726	199.1039
563.4327	202.6565
563.5928	203.2519
563.7528	201.0002
563.9129	197.8324
564.0729	199.0475
564.233	198.6797
564.393	194.6732
564.553	197.5476
564.7131	196.1268
564.873	196.2231
565.0331	200.6373
565.1931	192.6475
565.353	193.9752
565.5131	195.7544
565.673	192.2068
565.833	186.3636
565.9929	186.6091
566.1529	192.1172
566.3129	186.6922
566.4728	191.6458
566.6328	198.6974
566.7927	196.3447
566.9526	205.7058
567.1125	202.4351
567.2724	205.1658
567.4323	203.7596
567.5922	194.3534
567.7521	200.2135
567.9119	191.0319
568.0718	191.8014
568.2317	188.4007
568.3915	190.041
568.5514	192.1687
568.7112	186.8035
568.871	189.6853
569.0309	196.98
569.1907	192.7578
569.3505	196.1992
569.5103	191.0833
569.6701	195.3841
569.8299	189.9622
569.9897	191.3177
570.1495	192.4137
570.3092	189.8471
570.469	190.6861
570.6287	188.0558
570.7885	184.1368
570.9482	189.3458
571.108	180.7504
571.2677	183.3889
571.4274	191.6613
571.5871	194.6476
571.7468	195.501
571.9066	191.4053
572.0662	190.8884
572.2259	199.2427
572.3856	201.1831
572.5452	193.1413
572.7049	198.904
572.8646	201.3018
573.0242	192.9331
573.1838	193.6829
573.3435	190.4788
573.5031	192.6321
573.6627	197.7119
573.8223	203.4464
573.9819	199.6097
574.1415	197.2676
574.3011	199.9212
574.4607	195.3251
574.6203	200.2723
574.7798	196.9162
574.9394	191.2627
575.099	196.1869
575.2585	192.5516
575.418	194.7792
575.5776	191.3106
575.7371	185.5522
575.8966	187.568
576.0562	181.5896
576.2156	189.2949
576.3751	192.6005
576.5346	197.1198
576.6941	191.1861
576.8536	190.6565
577.0131	192.7243
577.1725	198.2218
577.332	190.4696
577.4914	188.5698
577.6508	193.2816
577.8103	193.3723
577.9697	191.7656
578.1291	185.1799
578.2885	188.1465
578.4479	181.8372
578.6073	183.3718
578.7667	183.1863
578.9261	186.1138
579.0854	184.4762
579.2448	186.892
579.4042	175.7719
579.5635	180.7977
579.7229	190.7412
579.8822	193.0371
580.0416	191.6541
580.2009	186.9069
580.3602	193.8313
580.5195	193.0846
580.6788	185.2802
580.8381	196.0888
580.9974	193.9835
581.1566	179.7619
581.3159	181.1073
581.4752	183.6517
581.6345	182.3208
581.7937	190.5255
581.9529	187.0966
582.1122	187.486
582.2714	189.0736
582.4306	189.7719
582.5898	189.4786
582.749	183.881
582.9082	191.3921
583.0674	191.4106
583.2266	189.2449
583.3857	181.8186
583.5449	177.9277
583.7041	176.9865
583.8633	180.3454
584.0224	182.6588
584.1815	188.2484
584.3407	183.8035
584.4998	184.6143
584.6589	183.3333
584.818	184.6529
584.9771	185.246
585.1362	186.2397
585.2953	182.93
585.4544	178.7649
585.6135	177.4379
585.7725	174.4286
585.9316	172.963
586.0906	173.3306
586.2497	176.2923
586.4087	176.1042
586.5677	175.1876
586.7267	176.2327
586.8858	175.9624
587.0448	182.7908
587.2038	176.9481
587.3628	177.2815
587.5218	180.9141
587.6807	174.604
587.8397	177.1349
587.9987	173.2769
588.1577	177.498
588.3166	167.6403
588.4755	164.9119
588.6345	169.0444
588.7934	162.5252
588.9523	156.415
589.1112	158.5358
589.2701	157.0951
589.429	160.961
589.5879	159.7997
589.7468	158.983
589.9056	160.1224
590.0645	162.6214
590.2234	168.9822
590.3822	168.1897
590.5411	164.6091
590.6999	170.9187
590.8588	171.8727
591.0176	167.3604
591.1764	169.1725
591.3352	168.3654
591.494	167.681
591.6528	163.3017
591.8116	167.1141
591.9703	164.2045
592.1291	165.8347
592.2878	166.4426
592.4467	170.3739
592.6053	171.0841
592.7641	166.4612
592.9229	166.8506
593.0816	169.7559
593.2403	167.2471
593.399	168.0952
593.5577	169.7637
593.7164	172.3672
593.8751	171.0753
594.0338	167.5255
594.1924	165.9871
594.3511	171.8254
594.5098	167.8421
594.6684	167.7434
594.8271	165.9823
594.9857	166.1093
595.1443	170.4647
595.303	167.1698
595.4615	172.208
595.6202	175.7746
595.7787	172.4425
595.9374	170.2394
596.0959	168.6884
596.2545	166.304
596.4131	167.1706
596.5717	167.0551
596.7302	169.571
596.8887	166.7408
597.0473	170.2654
597.2058	173.0899
597.3644	167.0042
597.5229	168.8769
597.6814	164.1119
597.8399	168.508
597.9984	165.264
598.1569	169.1585
598.3154	171.1518
598.4738	171.5603
598.6323	169.6462
598.7908	168.4387
598.9492	167.6633
599.1076	169.2962
599.2661	166.1329
599.4245	168.7101
599.5829	174.1402
599.7413	171.218
599.8997	172.9198
600.0581	175.9147
600.2165	172.5347
600.3749	174.2321
600.5333	166.8206
600.6917	164.0626
600.85	166.4835
601.0084	169.5025
601.1667	163.6556
601.325	169.1709
601.4833	173.8281
601.6417	166.2177
601.8	158.1534
601.9583	156.6238
602.1166	164.9737
602.2749	169.2429
602.4332	158.7844
602.5914	165.6511
602.7498	169.1915
602.908	169.6869
603.0662	166.9298
603.2245	161.1824
603.3828	167.3475
603.541	171.0217
603.6992	166.3285
603.8574	166.5576
604.0156	168.9431
604.1738	169.5016
604.332	169.4076
604.4902	164.8357
604.6484	166.5592
604.8065	166.865
604.9647	167.5606
605.1229	168.2386
605.281	165.4821
605.4391	163.2969
605.5973	160.3961
605.7554	158.8501
605.9135	163.7989
606.0717	164.2453
606.2297	169.5708
606.3878	166.7476
606.5459	166.9137
606.704	164.3252
606.8621	166.6404
607.0201	167.3237
607.1782	168.0072
607.3362	166.67
607.4943	167.9844
607.6523	166.504
607.8104	174.0422
607.9684	168.6148
608.1264	161.9735
608.2844	164.344
608.4424	159.5241
608.6003	158.7285
608.7584	158.5841
608.9163	162.0995
609.0743	156.7386
609.2322	157.0906
609.3902	159.7475
609.5482	160.0742
609.7061	161.8882
609.864	163.0646
610.0219	163.2409
610.1798	153.7321
610.3377	149.563
610.4956	165.2123
610.6535	159.3134
610.8114	163.1031
610.9693	159.1987
611.1271	159.0646
611.285	159.6912
611.4429	163.3282
611.6007	161.3882
611.7585	154.5442
611.9164	160.0121
612.0742	154.9754
612.232	152.6333
612.3898	155.6428
612.5476	158.8844
612.7054	159.4337
612.8632	155.7868
613.0209	154.2848
613.1787	159.4288
613.3365	158.0413
613.4942	162.4927
613.652	156.3813
613.8097	156.1244
613.9674	147.6062
614.1252	155.3255
614.2829	155.714
614.4406	159.1279
614.5983	159.0607
614.756	156.1012
614.9136	155.7723
615.0714	155.3416
615.229	158.0352
615.3867	152.758
615.5443	151.2844
615.702	151.4889
615.8596	150.4462
616.0172	149.8372
616.1748	149.8883
616.3325	141.0737
616.4901	144.9986
616.6476	154.1588
616.8052	150.4491
616.9628	146.5129
617.1204	144.4808
617.278	147.7826
617.4355	148.0345
617.5931	153.0308
617.7506	149.6341
617.9081	145.0259
618.0657	145.9425
618.2232	155.5952
618.3807	148.7913
618.5382	146.4022
618.6957	146.9895
618.8532	147.4964
619.0107	147.6318
619.1682	144.1094
619.3256	146.4097
619.4831	155.3675
619.6406	155.3826
619.798	154.747
619.9554	157.4174
620.1129	165.0726
620.2703	156.2242
620.4277	154.1183
620.5851	154.8858
620.7425	147.9789
620.8998	146.7292
621.0573	153.7354
621.2146	152.104
621.372	147.3706
621.5294	140.1322
621.6867	149.1465
621.8441	144.5905
622.0013	142.4838
622.1587	144.7558
622.316	150.9491
622.4733	151.0817
622.6306	150.2098
622.7879	144.7551
622.9452	143.4399
623.1025	143.3788
623.2598	151.2328
623.4171	147.878
623.5743	151.528
623.7316	149.2254
623.8888	140.5625
624.046	147.1524
624.2032	152.8165
624.3605	146.3792
624.5176	142.2941
624.6749	144.8353
624.8321	147.0956
624.9893	148.5406
625.1464	145.1485
625.3036	141.6307
625.4608	143.0323
625.6179	141.6289
625.7751	138.6037
625.9322	141.8474
626.0894	146.3513
626.2465	145.0955
626.4036	141.2727
626.5607	140.2699
626.7178	141.3031
626.8749	140.6785
627.032	142.6859
627.189	142.943
627.3461	146.804
627.5032	139.118
627.6602	139.8382
627.8173	142.6669
627.9743	133.359
628.1313	133.9469
628.2884	141.6243
628.4454	139.9877
628.6024	139.8009
628.7594	141.8937
628.9164	143.9688
629.0734	139.7992
629.2303	140.9828
629.3873	140.724
629.5443	141.7912
629.7012	135.7614
629.8582	140.7047
630.0151	134.7695
630.172	138.0506
630.3289	136.9475
630.4858	141.6087
630.6428	143.2957
630.7996	141.106
630.9565	140.45
631.1134	145.0633
631.2703	140.3168
631.4272	135.8999
631.584	142.0961
631.7408	140.422
631.8977	137.2021
632.0546	140.1182
632.2114	139.4912
632.3682	141.5139
632.525	149.2423
632.6818	145.6732
632.8386	139.8081
632.9954	140.7797
633.1522	138.5203
633.3089	134.8668
633.4657	136.5697
633.6224	139.1511
633.7792	138.5131
633.9359	140.258
634.0927	138.9128
634.2494	136.2795
634.4061	141.1631
634.5628	137.1949
634.7195	140.1331
634.8762	135.0405
635.0329	133.4845
635.1895	136.7236
635.3462	136.9468
635.5029	134.6872
635.6595	137.4263
635.8162	143.5611
635.9728	145.3276
636.1295	136.8424
636.2861	134.779
636.4427	134.0662
636.5992	141.2586
636.7559	139.656
636.9124	134.7848
637.069	140.384
637.2256	135.1574
637.3821	139.6019
637.5387	142.6441
637.6953	139.0003
637.8518	144.772
638.0084	143.6045
638.1649	134.1472
638.3214	139.7457
638.4779	135.5975
638.6344	133.3525
638.7909	138.1017
638.9474	138.8199
639.1038	135.7019
639.2603	135.5527
639.4167	140.3245
639.5732	134.4209
639.7297	133.9914
639.8861	132.3729
640.0425	136.6749
640.199	133.8073
640.3553	131.3416
640.5118	131.8051
640.6682	129.0774
640.8245	130.0667
640.981	134.0699
641.1373	135.6834
641.2936	128.5135
641.45	134.0437
641.6064	135.6464
641.7627	129.056
641.9191	131.9027
642.0754	129.4561
642.2317	125.8623
642.388	123.4807
642.5443	130.8078
642.7006	137.9023
642.8569	135.9695
643.0131	131.9223
643.1694	130.2179
643.3257	128.4113
643.4819	133.4016
643.6382	138.9646
643.7944	132.7164
643.9506	135.1935
644.1069	131.8514
644.2631	130.4209
644.4193	130.5487
644.5754	128.3247
644.7316	127.5806
644.8878	123.4434
645.044	127.5134
645.2002	131.582
645.3563	129.8256
645.5125	131.7792
645.6686	129.5084
645.8248	130.0429
645.9809	124.7509
646.137	124.5821
646.2931	121.4215
646.4492	119.2652
646.6053	120.4443
646.7614	120.6758
646.9174	122.857
647.0735	126.4075
647.2296	123.2089
647.3856	122.3857
647.5417	123.2324
647.6977	123.0731
647.8537	122.1391
648.0098	124.3101
648.1658	121.5827
648.3218	118.2056
648.4777	121.1909
648.6337	121.4826
648.7897	127.1731
648.9457	124.5306
649.1016	126.8364
649.2576	118.6859
649.4135	117.5593
649.5695	117.1103
649.7254	115.4942
649.8813	121.7551
650.0372	122.8013
650.1932	126.8106
650.3491	125.0804
650.5049	120.2588
650.6608	120.7371
650.8167	122.4295
650.9725	130.3942
651.1284	133.7937
651.2842	122.5392
651.4401	121.9839
651.5959	118.9627
651.7518	114.0411
651.9076	116.6775
652.0634	122.6714
652.2192	123.8573
652.3749	122.5233
652.5308	120.4693
652.6865	119.3916
652.8423	119.6946
652.998	121.1405
653.1538	118.2897
653.3096	118.1677
653.4653	117.3367
653.621	122.2006
653.7767	121.5114
653.9324	117.4082
654.0881	123.9107
654.2438	122.0227
654.3995	122.2324
654.5552	118.4227
654.7109	117.0608
654.8665	118.7972
655.0222	121.3822
655.1778	122.7269
655.3334	117.6447
655.4891	109.4454
655.6447	106.4921
655.8003	109.0281
655.9559	109.7663
656.1115	102.4673
656.2671	95.10297
656.4227	98.48814
656.5782	97.10807
656.7338	105.2381
656.8893	112.2667
657.0449	109.6071
657.2004	107.5741
657.356	112.2938
657.5115	119.1137
657.667	112.2014
657.8225	114.4711
657.978	119.8284
658.1335	116.4241
658.289	115.3583
658.4445	119.9897
658.5999	118.9701
658.7554	118.4949
658.9108	116.9744
659.0663	119.6989
659.2217	119.2521
659.3771	117.3228
659.5325	110.0484
659.6879	114.4703
659.8433	116.0267
659.9987	116.0357
660.1541	121.9444
660.3095	122.0029
660.4648	112.888
660.6202	118.4885
660.7756	110.49
660.9309	120.8763
661.0862	122.3408
661.2416	121.9515
661.3969	116.7327
661.5522	118.2258
661.7075	116.9913
661.8628	117.2224
662.0181	118.5512
662.1733	126.4256
662.3286	125.5592
662.4839	119.3288
662.6391	120.8539
662.7944	117.4967
662.9496	119.8443
663.1048	117.9231
663.26	112.1362
663.4152	112.8123
663.5704	115.1735
663.7256	117.3203
663.8808	121.2739
664.036	119.8675
664.1912	115.2778
664.3463	117.7678
664.5015	115.9403
664.6566	112.5343
664.8118	120.2451
664.9669	115.5711
665.122	120.4391
665.2771	113.7895
665.4322	116.3312
665.5873	120.6914
665.7424	110.4484
665.8975	109.6498
666.0526	115.4218
666.2076	112.9863
666.3627	111.9226
666.5177	109.2795
666.6727	111.7203
666.8278	113.9692
666.9828	123.3422
667.1378	116.11
667.2928	115.7949
667.4478	117.9148
667.6028	111.7594
667.7578	121.1865
667.9127	120.5596
668.0677	116.0673
668.2226	115.6055
668.3776	117.7064
668.5325	113.8168
668.6874	115.8069
668.8423	120.2993
668.9973	118.9598
669.1522	114.1552
669.3071	114.5898
669.4619	117.0679
669.6168	111.6864
669.7717	112.7285
669.9265	114.258
670.0814	115.1396
670.2362	113.8654
670.3911	112.4529
670.5459	117.9683
670.7007	109.898
670.8555	113.4065
671.0103	116.9238
671.1651	112.7435
671.3199	116.8887
671.4747	114.351
671.6295	112.0573
671.7842	115.1116
671.939	110.1962
672.0937	113.4925
672.2484	107.362
672.4031	112.0975
672.5579	114.6093
672.7126	112.2396
672.8673	110.9303
673.022	112.3591
673.1767	115.4424
673.3314	110.8799
673.486	118.1118
673.6407	117.0751
673.7953	110.9344
673.95	106.7382
674.1046	108.1075
674.2592	110.1925
674.4138	110.0341
674.5684	115.4214
674.723	111.5094
674.8776	114.6254
675.0322	113.011
675.1868	107.6979
675.3414	101.7923
675.4959	110.0272
675.6505	115.296
675.805	112.2639
675.9595	111.3178
676.1141	111.9241
676.2686	106.0499
676.4231	106.2377
676.5776	105.4318
676.7321	106.0236
676.8866	110.3242
677.041	107.1073
677.1955	103.2627
677.35	105.5539
677.5044	104.4552
677.6589	108.5753
677.8133	107.7185
677.9677	107.1637
678.1221	103.6223
678.2766	102.2692
678.4309	106.6585
678.5853	106.1434
678.7397	104.856
678.8941	104.2072
679.0485	106.6576
679.2028	109.3819
679.3571	103.4767
679.5115	101.8303
679.6658	103.4842
679.8201	106.0875
679.9744	101.9606
680.1288	98.46179
680.2831	98.20366
680.4373	104.1023
680.5916	106.5787
680.7459	109.8697
680.9001	107.103
681.0544	105.3746
681.2087	104.3544
681.3629	94.70557
681.5171	98.72446
681.6713	104.2904
681.8256	97.42181
681.9797	96.63805
682.134	100.629
682.2881	97.79179
682.4423	103.4209
682.5965	104.3379
682.7507	100.9675
682.9048	96.37689
683.059	99.54363
683.2131	100.4106
683.3672	98.68949
683.5213	101.839
683.6754	103.0577
683.8295	100.1291
683.9836	97.65823
684.1377	98.50195
684.2918	91.96551
684.4459	95.74966
684.5999	98.86877
684.754	104.1749
684.908	101.3919
685.062	103.0051
685.2161	95.97421
685.3701	93.9138
685.5241	94.84158
685.6781	92.84012
685.8321	94.30859
685.9861	90.96664
686.14	99.48807
686.294	97.24315
686.4479	94.5523
686.6019	85.73032
686.7559	81.24892
686.9098	71.8903
687.0637	68.20016
687.2176	70.17381
687.3715	69.9857
687.5254	71.37225
687.6793	73.607
687.8332	81.91436
687.9871	82.45793
688.1409	86.33715
688.2947	86.4157
688.4486	84.28333
688.6024	86.22938
688.7563	91.9278
688.9101	86.28777
689.0639	82.80647
689.2177	82.44719
689.3715	80.0358
689.5253	84.45083
689.6791	80.90218
689.8328	87.12727
689.9866	86.16747
690.1403	85.37786
690.2941	83.91138
690.4478	86.52588
690.6015	85.98519
690.7552	84.64811
690.9089	88.63436
691.0626	91.55531
691.2164	93.27069
691.37	92.76856
691.5237	89.28782
691.6774	81.63846
691.831	83.63239
691.9847	87.36503
692.1383	87.88713
692.2919	87.25877
692.4456	85.86815
692.5992	83.28728
692.7527	82.60218
692.9064	82.78372
693.0599	87.45335
693.2136	90.52034
693.3671	81.48625
693.5207	80.97477
693.6742	82.05005
693.8278	83.95918
693.9813	83.87181
694.1348	79.61689
694.2883	77.29292
694.4418	82.70823
694.5953	82.53828
694.7488	82.02296
694.9023	85.40316
695.0558	83.3638
695.2093	77.73246
695.3627	75.73087
695.5162	76.92676
695.6696	83.43503
695.8231	84.74847
695.9764	84.0599
696.1299	85.3934
696.2833	88.0761
696.4367	85.73379
696.5901	87.08214
696.7435	84.15157
696.8968	87.8588
697.0502	88.63266
697.2036	90.74986
697.3569	88.92187
697.5102	81.48981
697.6635	77.93378
697.8168	74.61195
697.9702	76.80508
698.1235	82.6775
698.2768	82.40819
698.4301	77.29693
698.5833	85.80819
698.7366	81.97377
698.8898	79.73983
699.0431	80.28042
699.1964	84.29424
699.3495	85.17678
699.5028	84.57822
699.656	85.13787
699.8092	82.77455
699.9624	80.50046
700.1156	81.92613
700.2688	83.68774
700.4219	82.15878
700.5751	80.66156
700.7283	82.62928
700.8814	80.978
701.0345	80.01688
701.1877	77.42764
701.3408	81.82022
701.4939	79.26902
701.647	80.04329
701.8001	83.58786
701.9532	81.24174
702.1063	80.3773
702.2593	79.33927
702.4124	80.75316
702.5654	74.61287
702.7184	74.39165
702.8715	82.61919
703.0245	80.32962
703.1776	80.38805
703.3305	84.0096
703.4835	80.33875
703.6365	80.48197
703.7895	79.39442
703.9424	82.82557
704.0954	82.30938
704.2484	86.34069
704.4013	85.22867
704.5543	83.94106
704.7072	86.42883
704.8601	84.41631
705.013	77.90025
705.1659	83.81299
705.3188	82.1191
705.4717	83.61184
705.6246	82.68987
705.7774	82.79388
705.9303	80.691
706.0831	79.03387
706.236	78.04881
706.3888	78.99845
706.5416	83.5548
706.6944	79.56547
706.8472	82.20621
707	83.1959
707.1528	81.96592
707.3056	80.95573
707.4583	85.07047
707.6111	87.54114
707.7639	80.27457
707.9166	82.538
708.0693	78.43399
708.222	75.21198
708.3748	81.86604
708.5275	82.31445
708.6802	80.42023
708.8328	76.67
708.9855	72.69175
709.1382	82.17047
709.2909	84.616
709.4435	77.86023
709.5962	78.02118
709.7488	77.13027
709.9014	81.11115
710.054	76.26154
710.2067	78.14776
710.3593	77.13493
710.5118	78.46706
710.6644	78.62528
710.817	72.31544
710.9695	77.9174
711.1221	80.65656
711.2747	76.65353
711.4272	83.40475
711.5797	77.72816
711.7322	74.52892
711.8848	77.01072
712.0373	77.81297
712.1898	79.36784
712.3422	78.54113
712.4948	77.24615
712.6472	76.4258
712.7996	79.56435
712.9521	74.61533
713.1046	79.99763
713.257	79.77718
713.4094	74.50746
713.5618	76.73164
713.7142	79.6067
713.8666	84.6601
714.019	80.72402
714.1714	73.55959
714.3237	79.01048
714.4761	80.80054
714.6285	79.53712
714.7808	77.05706
714.9331	75.0406
715.0854	75.85509
715.2378	73.91454
715.3901	78.4575
715.5424	79.2644
715.6947	70.11755
715.8469	72.05724
715.9992	75.40244
716.1515	73.39208
716.3037	70.38773
716.456	73.02315
716.6082	71.55273
716.7604	65.93298
716.9127	67.23335
717.0649	64.77067
717.2171	61.99578
717.3693	59.68225
717.5214	64.73289
717.6736	69.50754
717.8258	64.41141
717.978	66.8065
718.1301	58.63889
718.2822	59.22572
718.4344	58.97012
718.5865	60.04163
718.7386	53.98936
718.8907	58.12064
719.0428	59.02411
719.1949	61.43476
719.3469	60.28162
719.499	60.72118
719.6511	63.79828
719.8031	60.72943
719.9551	62.62051
720.1072	59.74037
720.2592	57.88563
720.4112	62.24203
720.5632	65.92603
720.7152	61.88135
720.8672	61.60115
721.0192	64.93238
721.1711	69.41444
721.3231	67.78971
721.475	72.60069
721.627	70.24422
721.7789	65.91057
721.9308	72.91352
722.0828	70.62311
722.2347	69.54607
722.3866	69.0258
722.5385	69.98649
722.6903	73.18728
722.8422	70.79697
722.9941	69.13254
723.1459	65.56773
723.2977	62.75602
723.4496	61.39822
723.6014	59.4344
723.7532	61.85408
723.905	60.63915
724.0568	62.82134
724.2086	62.12627
724.3604	63.73878
724.5121	62.87165
724.6639	65.05592
724.8157	65.38351
724.9674	61.99672
725.1191	57.48196
725.2709	60.61157
725.4226	61.96479
725.5743	60.88013
725.726	62.46155
725.8777	62.84965
726.0294	61.92536
726.181	61.76625
726.3327	63.42107
726.4844	58.21604
726.636	58.09383
726.7877	64.02538
726.9393	64.97041
727.0909	68.68456
727.2425	65.27966
727.3941	62.69597
727.5457	66.44409
727.6973	57.21799
727.8488	54.79852
728.0004	59.83735
728.1519	67.18748
728.3035	68.6165
728.455	66.33994
728.6066	60.83377
728.7581	63.138
728.9095	62.70839
729.0611	57.95495
729.2126	54.59316
729.364	61.64638
729.5155	61.20135
729.667	66.47512
729.8184	64.15326
729.9698	61.67843
730.1213	63.494
730.2727	60.54218
730.4241	57.647
730.5756	59.61248
730.7269	63.85108
730.8784	64.31024
731.0297	61.38038
731.1811	61.6511
731.3325	61.46793
731.4838	59.24377
731.6351	60.11206
731.7865	58.39993
731.9378	60.83364
732.0891	61.5518
732.2404	66.57834
732.3917	67.6217
732.543	65.75687
732.6943	60.71806
732.8456	61.20293
732.9968	63.82056
733.1481	62.52354
733.2993	60.36225
733.4506	60.95903
733.6018	60.1949
733.753	66.92432
733.9042	63.6578
734.0554	67.48014
734.2066	67.87498
734.3578	71.53644
734.509	63.5645
734.6602	70.49417
734.8113	63.90754
734.9624	62.49104
735.1136	67.51894
735.2647	66.73917
735.4158	70.08759
735.5669	72.30654
735.718	65.66908
735.8691	65.31362
736.0201	66.77487
736.1713	68.64322
736.3223	63.53143
736.4733	61.21684
736.6244	60.01305
736.7755	63.94854
736.9265	59.684
737.0775	61.49892
737.2285	63.72383
737.3795	64.96108
737.5305	67.50993
737.6815	65.77275
737.8324	63.08256
737.9834	63.61753
738.1343	62.20389
738.2853	64.48712
738.4362	65.98903
738.5871	63.58206
738.738	63.44763
738.8889	60.87931
739.0399	60.39421
739.1907	65.25494
739.3416	59.34179
739.4925	67.58931
739.6433	62.07062
739.7942	63.91224
739.945	65.2423
740.0958	63.74363
740.2467	64.88964
740.3975	61.04737
740.5483	64.0938
740.6991	62.63107
740.8499	66.61102
741.0007	64.35503
741.1514	68.06803
741.3022	57.61346
741.4529	62.81701
741.6036	63.37398
741.7544	59.90863
741.9051	56.86375
742.0558	58.242
742.2065	65.33662
742.3572	64.5473
742.5079	63.97136
742.6586	68.4025
742.8093	68.31966
742.9599	68.37216
743.1105	60.98626
743.2612	72.95216
743.4118	68.32365
743.5624	63.3915
743.7131	59.81498
743.8636	58.18321
744.0142	57.87116
744.1648	61.21878
744.3154	58.78185
744.4659	59.79553
744.6165	60.20467
744.767	57.22618
744.9176	56.06299
745.0681	59.31607
745.2186	63.22485
745.3691	63.74845
745.5197	64.46996
745.6702	60.54478
745.8206	58.74157
745.9711	63.80855
746.1215	61.41251
746.272	59.60689
746.4224	58.87859
746.5729	53.74901
746.7233	58.29206
746.8737	62.12841
747.0241	64.83286
747.1745	67.23809
747.3249	58.33727
747.4753	59.94646
747.6257	63.82298
747.776	60.8373
747.9264	65.79634
748.0767	60.73385
748.2271	65.59019
748.3774	63.77077
748.5276	60.93629
748.678	58.17801
748.8282	60.35085
748.9786	59.05276
749.1288	58.8428
749.2791	55.26556
749.4294	49.95054
749.5796	57.38622
749.7299	56.42215
749.8801	61.2289
750.0303	61.50114
750.1805	58.74626
750.3307	60.78696
750.4809	58.73138
750.6311	60.58145
750.7813	57.25661
750.9314	54.0394
751.0816	56.6222
751.2318	57.19342
751.3818	54.18748
751.532	51.74033
751.6821	56.1861
751.8322	55.86047
751.9823	54.19503
752.1324	58.07673
752.2825	58.04434
752.4326	62.39564
752.5826	59.89328
752.7327	57.27335
752.8827	51.57247
753.0327	55.09838
753.1827	55.59956
753.3328	60.31033
753.4828	55.16822
753.6328	59.85757
753.7828	47.02048
753.9327	56.99507
754.0827	55.5335
754.2327	55.9084
754.3826	54.26278
754.5325	51.46961
754.6825	52.20909
754.8324	57.54295
754.9823	56.58158
755.1322	53.64423
755.2821	60.00755
755.432	52.12054
755.5818	52.74486
755.7318	50.57775
755.8816	50.6198
756.0314	50.79202
756.1813	52.0018
756.3311	53.28357
756.4809	55.0945
756.6307	54.19552
756.7805	53.52545
756.9303	52.32978
757.0801	50.9196
757.2299	50.80385
757.3796	53.39045
757.5294	55.28515
757.6791	54.30736
757.8289	51.71269
757.9786	46.92802
758.1283	49.23321
758.278	55.43722
758.4277	49.76401
758.5773	50.18357
758.7271	51.90712
758.8767	50.86701
759.0264	50.6104
759.176	50.60647
759.3256	46.44641
759.4753	37.86538
759.6249	31.39291
759.7745	30.29376
759.9241	27.27753
760.0737	23.43903
760.2233	24.38555
760.3729	24.53892
760.5224	22.67829
760.6719	21.84727
760.8215	22.9404
760.971	19.39849
761.1205	24.21874
761.2701	26.72816
761.4196	25.75479
761.5691	29.81252
761.7186	36.42992
761.868	37.37066
762.0175	41.80604
762.167	36.16642
762.3164	32.24822
762.4659	29.04275
762.6153	31.95638
762.7647	29.73619
762.9141	27.69811
763.0635	25.16436
763.2129	27.5411
763.3623	27.90762
763.5117	31.32024
763.661	30.64457
763.8104	30.56857
763.9597	34.81293
764.1091	32.17542
764.2584	34.56797
764.4077	34.81369
764.557	34.77964
764.7063	37.49227
764.8556	35.20979
765.0049	33.17663
765.1541	34.50635
765.3034	37.03314
765.4526	37.67969
765.6019	40.98
765.7511	39.40406
765.9003	37.87611
766.0496	36.71989
766.1987	40.36548
766.348	39.92812
766.4971	38.05331
766.6463	42.20594
766.7955	42.19977
766.9446	42.9898
767.0938	43.13655
767.2429	45.65541
767.392	43.75624
767.5411	46.05208
767.6902	39.82606
767.8394	42.09085
767.9884	43.11262
768.1375	44.32672
768.2866	40.20504
768.4356	38.36144
768.5847	41.06748
768.7337	43.60691
768.8828	40.51805
769.0317	40.70782
769.1808	44.11864
769.3298	43.9953
769.4788	46.94924
769.6277	41.74659
769.7767	43.812
769.9257	43.63844
770.0746	44.43043
770.2236	46.27912
770.3725	43.77263
770.5214	46.16082
770.6703	45.3928
770.8193	42.14854
770.9681	41.6609
771.1171	43.40013
771.2659	45.81991
771.4148	42.73629
771.5637	42.72335
771.7125	45.91991
771.8613	45.0777
772.0101	42.58925
772.159	44.8572
772.3078	39.82652
772.4566	41.34047
772.6054	43.16787
772.7542	48.32424
772.903	50.3636
773.0517	48.73737
773.2004	42.50814
773.3492	40.68745
773.4979	43.97795
773.6467	44.16787
773.7953	45.01204
773.944	42.23738
774.0928	37.70013
774.2415	44.21897
774.3901	42.5204
774.5388	40.12524
774.6874	42.87669
774.8361	38.38167
774.9847	40.05425
775.1334	37.69065
775.282	45.20642
775.4305	38.20414
775.5792	42.12103
775.7277	44.44758
775.8763	39.27581
776.0249	37.68409
776.1735	42.80645
776.322	44.24315
776.4705	43.03137
776.6191	38.30394
776.7676	36.63918
776.9161	42.32697
777.0646	40.364
777.2131	39.16672
777.3616	42.6881
777.5101	45.9119
777.6585	40.29779
777.8069	39.84162
777.9554	43.57645
778.1038	41.28025
778.2523	39.51538
778.4007	39.77373
778.5491	41.78223
778.6974	40.40144
778.8459	36.22332
778.9942	36.98764
779.1426	36.75377
779.291	44.5462
779.4393	43.72247
779.5876	40.56149
779.736	39.39307
779.8843	37.0784
780.0326	41.49394
780.1809	41.508
780.3292	39.38781
780.4775	40.20297
780.6257	41.79556
780.774	39.29224
780.9222	38.51416
781.0704	42.28038
781.2187	36.9733
781.3669	40.27139
781.5151	39.91012
781.6633	44.45561
781.8115	33.14846
781.9597	35.59846
782.1078	38.92656
782.256	41.04824
782.4042	37.74464
782.5523	38.71249
782.7004	34.36377
782.8486	38.72336
782.9967	38.76138
783.1448	38.0463
783.2929	37.19259
783.441	38.16058
783.5891	42.24093
783.7371	44.00882
783.8851	41.57991
784.0332	36.03561
784.1812	35.5036
784.3293	37.09071
784.4773	43.00704
784.6253	41.2725
784.7733	34.22398
784.9213	38.81123
785.0692	39.02605
785.2172	34.63857
785.3652	36.12461
785.5131	34.80172
785.6611	34.7608
785.809	36.84681
785.9569	37.0164
786.1048	38.38335
786.2527	37.31356
786.4006	34.33762
786.5485	36.00285
786.6964	38.5428
786.8442	38.91447
786.9921	35.11415
787.1399	35.7937
787.2877	39.93272
787.4355	40.97342
787.5833	37.8223
787.7311	36.04222
787.8789	35.04365
788.0267	37.66989
788.1745	37.14103
788.3223	35.89987
788.47	31.25196
788.6177	36.77562
788.7654	35.89808
788.9132	37.06348
789.0609	30.55137
789.2086	30.90357
789.3563	34.3266
789.504	36.66338
789.6517	38.18918
789.7993	36.95767
789.947	36.79255
790.0946	35.07177
790.2422	36.30291
790.3898	33.6324
790.5375	40.32701
790.6851	37.29357
790.8326	34.72635
790.9802	36.15326
791.1278	32.13747
791.2754	30.5042
791.423	32.6685
791.5705	36.45559
791.718	37.75869
791.8655	34.8632
792.0131	32.28913
792.1606	30.59148
792.308	34.42994
792.4556	33.19856
792.603	32.85503
792.7505	30.00559
792.8979	33.9914
793.0454	34.37905
793.1928	31.96565
793.3403	32.93592
793.4877	30.61053
793.6351	34.81393
793.7825	33.0203
793.9299	34.51234
794.0772	34.62349
794.2246	31.89491
794.3719	39.41617
794.5193	34.86618
794.6666	34.51445
794.814	30.7561
794.9613	29.6129
795.1086	34.82274
795.2559	32.71761
795.4032	33.11973
795.5505	28.29109
795.6978	26.16369
795.845	32.15315
795.9922	28.52227
796.1395	30.06036
796.2867	31.12543
796.4339	34.5089
796.5811	34.96399
796.7283	35.87427
796.8755	35.64698
797.0227	33.5513
797.1699	29.10628
797.317	31.18669
797.4642	32.62794
797.6113	35.39426
797.7584	33.4909
797.9056	34.30466
798.0527	32.05235
798.1998	25.39099
798.3469	26.29192
798.494	34.35194
798.641	31.68106
798.7881	31.22357
798.9351	34.15927
799.0822	25.71608
799.2292	32.75698
799.3762	30.61911
799.5232	32.82917
799.6702	27.56042
799.8172	32.98804
799.9642	30.28454
800.1111	28.98879
800.2581	31.24622
800.4051	31.44942
800.552	34.07633
800.6989	34.56011
800.8458	27.71318
800.9927	27.71585
801.1396	32.43798
801.2866	34.42059
801.4334	31.83623
801.5803	29.92436
801.7272	28.02102
801.874	27.36222
802.0209	31.84421
802.1677	33.62878
802.3145	33.89096
802.4613	29.65353
802.6081	24.98076
802.7549	26.26777
802.9017	30.69171
803.0485	27.86846
803.1952	32.33396
803.342	30.51352
803.4887	31.57026
803.6354	31.24177
803.7822	26.95149
803.9289	30.23241
804.0756	29.47583
804.2223	23.80076
804.369	27.14865
804.5156	28.344
804.6623	27.77296
804.8089	30.94815
804.9556	28.07894
805.1022	30.55205
805.2488	31.18325
805.3954	32.66354
805.542	31.2436
805.6886	29.0589
805.8352	30.93118
805.9818	29.7388
806.1283	29.33546
806.2749	26.03831
806.4214	27.78459
806.5679	30.69309
806.7145	27.85172
806.861	27.74426
807.0074	29.35018
807.154	31.52096
807.3004	31.71546
807.4469	31.72584
807.5934	25.11039
807.7398	22.88836
807.8862	26.64367
808.0327	27.5805
808.1791	26.17837
808.3255	31.77357
808.4719	26.70877
808.6183	30.74415
808.7647	32.08519
808.9111	24.65928
809.0574	26.34053
809.2037	32.66204
809.3501	29.91111
809.4965	23.413
809.6428	26.51641
809.7891	26.25916
809.9354	27.40596
810.0817	29.33564
810.2279	24.10976
810.3742	29.61273
810.5204	24.98737
810.6667	26.1498
810.8129	27.892
810.9592	27.72499
811.1054	29.33646
811.2516	26.63533
811.3978	27.32534
811.5439	25.7897
811.6901	26.42677
811.8363	25.81933
811.9825	24.20996
812.1286	24.82085
812.2748	26.72619
812.4209	23.66545
812.567	28.022
812.7131	27.20983
812.8592	22.68942
813.0053	22.53159
813.1514	21.93117
813.2974	22.64531
813.4435	21.58361
813.5895	25.88555
813.7356	22.94429
813.8816	21.53538
814.0276	21.98951
814.1736	23.16055
814.3196	24.98814
814.4656	23.34485
814.6116	21.12631
814.7576	20.09915
814.9035	22.72574
815.0494	17.36725
815.1954	20.67207
815.3413	22.92533
815.4872	22.18576
815.6331	19.10204
815.779	19.07759
815.9249	24.52033
816.0707	21.52331
816.2166	17.91016
816.3625	18.23427
816.5083	17.1678
816.6542	20.66234
816.8	18.70155
816.9458	20.10331
817.0916	23.39793
817.2374	21.7162
817.3832	22.37442
817.5289	23.13931
817.6747	19.88476
817.8204	21.14172
817.9662	18.47685
818.1119	21.0195
818.2576	19.15764
818.4034	21.69427
818.5491	21.17215
818.6948	21.16522
818.8405	20.91159
818.9861	21.21065
819.1318	23.755
819.2774	22.77659
819.423	25.14499
819.5687	26.1832
819.7143	19.19749
819.8599	17.67383
820.0055	18.36287
820.1511	20.83861
820.2967	23.87597
820.4422	22.06813
820.5878	24.95644
820.7333	24.68802
820.8788	24.27867
821.0244	24.4833
821.1699	23.53427
821.3154	25.94897
821.4609	22.98724
821.6064	20.29541
821.7519	20.95714
821.8973	23.4117
822.0428	20.36426
822.1882	23.80451
822.3337	22.96622
822.4791	19.50679
822.6245	21.12326
822.7699	19.43059
822.9153	17.56823
823.0607	14.79436
823.2061	19.42613
823.3514	18.42644
823.4968	20.95205
823.6422	22.04466
823.7875	21.4073
823.9328	20.69856
824.0781	20.67249
824.2234	18.66445
824.3687	19.39017
824.514	21.18117
824.6592	20.03983
824.8045	21.89062
824.9498	21.48712
825.095	22.45459
825.2402	21.08386
825.3854	26.36396
825.5306	26.5946
825.6758	18.3327
825.821	19.42149
825.9662	25.00517
826.1114	22.75106
826.2565	23.87808
826.4017	19.32309
826.5468	17.38048
826.692	22.69997
826.837	23.89408
826.9822	19.73159
827.1273	16.974
827.2723	18.23274
827.4174	22.01342
827.5625	17.2252
827.7075	16.16131
827.8526	16.32924
827.9976	18.94612
828.1426	19.93699
828.2877	19.41194
828.4327	19.98088
828.5776	21.27441
828.7227	18.67418
828.8676	19.24127
829.0126	25.80285
829.1575	19.46383
829.3024	24.55622
829.4474	23.31526
829.5923	13.4212
829.7372	21.68045
829.8821	19.96342
830.027	21.82992
830.1719	23.37691
830.3168	19.6828
830.4616	19.27253
830.6064	17.23526
830.7513	17.37345
830.8961	21.77766
831.041	19.34787
831.1857	21.40431
831.3306	22.65469
831.4753	19.63807
831.6201	19.63696
831.7649	17.15248
831.9096	16.11144
832.0544	16.46347
832.1991	14.5783
832.3438	16.73438
832.4885	20.92584
832.6332	19.92359
832.778	16.93922
832.9226	17.39924
833.0673	15.19771
833.2119	15.8375
833.3566	18.56746
833.5012	16.98235
833.6459	18.16596
833.7905	19.66078
833.9351	21.1731
834.0797	19.12813
834.2243	19.17373
834.3688	19.38182
834.5134	20.18379
834.658	13.68696
834.8026	21.25117
834.9471	14.93312
835.0916	19.00286
835.2361	19.85283
835.3806	21.15837
835.5251	18.24306
835.6696	17.16525
835.8141	22.02969
835.9586	20.81701
836.103	19.90932
836.2474	16.18822
836.3918	21.21769
836.5363	21.19821
836.6807	18.03414
836.8251	16.94095
836.9695	19.09315
837.1138	17.1807
837.2582	21.79301
837.4026	20.2744
837.5469	18.70691
837.6913	18.48979
837.8356	17.44097
837.9799	16.47482
838.1242	18.37154
838.2686	13.47229
838.4128	17.67079
838.5571	23.32526
838.7014	19.66762
838.8456	19.0932
838.9899	21.73083
839.1341	25.00403
839.2783	21.02596
839.4225	18.2884
839.5667	17.85227
839.7109	18.53905
839.8551	17.36926
839.9993	17.0492
840.1434	20.57927
840.2876	18.72324
840.4317	16.16076
840.5759	16.06121
840.72	18.05637
840.8641	15.74439
841.0082	23.78477
841.1523	21.96539
841.2963	18.89103
841.4404	18.65884
841.5845	17.65668
841.7285	15.38912
841.8726	21.6677
842.0165	20.84721
842.1606	19.85276
842.3046	18.98735
842.4485	18.90451
842.5925	16.84987
842.7365	19.20454
842.8805	21.10034
843.0244	19.32883
843.1684	12.81529
843.3123	17.94511
843.4562	22.1622
843.6002	16.69112
843.744	16.32379
843.8879	20.65827
844.0318	16.87947
844.1757	16.79076
844.3195	16.36397
844.4634	16.94122
844.6072	19.19089
844.751	15.51453
844.8948	25.00794
845.0386	18.2498
845.1824	15.29091
845.3262	16.11566
845.47	19.55689
845.6138	18.82845
845.7575	14.51803
845.9012	16.49717
846.045	15.858
846.1887	17.22212
846.3324	14.64194
846.4761	18.46365
846.6198	15.2582
846.7635	15.92316
846.9071	14.23704
847.0508	12.82319
847.1944	15.47729
847.3381	22.95555
847.4817	20.78304
847.6253	17.94487
847.7689	16.18068
847.9125	17.70484
848.0561	15.0019
848.1996	15.25758
848.3432	15.867
848.4868	16.48356
848.6303	14.67635
848.7738	16.23346
848.9174	14.11651
849.0609	12.80207
849.2043	16.81795
849.3478	18.54862
849.4913	20.05403
849.6348	15.22719
849.7782	16.81949
849.9217	21.22469
850.0651	20.55013
850.2086	19.42271
850.3519	15.78926
850.4954	14.99334
850.6387	18.40422
850.7821	14.86144
850.9255	16.36016
851.0688	16.5408
851.2122	14.56334
851.3555	16.30464
851.4988	17.90389
851.6422	15.77535
851.7855	16.85889
851.9288	21.64191
852.0721	14.59454
852.2153	16.79448
852.3586	17.31091
852.5018	14.69036
852.6451	13.39817
852.7883	14.37491
852.9315	15.97396
853.0748	16.00854
853.218	19.58374
853.3611	15.71734
853.5043	17.90835
853.6475	19.55592
853.7906	19.70411
853.9338	15.31027
854.0769	13.9784
854.22	9.50897
854.3632	12.18389
854.5063	18.97275
854.6494	14.82119
854.7924	20.13687
854.9355	18.62622
855.0786	16.76414
855.2216	16.89682
855.3647	15.55192
855.5077	18.80882
855.6507	17.1779
855.7937	12.80717
855.9367	13.32354
856.0797	13.50062
856.2227	16.2603
856.3657	16.23201
856.5086	11.02958
856.6516	14.50607
856.7945	10.44057
856.9374	15.39746
857.0803	16.12524
857.2232	16.39892
857.3661	15.04843
857.509	15.45042
857.6519	11.90533
857.7947	11.85802
857.9376	18.03296
858.0804	16.72513
858.2232	14.69525
858.366	20.80822
858.5089	11.80237
858.6516	13.69351
858.7944	10.5163
858.9372	18.9277
859.08	20.39747
859.2227	14.65003
859.3654	15.33016
859.5082	15.85089
859.6509	18.43585
859.7936	15.13843
859.9363	12.92052
860.079	16.05806
860.2217	15.07276
860.3643	16.29193
860.507	14.64772
860.6496	17.04704
860.7922	15.15733
860.9349	13.57728
861.0775	16.36692
861.2201	19.11835
861.3627	10.35514
861.5052	12.81644
861.6478	14.48312
861.7904	13.77724
861.9329	15.19362
862.0755	13.8695
862.218	14.92562
862.3605	15.00467
862.503	16.58695
862.6455	13.22323
862.788	15.81369
862.9305	17.79165
863.0729	13.65726
863.2154	16.12477
863.3578	13.6508
863.5002	13.58854
863.6426	13.91572
863.7851	11.76215
863.9275	17.58406
864.0698	17.95261
864.2122	16.59614
864.3546	14.19461
864.4969	15.30289
864.6393	16.89331
864.7816	18.25545
864.924	18.18802
865.0662	19.10953
865.2086	20.26065
865.3508	14.95577
865.4931	17.25908
865.6354	13.8153
865.7776	11.50952
865.9199	9.184334
866.0621	9.995857
866.2043	13.7801
866.3466	10.38638
866.4888	14.50223
866.6309	10.44295
866.7731	15.06708
866.9153	16.25501
867.0574	12.78244
867.1996	14.32008
867.3417	13.21868
867.4839	12.03075
867.626	16.58519
867.7681	16.25753
867.9102	11.84341
868.0522	13.20265
868.1943	14.08061
868.3364	16.02416
868.4785	9.376714
868.6205	12.329
868.7625	12.2787
868.9045	11.1981
869.0465	17.33807
869.1885	15.21301
869.3305	12.44934
869.4725	14.32562
869.6144	11.23481
869.7564	11.34574
869.8983	9.170786
870.0403	9.086715
870.1822	13.55144
870.3241	8.112107
870.466	16.71029
870.6079	12.88685
870.7498	17.42794
870.8916	14.92882
871.0335	15.96238
871.1754	17.91751
871.3171	10.03216
871.459	9.467181
871.6008	12.70122
871.7426	17.74206
871.8844	13.89575
872.0262	14.89456
872.1679	12.10152
872.3097	10.73957
872.4514	11.77485
872.5931	11.08175
872.7349	13.06575
872.8766	9.44199
873.0183	17.81589
873.16	15.53957
873.3017	14.63579
873.4434	13.57448
873.585	14.34474
873.7266	10.15228
873.8683	6.779708
874.0099	11.45276
874.1516	11.71031
874.2932	12.39819
874.4348	12.02586
874.5763	13.2488
874.7179	12.18783
874.8594	8.20207
875.001	12.57322
875.1425	11.22138
875.2841	14.43836
875.4256	12.00983
875.5671	12.92426
875.7086	12.83834
875.85	13.89354
875.9915	12.72155
876.133	8.812433
876.2744	13.74242
876.4159	12.00941
876.5573	10.00988
876.6987	10.74601
876.8401	11.02373
876.9815	9.555653
877.1229	10.21246
877.2643	12.47004
877.4056	15.41551
877.547	16.37281
877.6884	11.97835
877.8297	13.88299
877.971	12.2504
878.1123	11.93775
878.2536	10.87642
878.3949	12.36404
878.5362	11.83855
878.6774	10.60021
878.8187	9.444148
878.9599	11.59599
879.1011	12.5668
879.2424	14.69746
879.3836	12.00514
879.5248	14.38911
879.666	13.78955
879.8071	12.80594
879.9483	13.42278
880.0895	15.23234
880.2306	14.81031
880.3718	13.07207
880.5129	12.94009
880.654	12.28171
880.7951	11.66014
880.9362	11.52204
881.0773	12.41744
881.2183	7.90896
881.3594	8.457686
881.5004	16.27972
881.6414	9.638549
881.7825	9.555007
881.9235	13.79882
882.0645	9.795918
882.2054	8.667025
882.3464	7.100865
882.4874	12.65914
882.6284	14.44244
882.7693	9.191915
882.9103	11.8728
883.0512	11.69171
883.1921	12.8447
883.333	7.487892
883.4739	11.1019
883.6147	10.47427
883.7556	9.712943
883.8965	10.4178
884.0374	7.579841
884.1782	9.513201
884.319	14.21929
884.4598	11.67744
884.6006	10.19351
884.7414	9.690728
884.8822	11.26614
885.0229	12.17249
885.1637	10.53367
885.3044	5.988559
885.4452	9.972142
885.5859	14.4677
885.7266	12.57641
885.8673	7.207302
886.008	11.03625
886.1487	8.233089
886.2894	11.22504
886.43	13.28314
886.5707	12.80483
886.7113	11.99393
886.8519	12.36303
886.9926	11.73475
887.1331	9.662412
887.2737	11.14905
887.4143	13.56793
887.5549	12.92078
887.6954	15.81801
887.836	14.2261
887.9765	11.43824
888.1171	12.2028
888.2576	7.921415
888.3981	9.254717
888.5386	9.48183
888.679	14.80433
888.8195	11.68899
888.96	15.73646
889.1004	13.35049
889.2408	4.569991
889.3813	6.956684
889.5217	9.357634
889.6621	12.88011
889.8025	7.671445
889.9429	11.92257
890.0833	11.9074
890.2236	13.4187
890.364	10.53979
890.5043	15.19669
890.6446	4.672397
890.7849	10.12379
890.9252	14.90608
891.0655	10.84541
891.2058	12.35888
891.3461	9.198068
891.4863	11.02815
891.6266	10.58718
891.7668	11.91683
891.907	12.67714
892.0472	12.09274
892.1874	5.340716
892.3276	9.055292
892.4678	7.239138
892.608	13.54176
892.7481	12.33804
892.8883	12.28434
893.0284	6.406917
893.1685	8.877369
893.3087	9.123766
893.4487	10.51434
893.5889	9.618353
893.7289	11.29587
893.869	12.05242
894.009	13.92663
894.1491	6.171405
894.2891	10.23767
894.4291	10.00032
894.5692	11.50118
894.7092	11.79791
894.8491	8.828634
894.9891	9.817325
895.1291	13.80124
895.269	8.889933
895.409	11.00106
895.549	4.938498
895.6888	7.343866
895.8288	5.896667
895.9687	9.044481
896.1086	11.11727
896.2484	9.495474
896.3883	10.63721
896.5281	10.55112
896.668	1.395663
896.8079	8.347338
896.9476	7.932987
897.0875	5.84391
897.2272	5.698179
897.3671	9.364302
897.5068	8.329482
897.6466	12.20339
897.7864	7.838483
897.9261	6.780451
898.0658	7.796796
898.2056	8.70395
898.3453	10.85277
898.4849	7.087473
898.6246	8.211944
898.7643	8.570745
898.904	4.926258
899.0436	9.246685
899.1833	8.664361
899.3229	4.979739
899.4625	7.063314
899.6021	13.13839
899.7417	10.82393
899.8813	7.771048
900.0209	10.473
900.1605	9.339595
900.3	8.429472
900.4395	8.482175
900.579	6.594877
900.7186	5.375133
900.8581	5.817398
900.9976	8.758902
901.1371	5.533094
901.2766	5.892828
901.416	7.155499
901.5555	6.988314
901.6949	10.48271
901.8344	11.17568
901.9738	7.339823
902.1132	11.09191
902.2526	7.881119
902.3919	7.765891
902.5313	7.384125
902.6707	10.77009
