SPECTRUM DATA FILE
SpectrumCount:	1
PixelCount:	3648
UserName:	ToughBook User
SampleName:	
LightSource:	
Comments:	
DeviceName:	Qwave
DeviceManufacturer:	Broadcom
DeviceSerialNo:	11311

Name:	last spectrum
Date:	2024-05-02T15:03:21.8415161+02:00
ExposureTime:	0.02
TemporalAvg:	1
IntensityUnit:	normalizedCounts
CCDLoadLevel:	0.04776774
Temperature:	29.23276
DiagramColor:	200
ProcessingSteps:	335

Wavelength [nm]	Intensity1
334.421	15.20541
334.5891	15.6643
334.7573	12.70066
334.9254	9.858562
335.0935	9.020891
335.2616	10.31396
335.4297	9.458499
335.5978	7.087855
335.7659	10.61201
335.934	11.36884
336.1021	9.286194
336.2701	8.111964
336.4382	7.730733
336.6063	7.695237
336.7744	15.1254
336.9424	11.43445
337.1105	8.428088
337.2785	8.346177
337.4466	12.43653
337.6146	12.66059
337.7827	12.14858
337.9507	12.13285
338.1187	9.778525
338.2867	12.32958
338.4548	9.702351
338.6228	10.95521
338.7908	9.992875
338.9588	13.2458
339.1268	13.11149
339.2948	7.844592
339.4628	11.42606
339.6308	10.83782
339.7988	7.775959
339.9667	8.477129
340.1347	13.19631
340.3027	13.26141
340.4707	12.97002
340.6386	17.8105
340.8066	15.83301
340.9745	16.72744
341.1425	15.07949
341.3104	12.39189
341.4784	12.60521
341.6463	11.39269
341.8142	13.05114
341.9821	17.26399
342.1501	15.9402
342.318	10.48365
342.4859	9.67001
342.6538	7.377737
342.8217	11.94362
342.9896	15.90207
343.1575	14.62376
343.3254	11.98359
343.4933	14.9695
343.6612	12.8233
343.829	12.38866
343.9969	15.78457
344.1648	12.66571
344.3326	17.6635
344.5005	16.67316
344.6683	17.07969
344.8362	8.366528
345.004	13.77941
345.1719	15.8685
345.3397	13.80341
345.5075	13.91865
345.6754	13.72755
345.8432	13.82509
346.011	10.01367
346.1788	13.97205
346.3466	14.89467
346.5144	9.601378
346.6822	12.94198
346.85	13.41316
347.0178	15.48898
347.1856	17.73658
347.3534	16.14696
347.5211	16.10521
347.6889	11.58321
347.8567	14.10735
348.0244	14.80266
348.1922	11.72723
348.3599	12.96089
348.5277	15.7493
348.6954	14.14651
348.8632	14.52985
349.0309	10.98034
349.1986	11.98397
349.3663	14.39052
349.5341	10.06553
349.7018	16.04152
349.8695	17.42219
350.0372	14.50556
350.2049	15.07398
350.3726	17.82591
350.5403	15.58418
350.7079	13.45553
350.8756	10.90849
351.0433	13.8939
351.211	17.84939
351.3786	9.797015
351.5463	10.86991
351.714	20.57976
351.8816	15.73512
352.0493	17.70207
352.2169	11.8577
352.3846	11.86621
352.5522	13.08423
352.7198	15.7799
352.8875	14.18498
353.0551	16.43094
353.2227	20.40825
353.3903	19.45424
353.5579	15.51065
353.7255	14.082
353.8931	19.60571
354.0607	17.36873
354.2283	12.96206
354.3958	16.68573
354.5634	16.57523
354.731	14.45883
354.8986	12.9947
355.0661	17.15024
355.2337	16.35672
355.4012	13.61121
355.5688	19.05027
355.7363	18.70587
355.9039	12.96023
356.0714	16.98555
356.239	17.52063
356.4065	14.76672
356.574	19.50151
356.7415	16.90734
356.909	17.97572
357.0765	16.25385
357.244	21.07505
357.4115	17.89726
357.579	14.95552
357.7465	11.79418
357.914	12.67354
358.0815	13.86362
358.249	14.94146
358.4164	14.28606
358.5839	15.33207
358.7513	11.59002
358.9188	12.95099
359.0862	20.25473
359.2537	17.65387
359.4211	14.10268
359.5886	21.24009
359.756	19.15905
359.9234	20.23261
360.0909	19.35899
360.2583	18.62525
360.4257	18.21815
360.5931	14.58766
360.7605	15.9043
360.9279	16.928
361.0953	12.53797
361.2627	17.64501
361.4301	18.14326
361.5974	12.02118
361.7648	16.11295
361.9322	21.41824
362.0995	19.69042
362.2669	22.03633
362.4343	22.45331
362.6016	23.40543
362.769	26.11553
362.9363	21.14426
363.1036	20.58313
363.271	17.20542
363.4383	22.34638
363.6056	16.34139
363.7729	18.08066
363.9402	18.92173
364.1075	15.73021
364.2748	21.62142
364.4421	19.37685
364.6094	20.27391
364.7767	24.88531
364.944	21.4052
365.1113	18.57679
365.2786	26.43637
365.4458	32.28561
365.6131	23.9006
365.7803	21.56063
365.9476	21.40333
366.1148	21.9742
366.2821	19.95789
366.4493	20.5403
366.6166	24.34981
366.7838	19.61539
366.951	24.14746
367.1182	22.58469
367.2855	21.51701
367.4527	23.70337
367.6199	19.64687
367.7871	26.98201
367.9543	21.64559
368.1215	24.23186
368.2886	20.67067
368.4558	21.32644
368.623	22.35418
368.7902	24.5332
368.9573	23.68075
369.1245	18.45105
369.2917	19.10488
369.4588	19.19158
369.6259	17.4492
369.7931	21.57283
369.9602	23.17716
370.1274	19.52017
370.2945	19.74275
370.4616	21.00435
370.6287	19.81858
370.7958	20.28687
370.963	21.80573
371.1301	16.8972
371.2971	29.51981
371.4643	31.40124
371.6313	25.36366
371.7984	26.0457
371.9655	23.83481
372.1326	19.67281
372.2997	19.4281
372.4667	24.16902
372.6338	22.25586
372.8008	22.3527
372.9679	21.92172
373.1349	19.18013
373.3019	21.29492
373.469	18.4386
373.636	18.75782
373.803	21.85115
373.9701	21.29831
374.1371	21.97395
374.3041	25.07305
374.4711	21.57507
374.6381	22.27111
374.8051	21.50308
374.9721	22.29041
375.1391	22.0872
375.3061	26.83735
375.473	22.49346
375.64	23.57673
375.8069	27.25481
375.9739	24.44201
376.1409	26.69828
376.3078	24.80401
376.4748	24.08119
376.6417	23.29808
376.8087	22.68596
376.9756	24.81177
377.1425	29.14413
377.3094	30.29994
377.4763	27.49774
377.6432	27.71655
377.8102	29.46379
377.9771	33.55124
378.144	33.77331
378.3109	31.67833
378.4777	33.26656
378.6446	31.40345
378.8115	31.85488
378.9784	23.05816
379.1452	22.26322
379.3121	24.45846
379.4789	23.34708
379.6458	26.71545
379.8127	21.86355
379.9795	25.79359
380.1463	30.79696
380.3131	30.3229
380.48	30.70963
380.6468	25.87991
380.8136	30.35567
380.9804	30.92592
381.1472	30.44397
381.314	30.66583
381.4808	29.33987
381.6476	27.74506
381.8144	26.56587
381.9812	23.3157
382.148	26.06749
382.3147	27.71637
382.4815	26.21542
382.6483	21.67293
382.815	23.54574
382.9818	28.36741
383.1485	17.96291
383.3153	21.40945
383.482	22.03803
383.6487	24.17428
383.8155	29.79659
383.9822	25.39425
384.1489	25.15509
384.3156	27.60246
384.4823	30.51777
384.649	34.23847
384.8157	31.71468
384.9824	29.60631
385.1491	31.60975
385.3158	31.83603
385.4825	30.88157
385.6491	32.44223
385.8158	28.7645
385.9825	28.23317
386.1491	31.95485
386.3157	33.20736
386.4824	32.60962
386.649	31.0412
386.8157	28.29796
386.9823	27.86366
387.1489	27.86252
387.3156	29.57602
387.4821	30.62141
387.6488	29.86686
387.8154	27.10221
387.982	30.04372
388.1486	28.52255
388.3152	26.95124
388.4818	27.67075
388.6483	26.43836
388.8149	28.06176
388.9815	28.88866
389.148	28.85666
389.3146	30.72593
389.4811	34.23613
389.6477	31.95271
389.8142	33.94533
389.9808	35.5419
390.1473	38.73962
390.3138	36.50524
390.4804	36.26807
390.6469	35.90247
390.8134	39.69872
390.9799	35.80367
391.1464	39.57258
391.3129	41.93175
391.4794	40.46839
391.6459	35.342
391.8124	32.74078
391.9789	35.51962
392.1453	38.88913
392.3118	35.90542
392.4782	36.30008
392.6447	30.37131
392.8112	28.17504
392.9776	28.10865
393.144	21.83268
393.3105	18.6158
393.4769	19.28499
393.6433	23.15867
393.8098	26.61999
393.9762	26.40097
394.1426	25.44261
394.309	31.17324
394.4754	37.23222
394.6418	37.63765
394.8082	40.978
394.9746	42.14799
395.141	44.94501
395.3073	42.85652
395.4737	41.29022
395.64	40.07222
395.8064	41.78879
395.9728	40.6786
396.1391	37.69424
396.3055	32.10134
396.4718	30.59802
396.6381	26.83488
396.8045	26.09388
396.9708	23.14339
397.1371	28.91453
397.3034	31.77425
397.4697	34.73243
397.636	37.57534
397.8023	41.25822
397.9686	46.35838
398.1349	44.91478
398.3012	47.39138
398.4675	49.04851
398.6337	51.05378
398.8	48.4992
398.9662	50.67659
399.1325	55.59116
399.2988	52.62466
399.465	50.52641
399.6313	50.04244
399.7975	48.22852
399.9637	56.84948
400.1299	57.05799
400.2961	55.6545
400.4624	53.73602
400.6286	51.99093
400.7948	53.40961
400.961	55.19791
401.1272	53.8341
401.2934	61.919
401.4595	61.2757
401.6257	59.8005
401.7919	57.03505
401.9581	54.00808
402.1242	59.20239
402.2904	61.34914
402.4565	60.33233
402.6227	62.0018
402.7888	61.23029
402.955	55.44722
403.1211	56.15475
403.2872	49.08749
403.4533	58.77933
403.6194	55.36695
403.7856	61.95658
403.9517	63.42648
404.1177	61.51222
404.2838	59.37975
404.4499	56.63728
404.616	51.56368
404.7821	52.87343
404.9482	57.86169
405.1142	67.94731
405.2803	60.02845
405.4464	58.79081
405.6124	60.7238
405.7784	62.46005
405.9445	60.50127
406.1105	63.75684
406.2766	57.97305
406.4426	56.69833
406.6086	56.7466
406.7746	61.7254
406.9406	59.64334
407.1066	60.43903
407.2726	62.12757
407.4386	61.29898
407.6046	59.04713
407.7706	61.42537
407.9366	63.0857
408.1025	66.00194
408.2685	70.10602
408.4344	65.61089
408.6004	68.27402
408.7664	77.08136
408.9323	68.69293
409.0983	71.07135
409.2642	65.79207
409.4301	71.198
409.596	70.60572
409.762	69.47649
409.9279	63.36653
410.0938	56.60624
410.2597	54.86982
410.4256	62.38988
410.5915	65.24093
410.7574	71.86993
410.9232	66.21384
411.0891	74.9148
411.255	71.44379
411.4209	74.70168
411.5867	79.41443
411.7526	69.63766
411.9184	70.37905
412.0843	72.73005
412.2501	75.05605
412.4159	78.32085
412.5818	75.02209
412.7476	81.33759
412.9134	71.12411
413.0792	73.94344
413.245	71.34547
413.4108	68.7617
413.5766	68.99619
413.7424	74.53045
413.9082	76.5642
414.074	78.93174
414.2397	72.21676
414.4055	71.18833
414.5713	77.67655
414.737	83.69936
414.9028	83.29055
415.0685	78.11655
415.2343	76.75068
415.4	76.26357
415.5658	79.84883
415.7315	75.98125
415.8972	72.67599
416.0629	77.1216
416.2286	80.24328
416.3943	81.4612
416.56	79.71112
416.7257	78.20837
416.8914	77.20657
417.0571	75.77692
417.2228	73.56266
417.3884	72.39892
417.5541	70.25233
417.7198	73.13864
417.8854	74.05926
418.0511	76.95641
418.2167	74.82395
418.3824	76.616
418.548	77.17593
418.7136	80.38042
418.8792	75.29242
419.0449	77.21862
419.2105	85.52027
419.3761	85.38675
419.5417	76.50638
419.7073	74.64748
419.8729	68.94566
420.0385	74.08804
420.204	77.42847
420.3696	79.22935
420.5352	80.28261
420.7007	81.63174
420.8663	81.50618
421.0319	90.33066
421.1974	91.67483
421.3629	90.89095
421.5285	87.41111
421.694	84.14385
421.8595	91.4124
422.0251	92.25526
422.1906	92.9753
422.3561	85.56701
422.5216	79.38052
422.6871	70.8436
422.8526	81.85167
423.0181	85.35925
423.1835	91.27738
423.349	85.53371
423.5145	82.71696
423.68	84.11277
423.8454	85.79501
424.0109	86.40604
424.1763	95.30177
424.3418	97.36615
424.5072	95.75965
424.6726	94.93655
424.838	89.95055
425.0035	84.42754
425.1689	83.94735
425.3343	83.59472
425.4997	87.2415
425.6651	88.70013
425.8305	87.7895
425.9959	80.24261
426.1613	83.37665
426.3267	88.66492
426.492	92.30275
426.6574	99.1465
426.8228	94.04515
426.9881	88.0364
427.1534	80.11497
427.3188	78.20316
427.4841	80.41233
427.6495	86.68147
427.8148	81.6673
427.9801	90.74078
428.1454	86.72972
428.3107	90.01518
428.476	86.52866
428.6414	88.76821
428.8066	86.54835
428.9719	84.9808
429.1372	78.61005
429.3025	83.18552
429.4678	86.62977
429.633	80.13314
429.7983	75.84732
429.9636	71.39793
430.1288	65.35918
430.294	64.65244
430.4593	69.19082
430.6245	73.72695
430.7897	69.77805
430.955	69.91801
431.1202	63.91557
431.2854	71.63024
431.4506	86.1822
431.6158	99.57279
431.781	102.5234
431.9462	103.4843
432.1114	102.3881
432.2766	97.11205
432.4417	84.68285
432.6069	82.09523
432.772	92.33873
432.9372	101.5106
433.1024	107.2046
433.2675	106.7423
433.4326	103.4545
433.5977	104.6954
433.7629	93.9444
433.928	86.35221
434.0931	81.55211
434.2582	83.00127
434.4233	97.12346
434.5884	99.75161
434.7535	105.2548
434.9186	108.3624
435.0837	101.5405
435.2488	94.30862
435.4138	100.6709
435.5789	108.3686
435.744	106.4125
435.909	104.7434
436.0741	113.2167
436.2391	111.9385
436.4042	115.9766
436.5692	118.1591
436.7342	115.0806
436.8992	110.2133
437.0643	111.5874
437.2293	110.0744
437.3943	108.3594
437.5593	109.8633
437.7243	109.6296
437.8893	111.6099
438.0542	113.4041
438.2192	107.6979
438.3842	90.65474
438.5491	95.42372
438.7141	102.4402
438.8791	104.303
439.044	113.1998
439.209	110.1753
439.3739	116.589
439.5388	114.4609
439.7037	121.8146
439.8687	118.9042
440.0336	118.465
440.1985	114.7483
440.3634	108.7591
440.5283	104.4336
440.6932	105.6629
440.8581	113.1154
441.0229	126.7716
441.1878	130.0629
441.3527	121.7896
441.5175	118.2022
441.6824	116.5462
441.8472	128.8341
442.0121	128.5436
442.1769	124.3091
442.3418	126.4865
442.5066	125.023
442.6714	128.5389
442.8362	131.7761
443.001	128.8244
443.1659	131.4319
443.3307	127.7898
443.4955	124.1781
443.6602	120.2141
443.825	131.5992
443.9898	141.7386
444.1546	131.1576
444.3193	122.93
444.4841	126.8903
444.6488	135.2602
444.8136	134.9155
444.9783	133.5132
445.1431	136.9905
445.3078	130.051
445.4725	120.1605
445.6372	122.2746
445.802	123.8598
445.9667	122.2894
446.1314	122.1071
446.2961	125.8634
446.4608	133.3249
446.6255	133.5654
446.7901	129.5668
446.9548	131.5172
447.1195	126.5888
447.2841	136.6615
447.4488	143.2356
447.6134	139.3892
447.7781	141.05
447.9427	138.834
448.1074	134.536
448.272	132.5038
448.4366	139.7225
448.6012	143.5036
448.7658	143.4122
448.9305	141.7046
449.095	135.3932
449.2596	136.9377
449.4242	138.7494
449.5888	140.2519
449.7534	139.4486
449.9179	140.5803
450.0825	148.5164
450.2471	145.2486
450.4116	154.648
450.5762	154.8924
450.7407	150.4566
450.9052	151.6586
451.0698	151.5425
451.2343	151.5225
451.3988	151.1387
451.5633	149.1379
451.7278	147.0587
451.8923	145.7382
452.0568	147.0767
452.2213	152.1477
452.3858	148.1438
452.5503	148.9173
452.7148	138.9319
452.8792	137.6426
453.0437	136.2238
453.2081	143.761
453.3726	144.9536
453.537	144.3179
453.7015	149.9688
453.8659	150.8686
454.0303	158.0195
454.1947	158.9778
454.3592	156.322
454.5236	147.4472
454.688	148.3443
454.8524	146.1957
455.0168	143.3256
455.1811	140.8638
455.3455	148.9529
455.5099	141.5208
455.6743	145.9008
455.8386	151.9178
456.003	159.1815
456.1673	155.7132
456.3317	158.472
456.496	158.1876
456.6603	154.6098
456.8246	158.727
456.989	159.4572
457.1533	162.8061
457.3176	156.2372
457.4819	159.6936
457.6462	157.7413
457.8105	161.1615
457.9748	150.0731
458.1391	146.6324
458.3033	151.3416
458.4676	151.8428
458.6319	143.4091
458.7961	148.0033
458.9604	157.6354
459.1246	161.1901
459.2888	160.1511
459.4531	153.7659
459.6173	152.4138
459.7815	154.618
459.9457	147.6711
460.11	155.6879
460.2741	156.8728
460.4384	155.7785
460.6025	153.5545
460.7667	163.2306
460.9309	159.8536
461.0951	162.5663
461.2592	159.8088
461.4234	155.4832
461.5876	156.6601
461.7517	157.1303
461.9159	153.8955
462.08	163.4715
462.2441	167.5854
462.4082	164.1791
462.5724	155.0725
462.7365	155.1893
462.9006	158.2722
463.0647	164.7969
463.2288	169.2516
463.3929	167.3217
463.557	162.7832
463.721	158.1253
463.8851	164.285
464.0492	156.4228
464.2132	164.4741
464.3773	156.1247
464.5414	155.5269
464.7054	154.1171
464.8694	157.6172
465.0334	158.4588
465.1975	157.7827
465.3615	160.6392
465.5255	159.022
465.6895	162.0303
465.8535	163.6779
466.0175	168.6142
466.1815	168.502
466.3455	167.8866
466.5095	163.9406
466.6734	154.1003
466.8374	156.1631
467.0014	157.066
467.1653	158.8067
467.3293	160.4026
467.4932	164.1964
467.6571	162.979
467.8211	163.5225
467.985	163.2047
468.1489	157.4135
468.3128	163.7308
468.4767	164.2904
468.6406	167.7079
468.8045	171.8431
468.9684	167.3471
469.1323	164.0913
469.2962	164.3516
469.46	177.0839
469.6239	171.7353
469.7878	166.2725
469.9516	159.2198
470.1154	157.7447
470.2793	155.6883
470.4431	153.132
470.607	159.4593
470.7708	160.4581
470.9346	160.2724
471.0984	167.4253
471.2622	170.3249
471.426	168.9565
471.5898	178.9585
471.7536	173.5249
471.9174	175.3833
472.0811	179.8937
472.2449	178.2345
472.4087	174.8191
472.5724	179.7538
472.7362	171.5975
472.8999	169.5534
473.0637	168.252
473.2274	172.4714
473.3911	174.545
473.5548	169.5439
473.7185	166.4788
473.8822	174.1982
474.0459	169.401
474.2096	167.6124
474.3733	179.349
474.537	175.1427
474.7007	178.1604
474.8643	172.1151
475.028	171.6749
475.1917	177.4361
475.3553	170.3703
475.519	164.448
475.6826	170.0921
475.8463	169.6928
476.0099	172.4126
476.1735	169.2781
476.3371	170.3576
476.5007	167.7718
476.6643	167.3077
476.8279	164.5914
476.9915	172.2394
477.1551	176.8236
477.3187	179.6474
477.4823	180.8024
477.6458	181.1635
477.8094	186.4829
477.9729	182.5741
478.1365	176.6447
478.3	172.3165
478.4636	167.6367
478.6271	167.4212
478.7906	174.7891
478.9541	174.6933
479.1176	176.346
479.2812	174.5924
479.4447	176.882
479.6082	176.6123
479.7716	175.0718
479.9351	175.3453
480.0986	175.2666
480.2621	177.0053
480.4255	179.781
480.589	176.3052
480.7524	180.9843
480.9159	181.7789
481.0793	176.4352
481.2428	175.3653
481.4062	175.5165
481.5696	179.1913
481.733	176.7365
481.8964	183.1381
482.0598	184.2906
482.2232	180.4182
482.3866	172.8456
482.55	171.6366
482.7134	180.1622
482.8768	184.6348
483.0401	179.0671
483.2035	176.6323
483.3668	181.5263
483.5302	178.2663
483.6935	179.6982
483.8568	183.9457
484.0202	174.5103
484.1835	172.9397
484.3468	174.3964
484.5101	180.2404
484.6734	174.9291
484.8367	170.7108
485	177.3446
485.1633	176.1935
485.3266	175.8999
485.4899	173.8504
485.6531	166.3716
485.8164	156.5728
485.9796	146.4624
486.1429	136.067
486.3061	134.3529
486.4694	147.0122
486.6326	166.1714
486.7958	171.1956
486.959	171.4196
487.1223	166.077
487.2855	162.3837
487.4486	169.7453
487.6118	170.1634
487.775	181.9606
487.9382	183.9075
488.1014	182.9426
488.2646	180.1772
488.4277	182.9319
488.5909	174.9766
488.754	168.3165
488.9171	172.4025
489.0803	170.2569
489.2434	171.9769
489.4066	184.0584
489.5697	190.4159
489.7328	191.0339
489.8959	185.7471
490.059	189.502
490.2221	181.921
490.3852	186.2997
490.5482	187.3327
490.7113	183.2993
490.8744	183.3354
491.0374	190.7193
491.2005	182.6795
491.3636	177.2562
491.5266	182.7517
491.6896	183.5294
491.8527	173.8707
492.0157	165.9819
492.1787	168.4818
492.3417	172.5259
492.5047	181.6603
492.6677	183.5818
492.8307	186.5434
492.9937	188.7606
493.1567	189.2636
493.3196	190.7409
493.4826	192.995
493.6456	183.7922
493.8085	184.1454
493.9715	177.4836
494.1344	181.5725
494.2974	187.5151
494.4603	194.3866
494.6232	185.8593
494.7861	192.357
494.949	191.4434
495.1119	192.5026
495.2748	196.0491
495.4377	190.159
495.6006	183.7719
495.7635	174.765
495.9264	181.0369
496.0892	180.2738
496.2521	182.7209
496.4149	195.5032
496.5778	195.4975
496.7407	190.0727
496.9035	192.9886
497.0663	192.8255
497.2291	197.4184
497.3919	197.3731
497.5547	194.8566
497.7176	196.9782
497.8804	190.578
498.0432	182.5107
498.2059	182.12
498.3687	180.5291
498.5315	179.6533
498.6942	183.3709
498.857	188.9878
499.0198	187.939
499.1825	189.0124
499.3452	190.6286
499.508	196.8979
499.6707	194.0428
499.8334	192.1471
499.9962	189.5627
500.1589	185.5374
500.3216	185.5799
500.4843	179.4698
500.6469	183.7068
500.8096	184.627
500.9723	188.3689
501.135	193.721
501.2976	190.1842
501.4603	178.6911
501.623	179.295
501.7856	183.1922
501.9482	182.3201
502.1109	191.4693
502.2735	194.0299
502.4361	193.6636
502.5987	189.1691
502.7614	189.5546
502.924	188.4901
503.0865	192.221
503.2491	192.8305
503.4117	196.0688
503.5743	195.3267
503.7368	188.5347
503.8994	183.997
504.062	181.0714
504.2245	181.2957
504.3871	186.95
504.5496	196.0822
504.7121	209.2789
504.8746	200.2584
505.0372	192.2639
505.1997	196.7862
505.3622	195.4747
505.5247	193.3005
505.6872	201.6539
505.8497	205.0428
506.0121	207.3257
506.1746	206.6024
506.3371	199.0418
506.4995	199.5399
506.662	196.0588
506.8244	189.5623
506.9869	198.1522
507.1493	203.1466
507.3117	196.6449
507.4742	201.695
507.6366	198.7352
507.799	195.9219
507.9614	187.2576
508.1238	181.123
508.2862	190.7053
508.4485	194.346
508.6109	205.1332
508.7733	207.7508
508.9357	202.7864
509.098	203.4783
509.2604	211.6619
509.4227	214.0161
509.5851	213.3667
509.7474	200.0278
509.9097	194.1152
510.072	195.4611
510.2343	200.3068
510.3966	205.1165
510.5589	200.3949
510.7212	201.8121
510.8835	199.4152
511.0458	194.8336
511.2081	199.1984
511.3703	202.9337
511.5326	208.2
511.6949	210.2731
511.8571	208.7167
512.0193	211.2376
512.1816	202.0589
512.3438	199.1248
512.506	189.6945
512.6682	185.2819
512.8304	193.5415
512.9926	198.5931
513.1548	192.3644
513.317	198.1483
513.4792	198.9103
513.6414	191.931
513.8035	193.4181
513.9657	191.3274
514.1279	185.1799
514.29	187.8041
514.4521	190.0915
514.6143	196.5787
514.7764	200.8488
514.9385	200.6129
515.1006	197.8756
515.2628	195.1797
515.4249	191.4554
515.587	198.4778
515.7491	201.4393
515.9111	201.0931
516.0732	201.7011
516.2353	201.852
516.3973	196.8416
516.5594	182.8914
516.7214	171.0979
516.8835	170.7532
517.0455	168.2058
517.2076	169.8592
517.3696	165.0706
517.5316	171.9917
517.6937	191.832
517.8557	198.7119
518.0176	192.4932
518.1796	189.9767
518.3416	176.6966
518.5036	168.1946
518.6656	173.8137
518.8275	186.1185
518.9895	197.7884
519.1514	189.0291
519.3134	187.5646
519.4753	188.131
519.6373	189.5553
519.7992	193.0046
519.9611	192.7663
520.123	195.847
520.2849	202.6248
520.4468	200.8752
520.6087	190.0577
520.7706	187.3558
520.9325	189.314
521.0944	195.4509
521.2562	207.2087
521.4181	208.1674
521.58	199.147
521.7418	198.6501
521.9036	197.8708
522.0655	210.2174
522.2273	217.8742
522.3891	209.5361
522.551	203.5325
522.7128	192.5213
522.8746	195.0255
523.0363	190.724
523.1981	196.778
523.3599	199.408
523.5217	196.3239
523.6835	202.6714
523.8452	207.106
524.007	209.7829
524.1687	206.6056
524.3304	213.0714
524.4922	210.9749
524.6539	205.9904
524.8157	202.4876
524.9774	201.9705
525.1391	198.9802
525.3008	205.8537
525.4625	212.1174
525.6241	211.2671
525.7858	215.3428
525.9475	213.077
526.1092	211.4703
526.2709	199.6492
526.4325	187.1104
526.5942	189.0931
526.7558	189.879
526.9174	187.4568
527.079	185.8635
527.2407	188.7055
527.4023	199.7812
527.5639	199.9479
527.7255	205.076
527.8871	211.3579
528.0487	210.1384
528.2103	211.5145
528.3718	210.0265
528.5334	204.7081
528.695	209.5373
528.8565	217.3439
529.0181	220.0248
529.1796	220.4958
529.3412	216.6779
529.5027	210.3325
529.6642	211.0327
529.8257	205.4516
529.9872	208.5877
530.1487	208.8295
530.3102	215.1845
530.4717	219.2586
530.6332	216.9528
530.7947	227.4285
530.9562	223.1853
531.1176	219.3747
531.2791	217.8796
531.4405	214.284
531.6019	214.9879
531.7634	210.1581
531.9248	206.3522
532.0862	215.4855
532.2477	204.9827
532.4091	207.4591
532.5704	211.1929
532.7319	197.7466
532.8932	196.992
533.0546	202.0271
533.216	207.9071
533.3774	205.6928
533.5388	207.4021
533.7001	203.9369
533.8615	203.0296
534.0228	204.3183
534.1841	205.1805
534.3455	206.1636
534.5068	210.4501
534.6681	206.3412
534.8293	206.5717
534.9907	208.6255
535.152	206.3887
535.3132	212.5218
535.4745	217.5293
535.6358	220.4921
535.7971	226.5279
535.9583	225.4487
536.1196	225.5699
536.2808	216.6048
536.4421	209.0881
536.6033	209.3788
536.7645	203.5681
536.9258	197.9115
537.087	190.8821
537.2482	196.8004
537.4094	201.3435
537.5706	211.4613
537.7318	213.1113
537.8929	215.3671
538.0541	215.0982
538.2153	212.3648
538.3764	212.5193
538.5376	214.1012
538.6987	215.4217
538.8599	212.245
539.021	212.1535
539.1821	201.9946
539.3432	200.806
539.5043	200.0199
539.6655	199.6917
539.8265	205.2388
539.9876	199.1389
540.1487	196.4996
540.3098	198.3958
540.4708	195.7398
540.6319	197.3563
540.793	188.5435
540.954	193.7688
541.1151	200.3974
541.2761	199.8932
541.4371	196.28
541.5981	200.5972
541.7592	199.5915
541.9202	206.9137
542.0812	206.7464
542.2422	207.7622
542.4031	202.3923
542.5641	196.326
542.7251	202.2439
542.886	201.1559
543.0471	198.0406
543.208	199.6476
543.369	196.3661
543.5298	194.2861
543.6908	197.2623
543.8517	207.1335
544.0126	213.0887
544.1736	218.1841
544.3345	212.3523
544.4954	212.9804
544.6563	204.9384
544.8171	206.239
544.978	208.2327
545.1389	213.2096
545.2997	212.1222
545.4606	207.5253
545.6215	202.6309
545.7823	209.9997
545.9432	210.4042
546.104	203.5302
546.2648	200.4096
546.4256	204.0337
546.5864	205.0194
546.7473	207.6137
546.908	211.8906
547.0688	206.1286
547.2296	212.5241
547.3904	206.7157
547.5511	194.4494
547.7119	194.5882
547.8727	200.7641
548.0334	202.361
548.1942	209.8043
548.3549	208.12
548.5156	206.0428
548.6763	207.9808
548.837	207.4716
548.9977	206.2646
549.1584	204.3311
549.3192	212.0386
549.4798	209.7716
549.6405	207.0442
549.8011	207.0699
549.9619	214.022
550.1225	210.1002
550.2831	208.3631
550.4438	206.189
550.6044	203.7086
550.765	201.924
550.9257	205.2254
551.0863	209.7839
551.2469	206.2586
551.4075	197.0681
551.5681	204.7855
551.7287	214.5901
551.8893	221.0727
552.0498	216.2591
552.2104	219.3176
552.371	214.3207
552.5315	211.7439
552.6921	210.2426
552.8526	204.5612
553.0131	205.2153
553.1736	209.3843
553.3342	212.0804
553.4947	208.5139
553.6552	207.4017
553.8157	203.3503
553.9762	211.9908
554.1367	214.0713
554.2971	208.2883
554.4576	205.6071
554.618	206.7827
554.7785	204.6832
554.939	207.8737
555.0994	214.5829
555.2598	214.8284
555.4203	210.1068
555.5807	206.7388
555.7411	199.5912
555.9015	203.5387
556.0619	199.5934
556.2223	206.6469
556.3827	198.1369
556.5431	195.3134
556.7034	200.0299
556.8638	206.7916
557.0242	202.5472
557.1845	201.591
557.3448	203.545
557.5052	197.6322
557.6655	207.4001
557.8259	206.941
557.9861	201.8035
558.1465	195.1963
558.3068	205.1091
558.467	203.0929
558.6274	198.3503
558.7877	194.461
558.9479	187.2807
559.1082	194.8704
559.2684	190.9221
559.4287	200.3214
559.5889	203.7354
559.7491	202.2386
559.9094	198.7344
560.0696	189.9821
560.2299	196.1752
560.3901	197.15
560.5502	199.0396
560.7104	203.6954
560.8707	207.6059
561.0308	206.0636
561.191	208.4045
561.3511	206.5932
561.5114	202.8549
561.6714	195.1891
561.8316	193.9094
561.9918	203.0866
562.1519	201.3331
562.312	202.9132
562.4722	192.0224
562.6323	186.0856
562.7924	190.2749
562.9525	194.5472
563.1125	200.9162
563.2726	202.4096
563.4327	198.6879
563.5928	200.1782
563.7528	196.2932
563.9129	196.6191
564.0729	196.6725
564.233	193.5229
564.393	196.6451
564.553	201.406
564.7131	204.4737
564.873	202.1408
565.0331	199.6875
565.1931	201.4138
565.353	189.318
565.5131	193.202
565.673	195.5321
565.833	189.1861
565.9929	190.6944
566.1529	182.2262
566.3129	192.3768
566.4728	194.9369
566.6328	195.6441
566.7927	197.8287
566.9526	194.6903
567.1125	193.254
567.2724	195.783
567.4323	193.9232
567.5922	191.9117
567.7521	193.3764
567.9119	190.5426
568.0718	201.0712
568.2317	198.164
568.3915	187.1042
568.5514	189.6785
568.7112	188.3558
568.871	186.9715
569.0309	191.8858
569.1907	192.7073
569.3505	189.4673
569.5103	189.2181
569.6701	192.5486
569.8299	192.6767
569.9897	193.3886
570.1495	190.7483
570.3092	193.1694
570.469	185.0651
570.6287	190.3436
570.7885	187.1367
570.9482	184.9158
571.108	183.6309
571.2677	186.8513
571.4274	190.9105
571.5871	191.281
571.7468	196.6163
571.9066	196.7335
572.0662	197.0975
572.2259	201.9257
572.3856	199.0319
572.5452	197.5519
572.7049	190.3835
572.8646	199.6278
573.0242	201.0742
573.1838	195.1809
573.3435	193.8694
573.5031	198.6521
573.6627	202.8834
573.8223	198.7492
573.9819	196.1815
574.1415	197.1651
574.3011	195.5491
574.4607	199.145
574.6203	197.6454
574.7798	190.9512
574.9394	194.5237
575.099	197.8943
575.2585	194.4358
575.418	190.3169
575.5776	189.8748
575.7371	187.6362
575.8966	191.6926
576.0562	195.4621
576.2156	193.4131
576.3751	190.0485
576.5346	185.6235
576.6941	195.5787
576.8536	193.1196
577.0131	188.6307
577.1725	186.6056
577.332	188.555
577.4914	192.2812
577.6508	191.2274
577.8103	188.742
577.9697	186.7378
578.1291	185.7951
578.2885	181.7703
578.4479	180.5192
578.6073	186.3815
578.7667	192.0849
578.9261	191.1822
579.0854	188.4826
579.2448	190.2016
579.4042	194.994
579.5635	192.9804
579.7229	184.4541
579.8822	190.3292
580.0416	188.0499
580.2009	193.4628
580.3602	194.4867
580.5195	189.3071
580.6788	182.7664
580.8381	182.7449
580.9974	181.6168
581.1566	187.0387
581.3159	183.7547
581.4752	189.9273
581.6345	190.9786
581.7937	182.496
581.9529	187.1721
582.1122	189.6571
582.2714	187.5911
582.4306	187.9099
582.5898	189.9507
582.749	186.9523
582.9082	187.5345
583.0674	188.5667
583.2266	187.9949
583.3857	188.9748
583.5449	182.2839
583.7041	184.4966
583.8633	186.4097
584.0224	184.9306
584.1815	179.9743
584.3407	182.5536
584.4998	183.7464
584.6589	178.0302
584.818	184.2006
584.9771	179.7271
585.1362	183.3482
585.2953	179.2886
585.4544	182.2044
585.6135	174.0904
585.7725	172.3221
585.9316	183.2548
586.0906	179.4619
586.2497	180.1145
586.4087	181.8174
586.5677	179.8979
586.7267	180.6367
586.8858	179.4386
587.0448	173.8918
587.2038	180.0887
587.3628	179.4301
587.5218	180.3078
587.6807	171.9582
587.8397	172.9101
587.9987	171.7782
588.1577	169.9567
588.3166	171.7086
588.4755	172.9659
588.6345	173.9385
588.7934	171.2171
588.9523	168.824
589.1112	154.451
589.2701	154.9536
589.429	158.7372
589.5879	162.3905
589.7468	159.358
589.9056	159.9622
590.0645	164.1974
590.2234	165.5537
590.3822	168.391
590.5411	171.2975
590.6999	173.0802
590.8588	170.5712
591.0176	163.2179
591.1764	175.0574
591.3352	172.9488
591.494	169.0992
591.6528	163.8681
591.8116	168.2204
591.9703	171.3051
592.1291	175.8662
592.2878	169.9109
592.4467	168.2412
592.6053	170.1183
592.7641	161.8118
592.9229	170.4835
593.0816	176.1903
593.2403	169.557
593.399	170.7561
593.5577	163.3974
593.7164	165.0879
593.8751	172.9167
594.0338	171.09
594.1924	168.0132
594.3511	164.3711
594.5098	170.7064
594.6684	168.0319
594.8271	168.1907
594.9857	163.8873
595.1443	164.9534
595.303	168.2515
595.4615	169.2085
595.6202	164.9446
595.7787	168.9128
595.9374	172.2739
596.0959	167.3223
596.2545	166.2212
596.4131	168.735
596.5717	168.3422
596.7302	165.9625
596.8887	167.2556
597.0473	169.6587
597.2058	167.7371
597.3644	170.3454
597.5229	164.6664
597.6814	160.3007
597.8399	166.9864
597.9984	166.8651
598.1569	163.0124
598.3154	170.9159
598.4738	166.3845
598.6323	165.4135
598.7908	163.3608
598.9492	169.2902
599.1076	168.689
599.2661	172.435
599.4245	162.1905
599.5829	166.279
599.7413	167.4176
599.8997	167.6517
600.0581	158.3796
600.2165	162.9099
600.3749	162.1099
600.5333	164.0235
600.6917	166.6633
600.85	169.7412
601.0084	164.3998
601.1667	165.4147
601.325	161.614
601.4833	164.271
601.6417	165.9863
601.8	171.6114
601.9583	162.1066
602.1166	161.7725
602.2749	160.1637
602.4332	163.3951
602.5914	168.0649
602.7498	174.0317
602.908	176.3988
603.0662	172.9028
603.2245	168.7003
603.3828	173.0526
603.541	166.0989
603.6992	165.2753
603.8574	168.6726
604.0156	172.1476
604.1738	167.4415
604.332	161.545
604.4902	168.5067
604.6484	167.1911
604.8065	167.9575
604.9647	171.7796
605.1229	167.6061
605.281	164.1985
605.4391	168.5002
605.5973	168.0262
605.7554	165.1026
605.9135	170.7185
606.0717	162.1184
606.2297	158.2887
606.3878	164.8186
606.5459	164.6362
606.704	162.2776
606.8621	164.0313
607.0201	162.0789
607.1782	163.3133
607.3362	170.059
607.4943	165.5777
607.6523	164.6827
607.8104	166.3998
607.9684	157.7319
608.1264	162.2875
608.2844	163.0144
608.4424	163.7589
608.6003	160.5283
608.7584	156.1674
608.9163	160.6424
609.0743	165.6647
609.2322	160.6472
609.3902	158.0693
609.5482	163.1399
609.7061	164.0659
609.864	157.1526
610.0219	160.9781
610.1798	161.7759
610.3377	153.2859
610.4956	159.1653
610.6535	157.674
610.8114	162.3135
610.9693	159.8219
611.1271	159.2206
611.285	161.8744
611.4429	166.9749
611.6007	167.3261
611.7585	165.0614
611.9164	159.5603
612.0742	153.894
612.232	159.5533
612.3898	150.6952
612.5476	149.8806
612.7054	161.9854
612.8632	166.62
613.0209	156.7508
613.1787	155.199
613.3365	157.0014
613.4942	154.5077
613.652	152.0478
613.8097	146.5238
613.9674	145.4561
614.1252	157.4438
614.2829	158.7975
614.4406	149.909
614.5983	153.1029
614.756	160.2968
614.9136	157.3205
615.0714	147.1666
615.229	153.858
615.3867	152.1792
615.5443	150.6469
615.702	149.5526
615.8596	154.8471
616.0172	152.0134
616.1748	148.0598
616.3325	147.7822
616.4901	139.1436
616.6476	151.403
616.8052	148.5557
616.9628	147.9228
617.1204	149.5358
617.278	148.818
617.4355	150.8081
617.5931	150.6647
617.7506	153.4608
617.9081	156.4757
618.0657	148.8663
618.2232	158.8838
618.3807	156.5363
618.5382	150.4595
618.6957	152.4107
618.8532	159.7128
619.0107	150.5799
619.1682	151.7042
619.3256	150.9484
619.4831	144.3586
619.6406	150.1158
619.798	151.0704
619.9554	153.321
620.1129	150.4879
620.2703	147.1684
620.4277	156.3297
620.5851	154.7505
620.7425	145.7766
620.8998	147.8175
621.0573	146.4465
621.2146	143.2153
621.372	145.8972
621.5294	146.4523
621.6867	144.0723
621.8441	143.3429
622.0013	151.1624
622.1587	150.3338
622.316	154.9079
622.4733	148.479
622.6306	147.7935
622.7879	150.1694
622.9452	148.3075
623.1025	147.5444
623.2598	148.0325
623.4171	146.9938
623.5743	147.517
623.7316	146.8247
623.8888	146.2729
624.046	149.1744
624.2032	144.7594
624.3605	148.1473
624.5176	150.2752
624.6749	144.1287
624.8321	139.4074
624.9893	137.0692
625.1464	149.965
625.3036	141.5777
625.4608	145.1617
625.6179	144.7419
625.7751	146.5845
625.9322	143.5036
626.0894	143.5373
626.2465	148.4057
626.4036	143.2374
626.5607	144.1459
626.7178	142.0012
626.8749	147.0243
627.032	148.3944
627.189	144.3634
627.3461	143.6084
627.5032	136.9721
627.6602	137.3685
627.8173	144.7494
627.9743	136.582
628.1313	136.5833
628.2884	143.1055
628.4454	145.1352
628.6024	142.4082
628.7594	140.1395
628.9164	138.5979
629.0734	142.5515
629.2303	142.9682
629.3873	140.7467
629.5443	149.0322
629.7012	149.2536
629.8582	137.9112
630.0151	134.4563
630.172	132.9121
630.3289	140.0299
630.4858	142.3488
630.6428	145.4015
630.7996	135.0521
630.9565	135.2695
631.1134	142.4884
631.2703	144.0038
631.4272	142.2803
631.584	138.8569
631.7408	138.7356
631.8977	140.7792
632.0546	135.1109
632.2114	144.9788
632.3682	148.346
632.525	140.9715
632.6818	140.9641
632.8386	143.9492
632.9954	142.5993
633.1522	150.0906
633.3089	143.9257
633.4657	140.2369
633.6224	137.484
633.7792	139.8026
633.9359	139.1676
634.0927	142.5895
634.2494	141.6699
634.4061	142.5749
634.5628	135.6834
634.7195	137.5869
634.8762	136.056
635.0329	137.3574
635.1895	149.165
635.3462	137.9768
635.5029	141.0685
635.6595	135.8594
635.8162	144.8473
635.9728	138.7174
636.1295	140.1216
636.2861	142.3152
636.4427	133.5544
636.5992	133.6234
636.7559	143.2341
636.9124	134.6222
637.069	143.0262
637.2256	144.046
637.3821	136.9121
637.5387	137.6485
637.6953	141.2687
637.8518	133.7477
638.0084	131.4533
638.1649	131.0923
638.3214	132.0474
638.4779	137.0637
638.6344	142.4257
638.7909	136.1572
638.9474	136.973
639.1038	140.4219
639.2603	140.2277
639.4167	137.2088
639.5732	137.8505
639.7297	131.33
639.8861	130.3617
640.0425	135.8241
640.199	131.5613
640.3553	132.5903
640.5118	134.3275
640.6682	133.2757
640.8245	131.5885
640.981	134.4483
641.1373	136.5042
641.2936	138.4331
641.45	136.3811
641.6064	134.4394
641.7627	136.7398
641.9191	131.582
642.0754	134.4634
642.2317	128.3396
642.388	133.8084
642.5443	141.8554
642.7006	141.6401
642.8569	137.081
643.0131	132.3491
643.1694	132.8208
643.3257	132.2741
643.4819	134.6314
643.6382	142.3618
643.7944	140.3996
643.9506	132.7706
644.1069	135.349
644.2631	134.2039
644.4193	130.7768
644.5754	133.3743
644.7316	134.5047
644.8878	130.9816
645.044	134.1059
645.2002	132.9866
645.3563	129.6743
645.5125	139.0599
645.6686	132.1399
645.8248	128.9075
645.9809	130.9827
646.137	125.1859
646.2931	128.3468
646.4492	125.3973
646.6053	119.9152
646.7614	126.4798
646.9174	126.3246
647.0735	129.0084
647.2296	125.554
647.3856	119.649
647.5417	123.1728
647.6977	128.7038
647.8537	124.2008
648.0098	124.0794
648.1658	122.1631
648.3218	123.3134
648.4777	122.4605
648.6337	123.9019
648.7897	128.9262
648.9457	126.9464
649.1016	128.1691
649.2576	127.4592
649.4135	124.3871
649.5695	121.9252
649.7254	119.0296
649.8813	124.9342
650.0372	127.404
650.1932	123.1951
650.3491	126.5689
650.5049	134.1939
650.6608	133.3691
650.8167	123.7086
650.9725	123.9743
651.1284	116.0272
651.2842	121.416
651.4401	131.1624
651.5959	123.1217
651.7518	121.0749
651.9076	118.9285
652.0634	124.332
652.2192	129.2001
652.3749	127.6504
652.5308	124.8108
652.6865	122.8714
652.8423	118.9694
652.998	119.004
653.1538	122.8161
653.3096	125.609
653.4653	125.2214
653.621	119.7743
653.7767	124.9132
653.9324	124.0818
654.0881	129.6424
654.2438	123.9845
654.3995	118.8481
654.5552	114.2251
654.7109	117.6991
654.8665	117.6397
655.0222	122.0374
655.1778	122.5908
655.3334	122.2841
655.4891	120.8494
655.6447	117.8295
655.8003	117.6478
655.9559	113.2409
656.1115	104.7678
656.2671	98.87399
656.4227	94.53028
656.5782	98.83961
656.7338	110.1757
656.8893	109.0426
657.0449	111.1832
657.2004	109.6242
657.356	121.2222
657.5115	116.5945
657.667	121.6143
657.8225	122.4612
657.978	116.7834
658.1335	122.8476
658.289	117.1046
658.4445	125.8022
658.5999	121.9331
658.7554	120.2353
658.9108	121.3785
659.0663	119.5504
659.2217	123.8139
659.3771	117.2288
659.5325	121.464
659.6879	121.5075
659.8433	121.3179
659.9987	122.5922
660.1541	117.5464
660.3095	120.8414
660.4648	125.8828
660.6202	123.5804
660.7756	118.8287
660.9309	120.1869
661.0862	122.2683
661.2416	118.4327
661.3969	124.2031
661.5522	117.3775
661.7075	117.3613
661.8628	124.5029
662.0181	120.4236
662.1733	126.1484
662.3286	127.8119
662.4839	123.739
662.6391	124.7987
662.7944	117.8957
662.9496	120.7208
663.1048	120.0773
663.26	113.6976
663.4152	116.0071
663.5704	117.7871
663.7256	116.1173
663.8808	114.0135
664.036	120.6039
664.1912	116.8496
664.3463	119.4625
664.5015	122.4377
664.6566	120.0951
664.8118	123.5954
664.9669	122.0409
665.122	118.627
665.2771	123.214
665.4322	121.0716
665.5873	126.1851
665.7424	121.5002
665.8975	122.2627
666.0526	123.9047
666.2076	113.3527
666.3627	113.5018
666.5177	114.1712
666.6727	114.8967
666.8278	116.3997
666.9828	114.9977
667.1378	117.4009
667.2928	117.258
667.4478	117.7603
667.6028	116.431
667.7578	118.977
667.9127	117.978
668.0677	115.5951
668.2226	120.3613
668.3776	116.4198
668.5325	117.2642
668.6874	118.4419
668.8423	111.708
668.9973	116.4993
669.1522	118.4271
669.3071	119.8621
669.4619	115.6785
669.6168	113.5614
669.7717	112.4522
669.9265	118.0334
670.0814	114.8406
670.2362	115.2996
670.3911	110.5309
670.5459	119.3605
670.7007	115.422
670.8555	118.6227
671.0103	114.1446
671.1651	116.517
671.3199	113.6286
671.4747	120.0305
671.6295	103.5132
671.7842	107.6847
671.939	117.3257
672.0937	118.2813
672.2484	115.0616
672.4031	110.0369
672.5579	107.9934
672.7126	106.9328
672.8673	108.0442
673.022	114.1238
673.1767	115.724
673.3314	111.3475
673.486	118.1199
673.6407	114.3712
673.7953	109.4631
673.95	114.4184
674.1046	106.978
674.2592	108.1391
674.4138	111.8762
674.5684	111.5898
674.723	115.944
674.8776	112.1736
675.0322	109.4692
675.1868	116.7144
675.3414	113.0575
675.4959	111.3502
675.6505	109.5276
675.805	111.9593
675.9595	106.5626
676.1141	108.777
676.2686	111.1238
676.4231	112.826
676.5776	111.9444
676.7321	109.5622
676.8866	112.3168
677.041	110.746
677.1955	110.8202
677.35	107.3071
677.5044	108.836
677.6589	112.6251
677.8133	114.446
677.9677	112.283
678.1221	109.4192
678.2766	107.8516
678.4309	108.4365
678.5853	105.1618
678.7397	101.742
678.8941	106.2482
679.0485	106.0486
679.2028	109.3377
679.3571	107.9594
679.5115	105.2621
679.6658	104.5757
679.8201	108.3329
679.9744	104.8811
680.1288	107.3208
680.2831	109.066
680.4373	104.3517
680.5916	101.8794
680.7459	105.4451
680.9001	108.5793
681.0544	100.6879
681.2087	106.0307
681.3629	102.1699
681.5171	100.0232
681.6713	99.69101
681.8256	102.2446
681.9797	99.31123
682.134	100.5045
682.2881	102.6512
682.4423	105.2395
682.5965	102.7891
682.7507	98.615
682.9048	99.39729
683.059	96.44656
683.2131	99.24622
683.3672	103.1561
683.5213	103.8694
683.6754	103.5456
683.8295	101.7974
683.9836	99.63024
684.1377	96.48403
684.2918	95.33204
684.4459	96.80038
684.5999	102.9374
684.754	98.54018
684.908	102.5141
685.062	97.04185
685.2161	101.819
685.3701	100.6181
685.5241	94.3279
685.6781	95.08974
685.8321	91.99686
685.9861	96.75058
686.14	98.18309
686.294	101.9962
686.4479	95.15559
686.6019	88.89303
686.7559	87.89417
686.9098	79.30434
687.0637	75.60353
687.2176	73.89969
687.3715	78.49065
687.5254	80.66319
687.6793	84.30531
687.8332	85.76952
687.9871	91.86678
688.1409	96.68496
688.2947	93.61306
688.4486	87.66161
688.6024	83.35468
688.7563	83.24313
688.9101	85.27546
689.0639	87.93412
689.2177	86.7644
689.3715	89.40761
689.5253	83.25777
689.6791	85.68919
689.8328	88.55069
689.9866	89.01105
690.1403	88.54122
690.2941	84.42908
690.4478	81.32886
690.6015	86.30779
690.7552	88.41642
690.9089	92.58118
691.0626	87.83118
691.2164	93.44157
691.37	89.22313
691.5237	94.2961
691.6774	86.61718
691.831	89.81728
691.9847	94.38968
692.1383	88.56142
692.2919	87.2496
692.4456	86.74388
692.5992	83.437
692.7527	91.22745
692.9064	86.42794
693.0599	88.6393
693.2136	89.88571
693.3671	85.94999
693.5207	86.77493
693.6742	90.16425
693.8278	92.33617
693.9813	89.13219
694.1348	89.13817
694.2883	87.4748
694.4418	90.88661
694.5953	91.42631
694.7488	89.93118
694.9023	86.75822
695.0558	88.70111
695.2093	82.63779
695.3627	87.4699
695.5162	93.75842
695.6696	89.25037
695.8231	90.04359
695.9764	86.23112
696.1299	90.21857
696.2833	87.88746
696.4367	88.6714
696.5901	90.4919
696.7435	91.24747
696.8968	91.52745
697.0502	86.71628
697.2036	84.9132
697.3569	85.95015
697.5102	83.81622
697.6635	85.70087
697.8168	87.48584
697.9702	85.37029
698.1235	85.46127
698.2768	83.26894
698.4301	91.75352
698.5833	89.51003
698.7366	84.59025
698.8898	82.36991
699.0431	84.92462
699.1964	83.79179
699.3495	88.51595
699.5028	86.73734
699.656	81.5452
699.8092	84.75688
699.9624	87.30771
700.1156	91.13067
700.2688	84.67871
700.4219	88.08697
700.5751	87.58582
700.7283	85.15993
700.8814	84.25093
701.0345	90.67136
701.1877	82.98029
701.3408	83.87034
701.4939	80.19022
701.647	86.02716
701.8001	84.62377
701.9532	79.51856
702.1063	82.5563
702.2593	88.03912
702.4124	84.31912
702.5654	81.26746
702.7184	79.16396
702.8715	84.93301
703.0245	84.13136
703.1776	85.0986
703.3305	85.13708
703.4835	85.49382
703.6365	82.91567
703.7895	87.89546
703.9424	86.58368
704.0954	82.2919
704.2484	84.47834
704.4013	89.54513
704.5543	83.803
704.7072	86.6806
704.8601	85.46619
705.013	81.12916
705.1659	81.73863
705.3188	81.43208
705.4717	83.88712
705.6246	81.78954
705.7774	84.91157
705.9303	79.60513
706.0831	83.54581
706.236	83.51797
706.3888	86.21098
706.5416	89.17561
706.6944	78.65913
706.8472	81.23661
707	87.84547
707.1528	87.9424
707.3056	84.42616
707.4583	84.79153
707.6111	80.24439
707.7639	85.19342
707.9166	81.0593
708.0693	84.42104
708.222	84.43772
708.3748	83.70544
708.5275	83.83254
708.6802	83.16139
708.8328	79.99294
708.9855	82.43204
709.1382	87.70965
709.2909	80.58271
709.4435	83.25881
709.5962	87.52122
709.7488	84.61452
709.9014	86.90549
710.054	89.26544
710.2067	84.07932
710.3593	78.30087
710.5118	81.8833
710.6644	92.15914
710.817	86.57977
710.9695	77.31031
711.1221	81.51785
711.2747	77.54179
711.4272	79.55624
711.5797	81.66106
711.7322	82.35251
711.8848	83.4548
712.0373	77.08408
712.1898	78.59853
712.3422	82.90923
712.4948	84.78937
712.6472	82.87582
712.7996	80.69488
712.9521	77.87753
713.1046	83.8887
713.257	78.80196
713.4094	81.17484
713.5618	83.31549
713.7142	79.23756
713.8666	80.9127
714.019	88.08885
714.1714	84.44077
714.3237	77.53701
714.4761	73.44738
714.6285	73.5864
714.7808	82.82655
714.9331	81.73589
715.0854	79.94446
715.2378	79.36499
715.3901	82.45996
715.5424	75.42467
715.6947	74.77048
715.8469	74.77377
715.9992	81.30109
716.1515	83.8466
716.3037	76.50362
716.456	76.43696
716.6082	74.57253
716.7604	72.861
716.9127	70.07731
717.0649	70.48225
717.2171	70.39286
717.3693	67.07298
717.5214	67.37308
717.6736	63.84123
717.8258	70.91955
717.978	71.58973
718.1301	66.5011
718.2822	72.04952
718.4344	68.84123
718.5865	65.22813
718.7386	66.64732
718.8907	66.27544
719.0428	65.78037
719.1949	67.35313
719.3469	63.9778
719.499	63.52319
719.6511	62.84841
719.8031	62.92752
719.9551	62.78929
720.1072	65.27786
720.2592	66.78029
720.4112	63.66355
720.5632	62.15181
720.7152	67.58114
720.8672	65.54497
721.0192	72.70631
721.1711	76.08628
721.3231	71.4412
721.475	71.02224
721.627	74.71103
721.7789	76.94131
721.9308	74.11109
722.0828	71.66624
722.2347	73.79214
722.3866	72.0388
722.5385	73.14062
722.6903	70.47424
722.8422	65.07504
722.9941	72.62072
723.1459	71.48195
723.2977	67.39411
723.4496	66.35897
723.6014	65.50067
723.7532	64.00895
723.905	70.24819
724.0568	69.12709
724.2086	61.26072
724.3604	61.77103
724.5121	62.82594
724.6639	68.17411
724.8157	66.69881
724.9674	72.43491
725.1191	71.57224
725.2709	70.39181
725.4226	62.42199
725.5743	64.75301
725.726	70.76878
725.8777	69.90472
726.0294	69.93253
726.181	68.57294
726.3327	67.06055
726.4844	64.80128
726.636	68.61929
726.7877	67.69047
726.9393	69.37392
727.0909	69.39034
727.2425	67.29329
727.3941	64.32086
727.5457	66.02879
727.6973	62.66811
727.8488	62.38983
728.0004	67.04501
728.1519	66.48883
728.3035	69.00936
728.455	69.15026
728.6066	66.20953
728.7581	66.91892
728.9095	61.29929
729.0611	64.24597
729.2126	65.81892
729.364	68.8484
729.5155	62.17866
729.667	65.6441
729.8184	71.31928
729.9698	71.64513
730.1213	66.42846
730.2727	65.70327
730.4241	63.78691
730.5756	66.91313
730.7269	66.78691
730.8784	68.92919
731.0297	66.80449
731.1811	68.89833
731.3325	65.85276
731.4838	69.1935
731.6351	65.43459
731.7865	64.72217
731.9378	67.09783
732.0891	60.54668
732.2404	69.90131
732.3917	70.28114
732.543	70.67337
732.6943	70.22939
732.8456	71.00522
732.9968	67.87394
733.1481	62.57491
733.2993	64.93591
733.4506	67.501
733.6018	71.42149
733.753	70.05714
733.9042	68.56884
734.0554	66.67285
734.2066	70.64928
734.3578	67.47433
734.509	68.15376
734.6602	70.09236
734.8113	73.18236
734.9624	66.19247
735.1136	70.11914
735.2647	66.52031
735.4158	68.24999
735.5669	68.38859
735.718	68.47018
735.8691	64.82815
736.0201	65.10658
736.1713	62.31086
736.3223	70.00576
736.4733	72.62625
736.6244	70.53365
736.7755	68.34566
736.9265	63.73955
737.0775	65.20099
737.2285	69.3233
737.3795	68.70314
737.5305	68.46474
737.6815	68.38668
737.8324	65.09825
737.9834	69.96067
738.1343	62.96714
738.2853	66.9861
738.4362	76.79319
738.5871	69.74509
738.738	61.6396
738.8889	65.02726
739.0399	68.58417
739.1907	66.06834
739.3416	66.69713
739.4925	73.57528
739.6433	62.81695
739.7942	67.56345
739.945	69.04388
740.0958	66.72394
740.2467	66.32838
740.3975	62.87885
740.5483	68.21658
740.6991	69.46529
740.8499	63.94357
741.0007	68.15426
741.1514	70.15833
741.3022	68.43175
741.4529	63.16171
741.6036	65.29194
741.7544	69.01969
741.9051	67.12227
742.0558	67.60918
742.2065	69.44508
742.3572	57.85077
742.5079	68.20933
742.6586	72.08677
742.8093	68.02398
742.9599	67.56689
743.1105	68.362
743.2612	65.20632
743.4118	65.6339
743.5624	63.22942
743.7131	64.34701
743.8636	65.58055
744.0142	68.46321
744.1648	64.53989
744.3154	64.33649
744.4659	63.46604
744.6165	65.90868
744.767	64.16777
744.9176	63.00604
745.0681	62.62658
745.2186	61.84677
745.3691	60.21743
745.5197	64.08617
745.6702	63.19868
745.8206	62.05045
745.9711	64.82492
746.1215	66.71121
746.272	63.39388
746.4224	62.60901
746.5729	62.92598
746.7233	65.34166
746.8737	65.63931
747.0241	61.54514
747.1745	62.2095
747.3249	63.64981
747.4753	66.52917
747.6257	64.0698
747.776	62.87278
747.9264	62.59907
748.0767	62.15752
748.2271	64.61663
748.3774	64.60396
748.5276	65.12609
748.678	63.41587
748.8282	59.71298
748.9786	59.57758
749.1288	56.14547
749.2791	59.74765
749.4294	60.16603
749.5796	64.60686
749.7299	65.55287
749.8801	65.58979
750.0303	60.03889
750.1805	58.52129
750.3307	59.90788
750.4809	58.64071
750.6311	62.5753
750.7813	61.89634
750.9314	58.89301
751.0816	56.67129
751.2318	62.47489
751.3818	63.73491
751.532	69.98171
751.6821	67.2865
751.8322	60.63108
751.9823	66.00884
752.1324	62.92392
752.2825	62.32834
752.4326	58.48171
752.5826	62.26512
752.7327	59.45616
752.8827	63.4912
753.0327	57.44247
753.1827	57.15624
753.3328	59.48043
753.4828	61.13292
753.6328	59.67702
753.7828	57.58677
753.9327	57.63301
754.0827	60.75488
754.2327	59.13235
754.3826	59.24366
754.5325	59.55729
754.6825	64.23893
754.8324	60.22296
754.9823	54.26051
755.1322	53.19593
755.2821	56.36189
755.432	60.40232
755.5818	59.24818
755.7318	50.11147
755.8816	58.11498
756.0314	57.5799
756.1813	59.69262
756.3311	60.54339
756.4809	56.57516
756.6307	54.04329
756.7805	59.94073
756.9303	60.2411
757.0801	57.44378
757.2299	49.04741
757.3796	56.02875
757.5294	52.66559
757.6791	54.61098
757.8289	56.28101
757.9786	52.28925
758.1283	53.51156
758.278	57.34879
758.4277	54.25798
758.5773	57.61589
758.7271	54.2688
758.8767	51.45116
759.0264	53.17429
759.176	57.46491
759.3256	52.6581
759.4753	41.86441
759.6249	33.98247
759.7745	34.58804
759.9241	29.44289
760.0737	31.61619
760.2233	31.88552
760.3729	30.3618
760.5224	27.90495
760.6719	29.81781
760.8215	31.12792
760.971	28.04278
761.1205	29.86387
761.2701	32.93107
761.4196	35.80952
761.5691	36.30043
761.7186	39.69698
761.868	43.22737
762.0175	46.17644
762.167	51.13513
762.3164	42.60146
762.4659	39.29676
762.6153	35.76279
762.7647	35.93231
762.9141	34.23605
763.0635	36.88216
763.2129	36.439
763.3623	35.89293
763.5117	35.20791
763.661	39.04252
763.8104	36.65723
763.9597	40.83158
764.1091	35.77927
764.2584	39.11081
764.4077	37.85593
764.557	37.80584
764.7063	32.29633
764.8556	37.35117
765.0049	42.43234
765.1541	44.17175
765.3034	43.67401
765.4526	40.85839
765.6019	42.52338
765.7511	41.14112
765.9003	43.258
766.0496	39.29718
766.1987	39.76789
766.348	41.97067
766.4971	48.39101
766.6463	45.57178
766.7955	46.02723
766.9446	46.29261
767.0938	49.86338
767.2429	49.85919
767.392	47.51121
767.5411	47.62656
767.6902	50.895
767.8394	49.18152
767.9884	47.02289
768.1375	49.33517
768.2866	47.00548
768.4356	44.60087
768.5847	46.28531
768.7337	45.33425
768.8828	49.74765
769.0317	49.45591
769.1808	49.85498
769.3298	49.42037
769.4788	49.95982
769.6277	48.19972
769.7767	45.99266
769.9257	44.85532
770.0746	47.82404
770.2236	49.3926
770.3725	48.61028
770.5214	43.13668
770.6703	42.10929
770.8193	46.77471
770.9681	48.40051
771.1171	48.20107
771.2659	45.87119
771.4148	46.64296
771.5637	49.46794
771.7125	41.84325
771.8613	46.43462
772.0101	48.34967
772.159	42.30138
772.3078	44.07116
772.4566	46.27155
772.6054	46.86333
772.7542	48.11358
772.903	49.92212
773.0517	47.91514
773.2004	46.06897
773.3492	44.51798
773.4979	41.65017
773.6467	46.38459
773.7953	48.49062
773.944	52.96643
774.0928	44.96888
774.2415	43.62929
774.3901	44.52927
774.5388	46.71607
774.6874	48.64146
774.8361	48.61651
774.9847	47.11198
775.1334	44.0387
775.282	46.29721
775.4305	49.64466
775.5792	42.84659
775.7277	46.03085
775.8763	43.68178
776.0249	41.56728
776.1735	48.01915
776.322	42.19178
776.4705	41.02134
776.6191	46.31188
776.7676	47.90915
776.9161	49.63429
777.0646	44.23608
777.2131	46.8535
777.3616	44.06878
777.5101	46.73801
777.6585	45.79957
777.8069	41.63739
777.9554	37.14167
778.1038	42.86382
778.2523	40.78753
778.4007	40.87001
778.5491	41.99484
778.6974	34.12196
778.8459	39.65386
778.9942	43.96238
779.1426	40.70638
779.291	48.07736
779.4393	46.05268
779.5876	44.28715
779.736	41.25951
779.8843	42.30303
780.0326	40.80855
780.1809	44.13047
780.3292	36.88831
780.4775	42.58429
780.6257	41.31184
780.774	46.63505
780.9222	44.35427
781.0704	39.60408
781.2187	37.70481
781.3669	48.27757
781.5151	43.90874
781.6633	41.36977
781.8115	46.38076
781.9597	38.97193
782.1078	38.88803
782.256	42.17571
782.4042	43.20243
782.5523	41.1792
782.7004	41.20247
782.8486	44.64833
782.9967	39.98929
783.1448	41.19518
783.2929	41.91695
783.441	42.43849
783.5891	45.19784
783.7371	40.78632
783.8851	45.34553
784.0332	39.50565
784.1812	41.20622
784.3293	42.11943
784.4773	37.34027
784.6253	37.15229
784.7733	35.10665
784.9213	35.34771
785.0692	32.90108
785.2172	40.1804
785.3652	37.26203
785.5131	39.88657
785.6611	39.84963
785.809	42.32572
785.9569	40.4586
786.1048	38.70972
786.2527	43.07815
786.4006	41.40631
786.5485	35.36322
786.6964	35.51311
786.8442	38.43071
786.9921	35.19242
787.1399	37.41364
787.2877	41.77749
787.4355	42.33018
787.5833	44.89077
787.7311	38.37024
787.8789	38.00237
788.0267	42.03042
788.1745	37.16529
788.3223	35.96021
788.47	38.61184
788.6177	43.71053
788.7654	39.07196
788.9132	34.13995
789.0609	41.99335
789.2086	43.42537
789.3563	37.5837
789.504	39.76098
789.6517	36.13494
789.7993	39.90324
789.947	36.40331
790.0946	38.63292
790.2422	34.3853
790.3898	38.94015
790.5375	37.92304
790.6851	38.53508
790.8326	35.89746
790.9802	34.86938
791.1278	40.69217
791.2754	41.07769
791.423	37.25677
791.5705	33.02034
791.718	35.70452
791.8655	40.36128
792.0131	41.7231
792.1606	39.21455
792.308	36.36786
792.4556	35.40016
792.603	34.60157
792.7505	37.44166
792.8979	37.62655
793.0454	33.26885
793.1928	33.41977
793.3403	31.8364
793.4877	33.93405
793.6351	37.3515
793.7825	37.08257
793.9299	40.06257
794.0772	36.36229
794.2246	36.90892
794.3719	37.01952
794.5193	35.87262
794.6666	35.83591
794.814	37.13507
794.9613	34.32876
795.1086	33.4189
795.2559	37.81969
795.4032	35.86036
795.5505	31.98154
795.6978	30.5395
795.845	40.27414
795.9922	34.43598
796.1395	35.30043
796.2867	33.4758
796.4339	35.96379
796.5811	37.79406
796.7283	34.97788
796.8755	35.03446
797.0227	35.81007
797.1699	29.68756
797.317	35.82295
797.4642	33.08444
797.6113	34.75508
797.7584	36.40982
797.9056	38.47158
798.0527	33.71021
798.1998	30.8737
798.3469	33.09915
798.494	36.98533
798.641	34.69756
798.7881	36.31803
798.9351	37.17245
799.0822	34.95142
799.2292	36.1903
799.3762	36.43696
799.5232	33.30989
799.6702	32.50296
799.8172	33.9188
799.9642	31.10652
800.1111	36.57969
800.2581	32.57112
800.4051	32.39768
800.552	28.96788
800.6989	30.40403
800.8458	34.63267
800.9927	33.71306
801.1396	37.42045
801.2866	30.31168
801.4334	32.61258
801.5803	34.49865
801.7272	33.00462
801.874	29.22761
802.0209	33.35832
802.1677	30.38733
802.3145	31.0157
802.4613	28.3519
802.6081	31.26534
802.7549	30.20049
802.9017	29.17875
803.0485	29.1435
803.1952	30.46271
803.342	35.01682
803.4887	35.05217
803.6354	30.45663
803.7822	33.37239
803.9289	31.65598
804.0756	32.91542
804.2223	33.04226
804.369	35.52813
804.5156	28.20918
804.6623	28.55739
804.8089	31.31717
804.9556	28.03733
805.1022	29.92324
805.2488	32.52828
805.3954	34.2843
805.542	31.36744
805.6886	29.90161
805.8352	27.8073
805.9818	29.32201
806.1283	29.8304
806.2749	32.84646
806.4214	35.51786
806.5679	33.44869
806.7145	30.65484
806.861	33.40544
807.0074	30.97915
807.154	30.49505
807.3004	27.17616
807.4469	30.148
807.5934	31.93347
807.7398	32.14954
807.8862	30.21332
808.0327	32.94297
808.1791	29.58929
808.3255	29.84071
808.4719	32.04423
808.6183	30.59502
808.7647	28.21428
808.9111	26.64279
809.0574	29.55685
809.2037	25.89419
809.3501	31.8741
809.4965	28.14152
809.6428	30.8536
809.7891	28.48989
809.9354	24.7525
810.0817	23.54847
810.2279	23.53205
810.3742	29.62925
810.5204	27.52072
810.6667	29.7277
810.8129	31.02924
810.9592	26.84837
811.1054	27.5161
811.2516	27.67161
811.3978	28.09121
811.5439	28.2634
811.6901	26.40328
811.8363	29.31899
811.9825	27.39409
812.1286	30.14235
812.2748	33.61478
812.4209	29.85456
812.567	24.97246
812.7131	27.21318
812.8592	31.31531
813.0053	29.82979
813.1514	22.84936
813.2974	26.15594
813.4435	27.00521
813.5895	25.17208
813.7356	26.05699
813.8816	24.16802
814.0276	26.8083
814.1736	26.60124
814.3196	23.46169
814.4656	21.34133
814.6116	25.73535
814.7576	27.15826
814.9035	22.80634
815.0494	21.53065
815.1954	28.56463
815.3413	26.36217
815.4872	23.32869
815.6331	20.9726
815.779	23.66782
815.9249	30.39895
816.0707	24.51533
816.2166	23.54941
816.3625	22.7612
816.5083	25.39245
816.6542	27.84474
816.8	27.73683
816.9458	21.80317
817.0916	27.72125
817.2374	27.17975
817.3832	22.4683
817.5289	24.42497
817.6747	24.27984
817.8204	17.26529
817.9662	24.47288
818.1119	25.76467
818.2576	28.08617
818.4034	21.12155
818.5491	26.30692
818.6948	22.07306
818.8405	25.54745
818.9861	29.2514
819.1318	28.31611
819.2774	26.22383
819.423	24.96513
819.5687	25.41364
819.7143	24.8065
819.8599	23.31688
820.0055	22.60959
820.1511	22.72874
820.2967	27.68035
820.4422	27.34639
820.5878	27.78822
820.7333	29.35833
820.8788	23.76779
821.0244	28.07211
821.1699	25.11214
821.3154	23.17044
821.4609	19.27803
821.6064	26.84774
821.7519	23.23144
821.8973	23.83372
822.0428	26.91949
822.1882	25.38496
822.3337	19.18997
822.4791	18.63343
822.6245	18.86591
822.7699	20.28332
822.9153	20.3462
823.0607	18.70852
823.2061	19.90654
823.3514	16.17957
823.4968	13.04316
823.6422	17.52151
823.7875	22.74722
823.9328	22.6741
824.0781	18.80809
824.2234	20.98294
824.3687	18.29797
824.514	18.63891
824.6592	22.42295
824.8045	27.17377
824.9498	27.02764
825.095	22.81436
825.2402	22.1273
825.3854	19.71178
825.5306	26.93489
825.6758	18.46258
825.821	19.2793
825.9662	22.84468
826.1114	23.90051
826.2565	24.3882
826.4017	17.64727
826.5468	21.46655
826.692	22.96824
826.837	21.68891
826.9822	24.94523
827.1273	24.48948
827.2723	20.4254
827.4174	18.08245
827.5625	22.89959
827.7075	19.51364
827.8526	24.73078
827.9976	20.84753
828.1426	20.42142
828.2877	22.41943
828.4327	22.28144
828.5776	23.13304
828.7227	22.77772
828.8676	21.97056
829.0126	24.01519
829.1575	21.78943
829.3024	21.26973
829.4474	21.71172
829.5923	18.45294
829.7372	18.29178
829.8821	21.14237
830.027	24.65509
830.1719	21.85579
830.3168	20.55659
830.4616	20.17821
830.6064	22.2117
830.7513	18.45256
830.8961	19.7142
831.041	12.53205
831.1857	15.91823
831.3306	21.5631
831.4753	22.26879
831.6201	16.45769
831.7649	24.94563
831.9096	25.79234
832.0544	21.26076
832.1991	23.31903
832.3438	17.78296
832.4885	19.61975
832.6332	20.52259
832.778	18.00285
832.9226	20.95264
833.0673	22.50852
833.2119	17.18306
833.3566	22.47774
833.5012	21.59797
833.6459	20.10909
833.7905	23.06854
833.9351	23.05776
834.0797	24.58348
834.2243	22.61636
834.3688	24.92365
834.5134	22.43762
834.658	24.66593
834.8026	22.16989
834.9471	25.14622
835.0916	20.75396
835.2361	23.58862
835.3806	26.1561
835.5251	23.81167
835.6696	19.01731
835.8141	22.82646
835.9586	22.37475
836.103	21.93364
836.2474	22.84813
836.3918	21.99109
836.5363	18.47413
836.6807	19.79822
836.8251	20.87713
836.9695	17.50917
837.1138	21.80839
837.2582	23.6058
837.4026	22.05756
837.5469	19.90223
837.6913	23.63093
837.8356	24.19189
837.9799	20.45148
838.1242	20.90083
838.2686	20.24306
838.4128	23.08389
838.5571	20.78806
838.7014	17.25994
838.8456	20.05773
838.9899	25.51085
839.1341	21.92155
839.2783	18.66319
839.4225	19.11877
839.5667	24.49723
839.7109	21.85945
839.8551	15.42195
839.9993	18.5636
840.1434	25.91236
840.2876	22.56729
840.4317	17.18973
840.5759	23.51538
840.72	21.11672
840.8641	18.18414
841.0082	17.40456
841.1523	13.43478
841.2963	21.64707
841.4404	18.65552
841.5845	18.28993
841.7285	19.88286
841.8726	19.43597
842.0165	22.70739
842.1606	17.08302
842.3046	17.00609
842.4485	15.58699
842.5925	13.86088
842.7365	16.47394
842.8805	20.18576
843.0244	22.48682
843.1684	20.83103
843.3123	20.49675
843.4562	22.10413
843.6002	21.97595
843.744	20.62487
843.8879	21.41267
844.0318	24.12576
844.1757	21.94727
844.3195	21.12847
844.4634	19.13344
844.6072	17.816
844.751	18.90583
844.8948	16.86497
845.0386	22.63815
845.1824	18.47609
845.3262	20.34508
845.47	17.9688
845.6138	17.2525
845.7575	22.57838
845.9012	20.70701
846.045	21.27716
846.1887	18.0288
846.3324	18.67424
846.4761	20.44181
846.6198	20.81503
846.7635	18.77889
846.9071	18.23538
847.0508	18.94839
847.1944	21.20818
847.3381	21.09208
847.4817	20.32957
847.6253	18.62547
847.7689	15.80221
847.9125	19.36893
848.0561	12.93087
848.1996	18.17434
848.3432	23.98482
848.4868	19.80083
848.6303	20.00929
848.7738	20.4657
848.9174	17.41427
849.0609	21.14342
849.2043	20.51917
849.3478	20.42116
849.4913	20.31842
849.6348	20.91292
849.7782	14.88972
849.9217	19.43206
850.0651	19.80113
850.2086	16.85402
850.3519	17.10266
850.4954	20.46681
850.6387	21.22309
850.7821	18.35005
850.9255	14.93499
851.0688	17.53092
851.2122	20.88836
851.3555	18.41962
851.4988	17.99723
851.6422	14.82273
851.7855	17.40487
851.9288	18.19219
852.0721	22.06921
852.2153	19.44519
852.3586	13.70509
852.5018	18.08575
852.6451	15.18522
852.7883	14.73351
852.9315	18.16739
853.0748	15.72777
853.218	17.99488
853.3611	19.09631
853.5043	18.77468
853.6475	18.13622
853.7906	18.39229
853.9338	11.6189
854.0769	12.80386
854.22	14.05507
854.3632	15.24706
854.5063	9.843755
854.6494	12.28255
854.7924	15.96838
854.9355	18.71107
855.0786	20.22771
855.2216	19.83715
855.3647	15.36905
855.5077	16.26612
855.6507	20.03862
855.7937	15.44241
855.9367	15.55742
856.0797	18.67706
856.2227	19.48735
856.3657	18.49616
856.5086	19.11006
856.6516	17.51918
856.7945	11.70004
856.9374	15.45634
857.0803	19.32029
857.2232	19.83758
857.3661	15.34273
857.509	14.56342
857.6519	15.27392
857.7947	18.93136
857.9376	17.98035
858.0804	17.89633
858.2232	15.85873
858.366	16.28436
858.5089	20.91003
858.6516	15.49141
858.7944	14.64325
858.9372	17.86669
859.08	17.45668
859.2227	16.11706
859.3654	15.83886
859.5082	16.25283
859.6509	18.52104
859.7936	9.626221
859.9363	18.17394
860.079	20.51221
860.2217	14.00245
860.3643	11.94149
860.507	15.61389
860.6496	13.26073
860.7922	16.93198
860.9349	13.35861
861.0775	15.14583
861.2201	17.54177
861.3627	18.351
861.5052	12.45133
861.6478	11.4629
861.7904	16.52147
861.9329	19.98248
862.0755	14.79416
862.218	15.14034
862.3605	14.11521
862.503	18.72399
862.6455	14.36544
862.788	16.45028
862.9305	19.87435
863.0729	15.11018
863.2154	22.44722
863.3578	21.63054
863.5002	17.10233
863.6426	15.90767
863.7851	17.3052
863.9275	18.09869
864.0698	18.2982
864.2122	14.98392
864.3546	18.10776
864.4969	13.44627
864.6393	16.77822
864.7816	15.25805
864.924	9.05861
865.0662	13.89242
865.2086	14.21655
865.3508	9.302035
865.4931	12.89376
865.6354	17.53439
865.7776	13.56486
865.9199	17.63557
866.0621	13.49514
866.2043	17.31134
866.3466	14.94771
866.4888	13.57484
866.6309	11.48453
866.7731	16.81815
866.9153	14.76385
867.0574	18.04063
867.1996	16.10635
867.3417	14.30554
867.4839	16.53836
867.626	12.95392
867.7681	14.82599
867.9102	15.06996
868.0522	18.93361
868.1943	15.65348
868.3364	17.70883
868.4785	14.69432
868.6205	12.22638
868.7625	16.12756
868.9045	14.50619
869.0465	16.85456
869.1885	12.45032
869.3305	14.39019
869.4725	13.028
869.6144	14.57152
869.7564	12.23133
869.8983	11.24054
870.0403	11.17706
870.1822	12.81553
870.3241	16.92458
870.466	17.06639
870.6079	14.83759
870.7498	17.5722
870.8916	16.2177
871.0335	11.82387
871.1754	15.04132
871.3171	12.60142
871.459	14.06425
871.6008	11.70847
871.7426	14.62103
871.8844	10.45016
872.0262	13.93726
872.1679	15.39404
872.3097	16.15215
872.4514	13.29611
872.5931	18.2007
872.7349	18.14981
872.8766	13.97217
873.0183	16.39419
873.16	13.58602
873.3017	10.42759
873.4434	14.23918
873.585	17.93015
873.7266	16.01085
873.8683	10.44126
874.0099	15.84554
874.1516	17.22102
874.2932	14.86055
874.4348	18.6603
874.5763	13.92506
874.7179	9.735029
874.8594	10.92376
875.001	10.02824
875.1425	14.81788
875.2841	11.68387
875.4256	12.91554
875.5671	18.75508
875.7086	14.65357
875.85	10.98902
875.9915	11.63781
876.133	12.58702
876.2744	11.51372
876.4159	11.71551
876.5573	16.55154
876.6987	12.1763
876.8401	10.88204
876.9815	10.94966
877.1229	14.38063
877.2643	16.79117
877.4056	13.06302
877.547	12.67624
877.6884	12.78658
877.8297	13.75948
877.971	13.70674
878.1123	13.42105
878.2536	17.55951
878.3949	15.42158
878.5362	14.90355
878.6774	10.79392
878.8187	16.13569
878.9599	15.32938
879.1011	11.45106
879.2424	10.48676
879.3836	10.78832
879.5248	15.63888
879.666	9.968925
879.8071	14.23915
879.9483	14.31524
880.0895	13.22548
880.2306	13.23092
880.3718	10.62518
880.5129	12.20855
880.654	13.28112
880.7951	15.9579
880.9362	16.30246
881.0773	17.03342
881.2183	14.13022
881.3594	11.46235
881.5004	11.92494
881.6414	9.495763
881.7825	8.380508
881.9235	14.94806
882.0645	14.51036
882.2054	12.82108
882.3464	12.89926
882.4874	5.248229
882.6284	13.14915
882.7693	15.87798
882.9103	13.53274
883.0512	12.30615
883.1921	15.02966
883.333	12.21276
883.4739	11.99892
883.6147	9.494399
883.7556	9.042587
883.8965	7.130695
884.0374	10.22505
884.1782	12.40912
884.319	11.27298
884.4598	11.924
884.6006	11.75196
884.7414	10.55206
884.8822	9.749817
885.0229	13.3873
885.1637	14.68629
885.3044	10.81886
885.4452	13.18136
885.5859	20.37587
885.7266	19.34248
885.8673	13.77363
886.008	9.140083
886.1487	10.516
886.2894	10.6199
886.43	11.93305
886.5707	13.76265
886.7113	10.59611
886.8519	7.85222
886.9926	10.23219
887.1331	10.34424
887.2737	10.86764
887.4143	13.50611
887.5549	15.94723
887.6954	14.12455
887.836	10.18588
887.9765	9.960156
888.1171	12.74388
888.2576	12.06444
888.3981	11.98033
888.5386	12.29868
888.679	11.44182
888.8195	9.471684
888.96	7.225875
889.1004	7.068476
889.2408	10.47848
889.3813	15.40419
889.5217	12.47671
889.6621	9.297054
889.8025	15.26496
889.9429	12.90123
890.0833	12.78435
890.2236	12.79136
890.364	9.795485
890.5043	12.94784
890.6446	10.79236
890.7849	14.76046
890.9252	10.3757
891.0655	9.853715
891.2058	10.77848
891.3461	14.79567
891.4863	11.38818
891.6266	10.03355
891.7668	13.85455
891.907	14.39735
892.0472	9.729088
892.1874	8.706151
892.3276	9.700781
892.4678	7.852471
892.608	8.479218
892.7481	11.66156
892.8883	9.289627
893.0284	9.593904
893.1685	11.28345
893.3087	9.281904
893.4487	15.17417
893.5889	11.16967
893.7289	10.99234
893.869	14.92293
894.009	3.806408
894.1491	11.37051
894.2891	10.40424
894.4291	8.015353
894.5692	10.3795
894.7092	13.33427
894.8491	8.26984
894.9891	8.008664
895.1291	10.2039
895.269	14.26066
895.409	9.534781
895.549	9.276567
895.6888	9.151519
895.8288	13.57197
895.9687	9.995211
896.1086	7.78547
896.2484	7.213744
896.3883	7.886278
896.5281	11.22864
896.668	11.64439
896.8079	3.62578
896.9476	7.164741
897.0875	13.67532
897.2272	13.07617
897.3671	12.35872
897.5068	8.821799
897.6466	11.12787
897.7864	7.505694
897.9261	3.689354
898.0658	9.185682
898.2056	10.06649
898.3453	10.46446
898.4849	12.60639
898.6246	5.182361
898.7643	7.929776
898.904	11.31577
899.0436	8.930009
899.1833	11.47458
899.3229	9.451179
899.4625	6.602735
899.6021	9.189395
899.7417	10.44833
899.8813	7.768187
900.0209	9.257699
900.1605	7.513723
900.3	7.794509
900.4395	11.26367
900.579	5.784389
900.7186	4.5747
900.8581	8.021537
900.9976	7.696701
901.1371	6.882473
901.2766	12.00024
901.416	10.88174
901.5555	8.124893
901.6949	5.549185
901.8344	5.591145
901.9738	9.985523
902.1132	9.464448
902.2526	7.874176
902.3919	11.7184
902.5313	7.717529
902.6707	8.776721
