SPECTRUM DATA FILE
SpectrumCount:	1
PixelCount:	3648
UserName:	ToughBook User
SampleName:	
LightSource:	
Comments:	
DeviceName:	Qwave
DeviceManufacturer:	Broadcom
DeviceSerialNo:	11311

Name:	last spectrum
Date:	2024-05-02T14:33:01.1046536+02:00
ExposureTime:	0.02
TemporalAvg:	1
IntensityUnit:	normalizedCounts
CCDLoadLevel:	0.7210623
Temperature:	30.51813
DiagramColor:	200
ProcessingSteps:	335

Wavelength [nm]	Intensity1
334.421	144.2778
334.5891	151.3699
334.7573	149.549
334.9254	146.7025
335.0935	151.7555
335.2616	160.8012
335.4297	164.1428
335.5978	152.7963
335.7659	139.7925
335.934	124.6857
336.1021	115.0884
336.2701	127.6487
336.4382	137.6987
336.6063	144.3787
336.7744	127.3281
336.9424	122.6274
337.1105	120.5926
337.2785	131.3118
337.4466	146.7554
337.6146	152.0607
337.7827	151.4224
337.9507	147.41
338.1187	144.7719
338.2867	154.5304
338.4548	160.3194
338.6228	157.6872
338.7908	157.8928
338.9588	151.9025
339.1268	146.2686
339.2948	155.2947
339.4628	164.5546
339.6308	175.361
339.7988	181.1185
339.9667	181.7303
340.1347	183.5773
340.3027	180.3085
340.4707	173.4969
340.6386	165.3033
340.8066	158.0327
340.9745	160.4756
341.1425	165.6294
341.3104	164.4663
341.4784	164.8571
341.6463	172.8595
341.8142	182.6381
341.9821	186.6054
342.1501	186.7298
342.318	184.323
342.4859	174.3793
342.6538	183.2464
342.8217	192.7978
342.9896	193.1788
343.1575	202.3703
343.3254	196.7956
343.4933	182.1558
343.6612	176.4889
343.829	160.4655
343.9969	149.2335
344.1648	134.2419
344.3326	143.9374
344.5005	152.2849
344.6683	169.6879
344.8362	180.2282
345.004	192.8903
345.1719	189.8634
345.3397	195.4838
345.5075	191.6817
345.6754	185.525
345.8432	177.6045
346.011	178.428
346.1788	179.2854
346.3466	187.6589
346.5144	193.983
346.6822	199.8261
346.85	203.6963
347.0178	202.2833
347.1856	200.0302
347.3534	183.5746
347.5211	177.3584
347.6889	184.26
347.8567	191.1973
348.0244	200.0675
348.1922	197.0795
348.3599	204.7782
348.5277	199.7304
348.6954	201.6423
348.8632	192.5257
349.0309	183.9142
349.1986	181.5522
349.3663	186.4406
349.5341	193.8587
349.7018	202.868
349.8695	216.6955
350.0372	239.8562
350.2049	253.3756
350.3726	255.0741
350.5403	243.0509
350.7079	234.3177
350.8756	229.687
351.0433	223.4742
351.211	221.7625
351.3786	224.614
351.5463	235.3413
351.714	252.1506
351.8816	250.9209
352.0493	238.9588
352.2169	214.0695
352.3846	196.9658
352.5522	207.4291
352.7198	224.1152
352.8875	245.7699
353.0551	249.6059
353.2227	259.5806
353.3903	263.6312
353.5579	269.61
353.7255	275.8461
353.8931	280.9681
354.0607	282.4522
354.2283	285.8151
354.3958	286.1606
354.5634	282.2162
354.731	281.2238
354.8986	277.8866
355.0661	276.8204
355.2337	265.6221
355.4012	264.7624
355.5688	256.6815
355.7363	262.3126
355.9039	264.5923
356.0714	260.9914
356.239	259.538
356.4065	246.5077
356.574	216.6224
356.7415	210.103
356.909	197.6063
357.0765	205.8921
357.244	221.7121
357.4115	236.7131
357.579	241.6339
357.7465	227.1467
357.914	208.1662
358.0815	186.1703
358.249	168.118
358.4164	170.1422
358.5839	179.755
358.7513	200.6707
358.9188	241.5415
359.0862	272.3154
359.2537	285.7957
359.4211	302.9192
359.5886	310.9235
359.756	323.3464
359.9234	328.523
360.0909	322.146
360.2583	298.5352
360.4257	273.4745
360.5931	267.3086
360.7605	259.1443
360.9279	248.6248
361.0953	258.2298
361.2627	273.0968
361.4301	284.2827
361.5974	270.2156
361.7648	261.2217
361.9322	258.0192
362.0995	274.2334
362.2669	306.0211
362.4343	332.5716
362.6016	355.4745
362.769	352.3369
362.9363	327.0459
363.1036	295.547
363.271	279.2818
363.4383	283.9689
363.6056	313.6976
363.7729	334.964
363.9402	347.9634
364.1075	353.7875
364.2748	330.9644
364.4421	319.2494
364.6094	302.8768
364.7767	300.3696
364.944	311.8188
365.1113	335.8161
365.2786	364.8371
365.4458	393.1343
365.6131	406.9427
365.7803	413.4715
365.9476	415.3254
366.1148	417.8259
366.2821	415.5214
366.4493	406.3102
366.6166	390.0365
366.7838	389.7854
366.951	387.3185
367.1182	407.7589
367.2855	418.9676
367.4527	416.1206
367.6199	389.6284
367.7871	374.442
367.9543	360.2491
368.1215	364.6328
368.2886	374.4924
368.4558	380.0433
368.623	370.252
368.7902	381.3043
368.9573	399.226
369.1245	423.1859
369.2917	447.7658
369.4588	443.7769
369.6259	443.2382
369.7931	462.4735
369.9602	475.6594
370.1274	462.3951
370.2945	426.7803
370.4616	392.8245
370.6287	378.2304
370.7958	381.1716
370.963	401.4861
371.1301	460.2
371.2971	503.1699
371.4643	513.4996
371.6313	486.2979
371.7984	433.5544
371.9655	370.9366
372.1326	340.2964
372.2997	362.4571
372.4667	423.8443
372.6338	453.0237
372.8008	449.0446
372.9679	435.0067
373.1349	395.1708
373.3019	349.3434
373.469	308.5337
373.636	303.2368
373.803	349.4692
373.9701	401.7941
374.1371	437.9397
374.3041	404.4528
374.4711	364.3251
374.6381	330.6686
374.8051	319.9341
374.9721	347.1976
375.1391	405.5653
375.3061	477.2105
375.473	507.9381
375.64	493.5603
375.8069	454.4488
375.9739	428.5565
376.1409	434.0196
376.3078	442.8516
376.4748	446.2037
376.6417	445.3946
376.8087	463.5488
376.9756	483.4264
377.1425	507.212
377.3094	538.2996
377.4763	572.871
377.6432	587.5762
377.8102	605.9149
377.9771	619.4772
378.144	630.8822
378.3109	622.1014
378.4777	606.4895
378.6446	555.4495
378.8115	519.6233
378.9784	494.5844
379.1452	489.5544
379.3121	494.2994
379.4789	470.8883
379.6458	450.4135
379.8127	456.48
379.9795	486.8428
380.1463	541.5046
380.3131	592.2647
380.48	603.8812
380.6468	600.968
380.8136	603.8162
380.9804	609.0536
381.1472	590.425
381.314	536.4026
381.4808	487.0833
381.6476	466.752
381.8144	455.8232
381.9812	439.6127
382.148	435.6984
382.3147	413.5168
382.4815	395.9249
382.6483	363.4109
382.815	354.9462
382.9818	359.9433
383.1485	357.4632
383.3153	355.7012
383.482	353.8345
383.6487	357.3382
383.8155	360.4905
383.9822	385.3431
384.1489	442.2316
384.3156	513.0549
384.4823	570.8779
384.649	577.6235
384.8157	579.7462
384.9824	565.074
385.1491	561.5889
385.3158	563.5898
385.4825	536.5026
385.6491	500.1673
385.8158	467.5179
385.9825	466.7109
386.1491	512.3577
386.3157	572.2391
386.4824	598.6431
386.649	594.0438
386.8157	553.1525
386.9823	509.8536
387.1489	496.9663
387.3156	524.4621
387.4821	577.8481
387.6488	587.3468
387.8154	569.2995
387.982	528.3433
388.1486	522.8672
388.3152	524.8236
388.4818	528.0779
388.6483	524.3387
388.8149	517.7529
388.9815	570.2529
389.148	634.2194
389.3146	681.0361
389.4811	701.4993
389.6477	707.0284
389.8142	702.2291
389.9808	700.9484
390.1473	683.8963
390.3138	654.9578
390.4804	657.7924
390.6469	669.3513
390.8134	717.4416
390.9799	783.4659
391.1464	818.2386
391.3129	820.2006
391.4794	810.1725
391.6459	776.8369
391.8124	749.9741
391.9789	706.404
392.1453	666.8885
392.3118	647.1568
392.4782	635.6323
392.6447	571.1936
392.8112	471.4228
392.9776	377.3877
393.144	294.2986
393.3105	253.4363
393.4769	264.1971
393.6433	328.2133
393.8098	432.0495
393.9762	524.9774
394.1426	579.0361
394.309	612.9955
394.4754	673.3235
394.6418	741.8526
394.8082	792.6326
394.9746	834.569
395.141	851.5361
395.3073	863.3511
395.4737	855.6644
395.64	846.0547
395.8064	839.564
395.9728	785.2665
396.1391	686.6087
396.3055	585.4762
396.4718	479.1623
396.6381	384.998
396.8045	322.2649
396.9708	332.9809
397.1371	415.7791
397.3034	548.9769
397.4697	666.1781
397.636	769.7484
397.8023	872.6032
397.9686	953.0667
398.1349	1000.232
398.3012	995.8918
398.4675	995.5869
398.6337	1024.243
398.8	1065.822
398.9662	1082.37
399.1325	1106.987
399.2988	1113.628
399.465	1109.176
399.6313	1096.205
399.7975	1090.58
399.9637	1128.794
400.1299	1180.415
400.2961	1168.887
400.4624	1105.112
400.6286	1092.391
400.7948	1112.749
400.961	1172.26
401.1272	1216.015
401.2934	1224.157
401.4595	1230.312
401.6257	1232.61
401.7919	1234.199
401.9581	1229.769
402.1242	1251.617
402.2904	1255.761
402.4565	1260.897
402.6227	1258.921
402.7888	1257.458
402.955	1218.918
403.1211	1150.567
403.2872	1119.987
403.4533	1167.593
403.6194	1247.669
403.7856	1307.926
403.9517	1326.373
404.1177	1313.001
404.2838	1235.141
404.4499	1139.225
404.616	1099.372
404.7821	1171.266
404.9482	1280.518
405.1142	1338.782
405.2803	1328.446
405.4464	1275.719
405.6124	1239.936
405.7784	1225.916
405.9445	1239.519
406.1105	1251.085
406.2766	1200.787
406.4426	1169.652
406.6086	1208.763
406.7746	1292.26
406.9406	1321.248
407.1066	1299.671
407.2726	1295.022
407.4386	1295.296
407.6046	1263.107
407.7706	1257.357
407.9366	1291.275
408.1025	1384.489
408.2685	1418.248
408.4344	1411.136
408.6004	1431.89
408.7664	1494.725
408.9323	1524.294
409.0983	1525.396
409.2642	1481.172
409.4301	1435.954
409.596	1382.859
409.762	1328.099
409.9279	1244.087
410.0938	1159.947
410.2597	1138.939
410.4256	1231.616
410.5915	1351.915
410.7574	1428.205
410.9232	1452.838
411.0891	1475.545
411.255	1511.854
411.4209	1551.64
411.5867	1580.077
411.7526	1584.613
411.9184	1535.748
412.0843	1530.541
412.2501	1548.716
412.4159	1555.283
412.5818	1534.62
412.7476	1529.555
412.9134	1494.723
413.0792	1453.418
413.245	1424.037
413.4108	1431.016
413.5766	1505.892
413.7424	1596.583
413.9082	1638.444
414.074	1606.52
414.2397	1516.968
414.4055	1472.632
414.5713	1497.144
414.737	1562.104
414.9028	1578.254
415.0685	1560.667
415.2343	1543.976
415.4	1523.868
415.5658	1507.787
415.7315	1521.041
415.8972	1568.56
416.0629	1638.491
416.2286	1697.784
416.3943	1708.81
416.56	1672.447
416.7257	1635.888
416.8914	1609.638
417.0571	1577.396
417.2228	1527.765
417.3884	1492.589
417.5541	1510.55
417.7198	1544.631
417.8854	1588.762
418.0511	1589.978
418.2167	1579.829
418.3824	1587.848
418.548	1579.097
418.7136	1567.984
418.8792	1586.611
419.0449	1646.476
419.2105	1710.865
419.3761	1723.328
419.5417	1681.401
419.7073	1595.925
419.8729	1518.495
420.0385	1522.481
420.204	1574.601
420.3696	1646.359
420.5352	1720.909
420.7007	1793.59
420.8663	1827.41
421.0319	1842.846
421.1974	1843.368
421.3629	1827.758
421.5285	1767.991
421.694	1743.543
421.8595	1794.279
422.0251	1851.978
422.1906	1822.392
422.3561	1702.088
422.5216	1509.058
422.6871	1423.741
422.8526	1539.935
423.0181	1737.549
423.1835	1867.831
423.349	1806.093
423.5145	1723.859
423.68	1693.625
423.8454	1698.18
424.0109	1753.04
424.1763	1811.404
424.3418	1852.831
424.5072	1848.765
424.6726	1797.099
424.838	1716.477
425.0035	1656.146
425.1689	1703.263
425.3343	1750.902
425.4997	1779.714
425.6651	1786.133
425.8305	1740.108
425.9959	1675.918
426.1613	1695.594
426.3267	1791.939
426.492	1888.389
426.6574	1892.796
426.8228	1817.78
426.9881	1669.487
427.1534	1543.016
427.3188	1509.786
427.4841	1594.34
427.6495	1737.561
427.8148	1827.159
427.9801	1821.564
428.1454	1793.073
428.3107	1770.064
428.476	1759.131
428.6414	1720.114
428.8066	1646.271
428.9719	1612.893
429.1372	1629.399
429.3025	1692.321
429.4678	1702.926
429.633	1607.508
429.7983	1464.401
429.9636	1318.651
430.1288	1264.011
430.294	1271.709
430.4593	1303.775
430.6245	1283.903
430.7897	1233.25
430.955	1212.631
431.1202	1287.976
431.2854	1486.592
431.4506	1742.807
431.6158	1997.566
431.781	2150.72
431.9462	2181.638
432.1114	2064.331
432.2766	1871.8
432.4417	1668.97
432.6069	1621.313
432.772	1811.159
432.9372	2015.083
433.1024	2119.603
433.2675	2135.164
433.4326	2109.992
433.5977	2011.18
433.7629	1802.474
433.928	1592.844
434.0931	1535.092
434.2582	1665.953
434.4233	1862.77
434.5884	2016.86
434.7535	2115.819
434.9186	2142.807
435.0837	2046.553
435.2488	1990.288
435.4138	1976.417
435.5789	2080.907
435.744	2158.403
435.909	2183.102
436.0741	2228.305
436.2391	2279.581
436.4042	2321.992
436.5692	2312.642
436.7342	2259.051
436.8992	2222.226
437.0643	2180.594
437.2293	2144.012
437.3943	2082.619
437.5593	2063.834
437.7243	2119.381
437.8893	2175.754
438.0542	2132.405
438.2192	1923.256
438.3842	1733.719
438.5491	1748.682
438.7141	1922.859
438.8791	2050.367
439.044	2077.139
439.209	2113.193
439.3739	2154.286
439.5388	2202.361
439.7037	2257.641
439.8687	2243.46
440.0336	2216.441
440.1985	2168.35
440.3634	2060.401
440.5283	2048.731
440.6932	2058.235
440.8581	2179.037
441.0229	2319.001
441.1878	2406.737
441.3527	2385.076
441.5175	2299.63
441.6824	2272.167
441.8472	2381.498
442.0121	2482.299
442.1769	2456.485
442.3418	2407.709
442.5066	2395.324
442.6714	2417.894
442.8362	2454.667
443.001	2444.619
443.1659	2427.052
443.3307	2357.394
443.4955	2330.078
443.6602	2379.89
443.825	2473.978
443.9898	2525.848
444.1546	2462.844
444.3193	2414.655
444.4841	2467.538
444.6488	2545.386
444.8136	2576.552
444.9783	2551.291
445.1431	2528.588
445.3078	2444.306
445.4725	2334.101
445.6372	2257.001
445.802	2246.604
445.9667	2279.173
446.1314	2315.038
446.2961	2401.058
446.4608	2490.623
446.6255	2543.054
446.7901	2506.393
446.9548	2499.72
447.1195	2530.319
447.2841	2623.207
447.4488	2712.221
447.6134	2751.867
447.7781	2748.652
447.9427	2658.746
448.1074	2550.643
448.272	2535.081
448.4366	2654.449
448.6012	2752.157
448.7658	2748.727
448.9305	2672.715
449.095	2651.74
449.2596	2662.891
449.4242	2683.233
449.5888	2693.603
449.7534	2727.333
449.9179	2794.705
450.0825	2820.448
450.2471	2862.542
450.4116	2931.295
450.5762	2997.906
450.7407	2989.435
450.9052	2975.103
451.0698	2954.978
451.2343	2929.279
451.3988	2876.875
451.5633	2859.092
451.7278	2852.352
451.8923	2859.961
452.0568	2895.001
452.2213	2887.538
452.3858	2810.941
452.5503	2728.226
452.7148	2621.921
452.8792	2525.344
453.0437	2560.35
453.2081	2613.169
453.3726	2645.954
453.537	2667.823
453.7015	2759.283
453.8659	2869.773
454.0303	2896.685
454.1947	2864.922
454.3592	2841.971
454.5236	2824.378
454.688	2795.819
454.8524	2711.925
455.0168	2710.349
455.1811	2750.043
455.3455	2750.607
455.5099	2753.352
455.6743	2825.872
455.8386	2899.866
456.003	2964.795
456.1673	2972.481
456.3317	2896.224
456.496	2824.776
456.6603	2849.538
456.8246	2909.877
456.989	2935.696
457.1533	2897.73
457.3176	2926.472
457.4819	2974.228
457.6462	3000.546
457.8105	2944.497
457.9748	2839.719
458.1391	2755.907
458.3033	2735.904
458.4676	2744.621
458.6319	2800.957
458.7961	2861.801
458.9604	2921.864
459.1246	2891.855
459.2888	2829.745
459.4531	2806.812
459.6173	2830.167
459.7815	2808.873
459.9457	2829.505
460.11	2832.079
460.2741	2872.735
460.4384	2868.504
460.6025	2907.006
460.7667	2945.452
460.9309	3001.979
461.0951	2994.688
461.2592	2952.816
461.4234	2944.874
461.5876	2958.183
461.7517	2954.655
461.9159	2950.537
462.08	2966.958
462.2441	3026.802
462.4082	3020.022
462.5724	3010.149
462.7365	3031.306
462.9006	3044.889
463.0647	3051.872
463.2288	3023.748
463.3929	3026.547
463.557	2975.025
463.721	2942.719
463.8851	2956.396
464.0492	2956.941
464.2132	2989.803
464.3773	2980.447
464.5414	2912.286
464.7054	2854.826
464.8694	2839.579
465.0334	2905.642
465.1975	3006.321
465.3615	3003.206
465.5255	2979.372
465.6895	2991.572
465.8535	3079.84
466.0175	3145.299
466.1815	3116.469
466.3455	3033.626
466.5095	2938.368
466.6734	2811.942
466.8374	2776.344
467.0014	2855.021
467.1653	2985.653
467.3293	3050.167
467.4932	3080.22
467.6571	3103.771
467.8211	3056.399
467.985	2998.04
468.1489	2986.142
468.3128	3037.526
468.4767	3110.541
468.6406	3140.628
468.8045	3112.615
468.9684	3082.259
469.1323	3091.217
469.2962	3103.667
469.46	3136.147
469.6239	3146.315
469.7878	3113.812
469.9516	3030.917
470.1154	2919.719
470.2793	2883.682
470.4431	2914.418
470.607	2961.429
470.7708	2979.715
470.9346	2978.868
471.0984	3028.816
471.2622	3070.314
471.426	3075.153
471.5898	3091.285
471.7536	3181.179
471.9174	3253.191
472.0811	3273.822
472.2449	3255.967
472.4087	3241.884
472.5724	3207.591
472.7362	3128.589
472.8999	3046.968
473.0637	2998.71
473.2274	3046.734
473.3911	3089.124
473.5548	3083.509
473.7185	3087.119
473.8822	3125.646
474.0459	3155.141
474.2096	3166.309
474.3733	3181.476
474.537	3219.498
474.7007	3222.977
474.8643	3224.167
475.028	3210.476
475.1917	3171.679
475.3553	3106.551
475.519	3053.995
475.6826	3071.326
475.8463	3123.587
476.0099	3133.113
476.1735	3099.182
476.3371	3020.748
476.5007	2947.204
476.6643	2959.446
476.8279	3030.603
476.9915	3112.129
477.1551	3134.135
477.3187	3145.53
477.4823	3185.447
477.6458	3227.219
477.8094	3252.006
477.9729	3255.254
478.1365	3227.347
478.3	3189.17
478.4636	3126.69
478.6271	3095.724
478.7906	3085.713
478.9541	3064.394
479.1176	3108.841
479.2812	3180.682
479.4447	3245.421
479.6082	3274.295
479.7716	3248.187
479.9351	3155.615
480.0986	3141.212
480.2621	3171.912
480.4255	3188.646
480.589	3170.841
480.7524	3134.736
480.9159	3124.589
481.0793	3131.624
481.2428	3147.971
481.4062	3195.988
481.5696	3246.292
481.733	3262.491
481.8964	3256.458
482.0598	3234.33
482.2232	3191.707
482.3866	3133.945
482.55	3147.424
482.7134	3192.886
482.8768	3203.098
483.0401	3186.523
483.2035	3154.334
483.3668	3173.092
483.5302	3203.819
483.6935	3196.402
483.8568	3142.977
484.0202	3091.554
484.1835	3071.482
484.3468	3099.21
484.5101	3146.3
484.6734	3186.873
484.8367	3186.204
485	3141.904
485.1633	3130.903
485.3266	3070.114
485.4899	2964.013
485.6531	2841.55
485.8164	2701.067
485.9796	2458.379
486.1429	2262.795
486.3061	2304.7
486.4694	2532.476
486.6326	2795.445
486.7958	2920.799
486.959	2909.718
487.1223	2824.485
487.2855	2833.131
487.4486	2910.164
487.6118	3008.092
487.775	3048.397
487.9382	3094.966
488.1014	3157.328
488.2646	3159.983
488.4277	3084.301
488.5909	3010.44
488.754	2930.324
488.9171	2898.83
489.0803	2863.259
489.2434	2913.886
489.4066	3089.149
489.5697	3268.045
489.7328	3312.231
489.8959	3293.592
490.059	3255.837
490.2221	3195.38
490.3852	3174.368
490.5482	3192.087
490.7113	3192.392
490.8744	3133.748
491.0374	3051.358
491.2005	3029.868
491.3636	3127.396
491.5266	3197.298
491.6896	3107.958
491.8527	2913.225
492.0157	2750.965
492.1787	2743.305
492.3417	2880.675
492.5047	2999.609
492.6677	3099.092
492.8307	3199.284
492.9937	3223.902
493.1567	3199.002
493.3196	3121.115
493.4826	3051.332
493.6456	3020.182
493.8085	2970.413
493.9715	2948.018
494.1344	3050.737
494.2974	3188.251
494.4603	3212.616
494.6232	3220.795
494.7861	3215.221
494.949	3253.822
495.1119	3263.7
495.2748	3215.787
495.4377	3169.834
495.6006	3035.244
495.7635	2928.031
495.9264	2975.219
496.0892	3128.256
496.2521	3265.103
496.4149	3256.644
496.5778	3194.998
496.7407	3136.822
496.9035	3120.818
497.0663	3152.662
497.2291	3196.349
497.3919	3259.977
497.5547	3267.704
497.7176	3231.402
497.8804	3154.986
498.0432	3058.035
498.2059	2955.247
498.3687	2884.247
498.5315	2893.535
498.6942	3057.671
498.857	3178.688
499.0198	3197.79
499.1825	3160.884
499.3452	3181.779
499.508	3196.302
499.6707	3194.586
499.8334	3177.8
499.9962	3114.184
500.1589	3048.833
500.3216	3014.689
500.4843	2983.736
500.6469	2962.615
500.8096	3028.394
500.9723	3083.868
501.135	3085.654
501.2976	2997.722
501.4603	2949.524
501.623	2949.34
501.7856	2969.181
501.9482	3002.672
502.1109	3049.053
502.2735	3095.079
502.4361	3131.006
502.5987	3125.574
502.7614	3134.709
502.924	3157.603
503.0865	3219.222
503.2491	3283.838
503.4117	3275.191
503.5743	3177.012
503.7368	3082.632
503.8994	2983.766
504.062	2910.875
504.2245	2917.434
504.3871	3083.773
504.5496	3244.371
504.7121	3275.742
504.8746	3196.74
505.0372	3133.368
505.1997	3135.265
505.3622	3207.636
505.5247	3270.183
505.6872	3334.782
505.8497	3349.925
506.0121	3350.106
506.1746	3362.191
506.3371	3349.424
506.4995	3264.686
506.662	3197.577
506.8244	3172.852
506.9869	3192.931
507.1493	3205.943
507.3117	3192.026
507.4742	3176.845
507.6366	3196.852
507.799	3129.239
507.9614	3042.447
508.1238	2976.837
508.2862	3016.219
508.4485	3121.464
508.6109	3191.688
508.7733	3241.626
508.9357	3251.564
509.098	3257.3
509.2604	3287.496
509.4227	3286.741
509.5851	3203.704
509.7474	3071.429
509.9097	3006.686
510.072	3042.784
510.2343	3148.715
510.3966	3196.778
510.5589	3155.606
510.7212	3084.703
510.8835	3030.628
511.0458	3052.544
511.2081	3116.899
511.3703	3171.689
511.5326	3219.729
511.6949	3208.974
511.8571	3220.718
512.0193	3189.522
512.1816	3125.471
512.3438	3035.049
512.506	2958.283
512.6682	2957.014
512.8304	2955.32
512.9926	2973.634
513.1548	2984.582
513.317	2996.748
513.4792	3019.382
513.6414	2981.043
513.8035	2915.14
513.9657	2851.198
514.1279	2842.164
514.29	2867.096
514.4521	2919.548
514.6143	2929.644
514.7764	2933.175
514.9385	2937.701
515.1006	2944.481
515.2628	2941.078
515.4249	2934.161
515.587	2973.078
515.7491	3029.94
515.9111	3024.522
516.0732	2995.55
516.2353	2939.445
516.3973	2823.087
516.5594	2635.197
516.7214	2427.179
516.8835	2319.371
517.0455	2349.638
517.2076	2343.953
517.3696	2396.646
517.5316	2601.71
517.6937	2858.43
517.8557	2977.632
518.0176	2925.249
518.1796	2694.149
518.3416	2416.966
518.5036	2366.064
518.6656	2562.978
518.8275	2801.531
518.9895	2860.871
519.1514	2830.132
519.3134	2825.927
519.4753	2820.938
519.6373	2871.751
519.7992	2922.62
519.9611	2975.877
520.123	3002.638
520.2849	2986.846
520.4468	2895.919
520.6087	2814.651
520.7706	2788.353
520.9325	2853.409
521.0944	2946.701
521.2562	3018.172
521.4181	3011.019
521.58	2938.468
521.7418	2932.004
521.9036	2997.105
522.0655	3057.628
522.2273	3063.935
522.3891	3003.167
522.551	2862.601
522.7128	2767.448
522.8746	2794.774
523.0363	2877.769
523.1981	2929.219
523.3599	2906.42
523.5217	2933.047
523.6835	3020.212
523.8452	3117.67
524.007	3164.568
524.1687	3138.767
524.3304	3128.326
524.4922	3118.394
524.6539	3092.653
524.8157	3067.728
524.9774	3035.866
525.1391	3051.337
525.3008	3047.204
525.4625	3058.721
525.6241	3093.246
525.7858	3146.7
525.9475	3158.276
526.1092	3044.937
526.2709	2878.728
526.4325	2723.663
526.5942	2655.329
526.7558	2624.083
526.9174	2617.423
527.079	2638.757
527.2407	2741.419
527.4023	2848.032
527.5639	2920.594
527.7255	3007.087
527.8871	3072.167
528.0487	3052.057
528.2103	2986.687
528.3718	2975.511
528.5334	3021.529
528.695	3113.639
528.8565	3206.438
529.0181	3245.462
529.1796	3231.065
529.3412	3175.565
529.5027	3123.233
529.6642	3022.975
529.8257	2953.831
529.9872	2934.13
530.1487	2992.541
530.3102	3062.437
530.4717	3103.317
530.6332	3133.031
530.7947	3149.785
530.9562	3150.976
531.1176	3160.119
531.2791	3138.693
531.4405	3106.129
531.6019	3059.955
531.7634	3056.791
531.9248	3058.675
532.0862	3047.214
532.2477	2987.859
532.4091	2891.943
532.5704	2810.438
532.7319	2727.165
532.8932	2680.55
533.0546	2739.376
533.216	2885.991
533.3774	2962.881
533.5388	2988.615
533.7001	2988.872
533.8615	2935.926
534.0228	2848.186
534.1841	2817.516
534.3455	2875.156
534.5068	2922.459
534.6681	2920.698
534.8293	2891.824
534.9907	2890.972
535.152	2919.499
535.3132	2964.309
535.4745	3009.166
535.6358	3019.242
535.7971	3059.138
535.9583	3014.823
536.1196	2965.854
536.2808	2909.513
536.4421	2844.567
536.6033	2803.291
536.7645	2783.076
536.9258	2722.401
537.087	2672.619
537.2482	2696.312
537.4094	2797.961
537.5706	2899.912
537.7318	2922.517
537.8929	2882.75
538.0541	2858.737
538.2153	2827.6
538.3764	2814.413
538.5376	2833.143
538.6987	2867.124
538.8599	2846.402
539.021	2798.926
539.1821	2767.844
539.3432	2746.579
539.5043	2717.264
539.6655	2696.294
539.8265	2686.662
539.9876	2696.86
540.1487	2707.655
540.3098	2684.611
540.4708	2601.678
540.6319	2572.059
540.793	2593.741
540.954	2641.708
541.1151	2673.417
541.2761	2698.754
541.4371	2733.455
541.5981	2747.534
541.7592	2773.558
541.9202	2792.879
542.0812	2759.155
542.2422	2710.371
542.4031	2692.009
542.5641	2709.29
542.7251	2720.556
542.886	2712.793
543.0471	2686.667
543.208	2662.032
543.369	2674.226
543.5298	2666.115
543.6908	2694.882
543.8517	2758.161
544.0126	2817.989
544.1736	2840.493
544.3345	2787.091
544.4954	2713.263
544.6563	2654.564
544.8171	2675.823
544.978	2735.654
545.1389	2796.391
545.2997	2804.627
545.4606	2718.395
545.6215	2673.403
545.7823	2726.136
545.9432	2778.719
546.104	2774.318
546.2648	2716.743
546.4256	2681.414
546.5864	2693.801
546.7473	2746.414
546.908	2788.107
547.0688	2792.141
547.2296	2760.815
547.3904	2713.678
547.5511	2653.525
547.7119	2603.889
547.8727	2606.129
548.0334	2648.845
548.1942	2666.382
548.3549	2705.07
548.5156	2742.177
548.6763	2753.734
548.837	2725.672
548.9977	2726.71
549.1584	2754.525
549.3192	2759.113
549.4798	2735.625
549.6405	2728.679
549.8011	2733.306
549.9619	2743.215
550.1225	2733.523
550.2831	2708.454
550.4438	2711.47
550.6044	2680.077
550.765	2694.852
550.9257	2699.467
551.0863	2690.451
551.2469	2671.122
551.4075	2683.04
551.5681	2711.044
551.7287	2728.938
551.8893	2751.09
552.0498	2754.536
552.2104	2755.339
552.371	2745.913
552.5315	2682.753
552.6921	2626.629
552.8526	2583.336
553.0131	2601.791
553.1736	2644.232
553.3342	2665.664
553.4947	2655.529
553.6552	2655.498
553.8157	2659.939
553.9762	2681.552
554.1367	2680.584
554.2971	2660.259
554.4576	2652.866
554.618	2660.454
554.7785	2668.974
554.939	2661.276
555.0994	2671.587
555.2598	2680.626
555.4203	2638.179
555.5807	2619.966
555.7411	2593.273
555.9015	2598.256
556.0619	2593.528
556.2223	2567.649
556.3827	2553.209
556.5431	2547.756
556.7034	2534.446
556.8638	2508.774
557.0242	2487.093
557.1845	2477.166
557.3448	2482.119
557.5052	2490.634
557.6655	2524.082
557.8259	2541.388
557.9861	2528.898
558.1465	2531.291
558.3068	2515.785
558.467	2463.109
558.6274	2401.817
558.7877	2326.111
558.9479	2310.456
559.1082	2355.327
559.2684	2398.665
559.4287	2397.273
559.5889	2402.01
559.7491	2416.048
559.9094	2411.34
560.0696	2370.017
560.2299	2354.335
560.3901	2381.288
560.5502	2444.309
560.7104	2498.966
560.8707	2518.489
561.0308	2522.835
561.191	2502.273
561.3511	2437.791
561.5114	2369.146
561.6714	2319.784
561.8316	2331.174
561.9918	2393.651
562.1519	2417.926
562.312	2407.185
562.4722	2382.929
562.6323	2372.705
562.7924	2418.088
562.9525	2434.703
563.1125	2442.973
563.2726	2458.705
563.4327	2434.813
563.5928	2381.255
563.7528	2360.536
563.9129	2351.845
564.0729	2350.119
564.233	2355.953
564.393	2364.38
564.553	2382.505
564.7131	2406.092
564.873	2405.769
565.0331	2389.016
565.1931	2391.009
565.353	2358.988
565.5131	2335.473
565.673	2303.004
565.833	2253.853
565.9929	2244.262
566.1529	2237.053
566.3129	2287.615
566.4728	2316.499
566.6328	2336.071
566.7927	2337.492
566.9526	2330.762
567.1125	2349.761
567.2724	2373.162
567.4323	2382.28
567.5922	2378.099
567.7521	2355.676
567.9119	2349.839
568.0718	2336.718
568.2317	2292.231
568.3915	2277.043
568.5514	2258.833
568.7112	2253.399
568.871	2249.283
569.0309	2258.654
569.1907	2291.68
569.3505	2304.073
569.5103	2309.064
569.6701	2303.898
569.8299	2302.453
569.9897	2278.329
570.1495	2261.997
570.3092	2256.908
570.469	2245.369
570.6287	2203.422
570.7885	2159.377
570.9482	2146.376
571.108	2133.155
571.2677	2165.69
571.4274	2237.031
571.5871	2248.691
571.7468	2253.658
571.9066	2268.567
572.0662	2283.985
572.2259	2303.176
572.3856	2316.047
572.5452	2299.856
572.7049	2284.938
572.8646	2268.691
573.0242	2273.834
573.1838	2273.408
573.3435	2283.421
573.5031	2286.717
573.6627	2287.434
573.8223	2289.569
573.9819	2284.944
574.1415	2270.701
574.3011	2261.621
574.4607	2267.134
574.6203	2247.092
574.7798	2240.003
574.9394	2226.583
575.099	2204.005
575.2585	2175.431
575.418	2147.611
575.5776	2151.324
575.7371	2178.682
575.8966	2210.693
576.0562	2219.074
576.2156	2182.547
576.3751	2185.883
576.5346	2212.156
576.6941	2226.202
576.8536	2234.903
577.0131	2224.644
577.1725	2201.383
577.332	2187.701
577.4914	2194.416
577.6508	2189.54
577.8103	2173.491
577.9697	2143.986
578.1291	2113.679
578.2885	2094.628
578.4479	2088.882
578.6073	2101.672
578.7667	2110.37
578.9261	2122.11
579.0854	2124.217
579.2448	2120.358
579.4042	2130.22
579.5635	2126.714
579.7229	2119.295
579.8822	2125.553
580.0416	2136.634
580.2009	2145.076
580.3602	2123.765
580.5195	2113.363
580.6788	2102.187
580.8381	2104.584
580.9974	2107.27
581.1566	2122.27
581.3159	2092.001
581.4752	2082.457
581.6345	2090.189
581.7937	2092.924
581.9529	2087.852
582.1122	2100.141
582.2714	2089.612
582.4306	2091.407
582.5898	2105.547
582.749	2095.866
582.9082	2078.834
583.0674	2078.589
583.2266	2079.978
583.3857	2078.421
583.5449	2053.78
583.7041	2047.766
583.8633	2057.499
584.0224	2069.996
584.1815	2052.272
584.3407	2043.434
584.4998	2032.211
584.6589	2020.779
584.818	2018.742
584.9771	2015.047
585.1362	2020.782
585.2953	1995.182
585.4544	1982.401
585.6135	1942.453
585.7725	1942.607
585.9316	1916.249
586.0906	1930.11
586.2497	1951.752
586.4087	1949.209
586.5677	1950.608
586.7267	1945.144
586.8858	1951.647
587.0448	1951.079
587.2038	1966.521
587.3628	1960.326
587.5218	1946.393
587.6807	1926.793
587.8397	1921.706
587.9987	1923.331
588.1577	1906.961
588.3166	1884.349
588.4755	1872.006
588.6345	1823.562
588.7934	1761.999
588.9523	1699.973
589.1112	1641.432
589.2701	1651.213
589.429	1666.704
589.5879	1677.85
589.7468	1678.2
589.9056	1718.562
590.0645	1747.132
590.2234	1778.567
590.3822	1804.859
590.5411	1831.03
590.6999	1836.443
590.8588	1812.473
591.0176	1794.775
591.1764	1802.322
591.3352	1803.606
591.494	1800.516
591.6528	1799.074
591.8116	1777.036
591.9703	1768.672
592.1291	1787.943
592.2878	1785.455
592.4467	1788.095
592.6053	1790.62
592.7641	1795.358
592.9229	1796.989
593.0816	1775.825
593.2403	1776.945
593.399	1799.904
593.5577	1819.313
593.7164	1806.961
593.8751	1800.031
594.0338	1798.784
594.1924	1769.656
594.3511	1757.98
594.5098	1746.538
594.6684	1755.683
594.8271	1748.899
594.9857	1726.458
595.1443	1743.602
595.303	1764.863
595.4615	1781.226
595.6202	1785.033
595.7787	1770.626
595.9374	1756.914
596.0959	1765.879
596.2545	1774.107
596.4131	1794.099
596.5717	1809.585
596.7302	1785.503
596.8887	1785.594
597.0473	1782.753
597.2058	1786.533
597.3644	1773.511
597.5229	1776.622
597.6814	1752.146
597.8399	1751.793
597.9984	1766.995
598.1569	1761.498
598.3154	1766.836
598.4738	1759.407
598.6323	1745.005
598.7908	1741.832
598.9492	1764.982
599.1076	1760.1
599.2661	1770.159
599.4245	1770.186
599.5829	1768.118
599.7413	1763.433
599.8997	1752.601
600.0581	1757.683
600.2165	1738.89
600.3749	1746.238
600.5333	1726.781
600.6917	1720.275
600.85	1724.578
601.0084	1723.352
601.1667	1749.238
601.325	1735.601
601.4833	1728.604
601.6417	1730.443
601.8	1726.338
601.9583	1706.127
602.1166	1697.508
602.2749	1693.982
602.4332	1696.919
602.5914	1702.424
602.7498	1715.66
602.908	1737.543
603.0662	1746.161
603.2245	1748.293
603.3828	1765.885
603.541	1749.172
603.6992	1761.947
603.8574	1757.065
604.0156	1748.734
604.1738	1747.852
604.332	1751.368
604.4902	1736.204
604.6484	1751.381
604.8065	1747.007
604.9647	1732.654
605.1229	1752.463
605.281	1734.734
605.4391	1714.767
605.5973	1711.238
605.7554	1731.964
605.9135	1732.031
606.0717	1720.531
606.2297	1731.969
606.3878	1716.216
606.5459	1708.934
606.704	1721.692
606.8621	1742.532
607.0201	1736.22
607.1782	1739.772
607.3362	1735.684
607.4943	1734.591
607.6523	1720.641
607.8104	1717.889
607.9684	1688.791
608.1264	1677.501
608.2844	1671.295
608.4424	1664.12
608.6003	1662.611
608.7584	1650.218
608.9163	1640.048
609.0743	1638.833
609.2322	1633.25
609.3902	1635.903
609.5482	1638.138
609.7061	1657.385
609.864	1647.285
610.0219	1625.183
610.1798	1596.055
610.3377	1578.047
610.4956	1595.265
610.6535	1618.155
610.8114	1631.825
610.9693	1640.268
611.1271	1636.57
611.285	1645.354
611.4429	1642.736
611.6007	1617.694
611.7585	1600.824
611.9164	1600.094
612.0742	1593.462
612.232	1585.067
612.3898	1559.745
612.5476	1565.682
612.7054	1584.437
612.8632	1581.896
613.0209	1576.795
613.1787	1584.778
613.3365	1584.027
613.4942	1563.516
613.652	1522.93
613.8097	1495.296
613.9674	1487.597
614.1252	1531.785
614.2829	1538.067
614.4406	1541.671
614.5983	1559.069
614.756	1557.332
614.9136	1552.276
615.0714	1547.833
615.229	1531.651
615.3867	1533.551
615.5443	1524.791
615.702	1522.633
615.8596	1525.982
616.0172	1477.703
616.1748	1439.089
616.3325	1429.619
616.4901	1434.071
616.6476	1449.125
616.8052	1456.665
616.9628	1457.487
617.1204	1447.068
617.278	1479.897
617.4355	1499.806
617.5931	1495.633
617.7506	1485.778
617.9081	1488.385
618.0657	1499.855
618.2232	1509.39
618.3807	1506.152
618.5382	1490.289
618.6957	1482.292
618.8532	1479.576
619.0107	1458.053
619.1682	1444.713
619.3256	1458.765
619.4831	1475.745
619.6406	1481.584
619.798	1505.733
619.9554	1487.472
620.1129	1487.208
620.2703	1495.47
620.4277	1487.787
620.5851	1492.799
620.7425	1514.464
620.8998	1505.373
621.0573	1486.848
621.2146	1471.972
621.372	1434.725
621.5294	1429.563
621.6867	1440.207
621.8441	1438.322
622.0013	1431.389
622.1587	1444.708
622.316	1448.731
622.4733	1446.827
622.6306	1447.711
622.7879	1430.482
622.9452	1408.822
623.1025	1388.374
623.2598	1385.957
623.4171	1406.778
623.5743	1412.403
623.7316	1414.042
623.8888	1421.215
624.046	1411.678
624.2032	1411.335
624.3605	1396.278
624.5176	1387.427
624.6749	1379.349
624.8321	1377.452
624.9893	1390.872
625.1464	1394.039
625.3036	1374.903
625.4608	1351.679
625.6179	1344.713
625.7751	1341.472
625.9322	1356.898
626.0894	1384.697
626.2465	1389.372
626.4036	1392.721
626.5607	1392.015
626.7178	1382.922
626.8749	1402.328
627.032	1399.284
627.189	1409.037
627.3461	1408.28
627.5032	1386.285
627.6602	1343.565
627.8173	1309.506
627.9743	1277.225
628.1313	1281.983
628.2884	1306.553
628.4454	1337.332
628.6024	1357.88
628.7594	1361.567
628.9164	1344.558
629.0734	1351.864
629.2303	1337.378
629.3873	1346.502
629.5443	1331.643
629.7012	1324.19
629.8582	1316.185
630.0151	1299.37
630.172	1285.015
630.3289	1312.117
630.4858	1314.623
630.6428	1339.111
630.7996	1351.544
630.9565	1358.849
631.1134	1347.97
631.2703	1346.109
631.4272	1317.376
631.584	1299.177
631.7408	1290.114
631.8977	1276.379
632.0546	1293.504
632.2114	1306.649
632.3682	1311.557
632.525	1330.366
632.6818	1339.829
632.8386	1350.501
632.9954	1345.888
633.1522	1336.756
633.3089	1339.495
633.4657	1333.531
633.6224	1290.364
633.7792	1285.545
633.9359	1313.015
634.0927	1299.943
634.2494	1305.661
634.4061	1304.758
634.5628	1307.022
634.7195	1304.341
634.8762	1304.957
635.0329	1316.074
635.1895	1323.984
635.3462	1306.176
635.5029	1299.285
635.6595	1284.473
635.8162	1282.409
635.9728	1275.544
636.1295	1273.733
636.2861	1265.226
636.4427	1264.986
636.5992	1279.097
636.7559	1293.999
636.9124	1301.987
637.069	1300.661
637.2256	1301.448
637.3821	1297.656
637.5387	1299.151
637.6953	1305.413
637.8518	1297.513
638.0084	1285.405
638.1649	1289.043
638.3214	1293.12
638.4779	1278.566
638.6344	1283.003
638.7909	1284.707
638.9474	1287.31
639.1038	1269.424
639.2603	1255.72
639.4167	1249.139
639.5732	1252.332
639.7297	1255.407
639.8861	1235.94
640.0425	1219.439
640.199	1221.29
640.3553	1231.235
640.5118	1234.635
640.6682	1241.524
640.8245	1220.685
640.981	1201.534
641.1373	1190.358
641.2936	1213.608
641.45	1218.101
641.6064	1208.201
641.7627	1204.73
641.9191	1191.906
642.0754	1182.842
642.2317	1186.675
642.388	1192.955
642.5443	1211.866
642.7006	1208.963
642.8569	1216.57
643.0131	1204.681
643.1694	1198.627
643.3257	1189.894
643.4819	1183.472
643.6382	1183.401
643.7944	1164.416
643.9506	1168.396
644.1069	1168.092
644.2631	1165.497
644.4193	1177.231
644.5754	1186.933
644.7316	1185.879
644.8878	1170.989
645.044	1162.199
645.2002	1159.265
645.3563	1159.608
645.5125	1153.013
645.6686	1145.269
645.8248	1135.105
645.9809	1138.184
646.137	1125.021
646.2931	1104.633
646.4492	1106.595
646.6053	1131.139
646.7614	1143.793
646.9174	1122.171
647.0735	1104.805
647.2296	1100.816
647.3856	1099.662
647.5417	1097.383
647.6977	1091.285
647.8537	1094.061
648.0098	1104.998
648.1658	1096.829
648.3218	1083.285
648.4777	1084.21
648.6337	1091.69
648.7897	1102.393
648.9457	1103.022
649.1016	1070.339
649.2576	1055.792
649.4135	1024.77
649.5695	1002.251
649.7254	1008.877
649.8813	1039.17
650.0372	1071.621
650.1932	1084.942
650.3491	1092.106
650.5049	1111.041
650.6608	1098.38
650.8167	1092.311
650.9725	1082.86
651.1284	1097.776
651.2842	1102.365
651.4401	1076.572
651.5959	1046.649
651.7518	1031.775
651.9076	1027.95
652.0634	1032.676
652.2192	1050.045
652.3749	1061.768
652.5308	1082.305
652.6865	1084.654
652.8423	1073.098
652.998	1074.079
653.1538	1072.994
653.3096	1068.943
653.4653	1059.25
653.621	1067.101
653.7767	1078.079
653.9324	1074.856
654.0881	1066.366
654.2438	1053.08
654.3995	1051.051
654.5552	1041.291
654.7109	1035.175
654.8665	1028.141
655.0222	1042.337
655.1778	1029.864
655.3334	1025.171
655.4891	1004.925
655.6447	999.4792
655.8003	977.7157
655.9559	914.9056
656.1115	841.422
656.2671	761.9036
656.4227	750.3133
656.5782	807.2361
656.7338	877.1474
656.8893	938.5976
657.0449	953.3708
657.2004	974.2771
657.356	978.8196
657.5115	984.9979
657.667	1010.676
657.8225	1032.645
657.978	1045.659
658.1335	1037.078
658.289	1037.287
658.4445	1029.929
658.5999	1033.485
658.7554	1027.73
658.9108	1034.904
659.0663	1029.077
659.2217	1024.184
659.3771	1014.612
659.5325	1008.775
659.6879	1019.304
659.8433	1028.371
659.9987	1029.055
660.1541	1036.112
660.3095	1036.508
660.4648	1047.607
660.6202	1038.372
660.7756	1028.881
660.9309	1027.529
661.0862	1026.975
661.2416	1034.059
661.3969	1053.765
661.5522	1053.409
661.7075	1053.372
661.8628	1050.64
662.0181	1052.262
662.1733	1039.68
662.3286	1044.583
662.4839	1043.662
662.6391	1030.706
662.7944	1028.907
662.9496	1037.648
663.1048	1030.423
663.26	1027.458
663.4152	1024.775
663.5704	1013.764
663.7256	1029.133
663.8808	1034.974
664.036	1028.931
664.1912	1018.963
664.3463	1015.481
664.5015	1012.127
664.6566	1013.809
664.8118	1031.681
664.9669	1032.205
665.122	1042.782
665.2771	1037.506
665.4322	1032.339
665.5873	1042.398
665.7424	1035.593
665.8975	1032.872
666.0526	1026.595
666.2076	1018.93
666.3627	1002.798
666.5177	1000.693
666.6727	1009.762
666.8278	1026.85
666.9828	1035.085
667.1378	1035.992
667.2928	1028.457
667.4478	1011.66
667.6028	1013.493
667.7578	998.3931
667.9127	996.1596
668.0677	1003.183
668.2226	1012.999
668.3776	1012.247
668.5325	1013.673
668.6874	1012.007
668.8423	1018.265
668.9973	1011.272
669.1522	1013.123
669.3071	1015.797
669.4619	1023.358
669.6168	1001.667
669.7717	994.3259
669.9265	995.6766
670.0814	986.3247
670.2362	982.428
670.3911	978.587
670.5459	975.1232
670.7007	992.2833
670.8555	1001.232
671.0103	996.1689
671.1651	982.2422
671.3199	978.1432
671.4747	973.8913
671.6295	963.7078
671.7842	964.5567
671.939	952.3451
672.0937	974.262
672.2484	976.2375
672.4031	967.6317
672.5579	960.9604
672.7126	963.9906
672.8673	964.9672
673.022	976.2336
673.1767	962.4279
673.3314	959.5921
673.486	957.5781
673.6407	949.8978
673.7953	951.6403
673.95	933.4498
674.1046	940.7112
674.2592	947.4151
674.4138	955.8848
674.5684	939.8723
674.723	934.8026
674.8776	939.0493
675.0322	936.4758
675.1868	919.0419
675.3414	928.6415
675.4959	943.3759
675.6505	938.7643
675.805	932.595
675.9595	928.5906
676.1141	925.8846
676.2686	940.1804
676.4231	934.1166
676.5776	925.8405
676.7321	913.8376
676.8866	899.1275
677.041	894.3835
677.1955	908.1056
677.35	906.65
677.5044	914.4865
677.6589	906.0798
677.8133	903.0981
677.9677	893.4178
678.1221	899.7647
678.2766	900.3669
678.4309	884.0253
678.5853	883.4024
678.7397	881.6912
678.8941	885.2106
679.0485	876.8934
679.2028	874.7612
679.3571	876.1823
679.5115	879.8236
679.6658	867.773
679.8201	862.2283
679.9744	863.4061
680.1288	867.3243
680.2831	865.1644
680.4373	851.5536
680.5916	849.8842
680.7459	850.5743
680.9001	836.3694
681.0544	837.4739
681.2087	840.9512
681.3629	848.8831
681.5171	846.6634
681.6713	830.3378
681.8256	841.6943
681.9797	838.3019
682.134	829.3215
682.2881	824.6927
682.4423	827.0008
682.5965	822.411
682.7507	819.806
682.9048	802.7056
683.059	811.2472
683.2131	817.4173
683.3672	818.8519
683.5213	819.4516
683.6754	799.2816
683.8295	797.2979
683.9836	787.6036
684.1377	761.68
684.2918	765.2968
684.4459	769.6878
684.5999	778.6279
684.754	780.2252
684.908	780.4374
685.062	778.6334
685.2161	772.2422
685.3701	773.4959
685.5241	760.6208
685.6781	750.2999
685.8321	755.2832
685.9861	757.337
686.14	753.6252
686.294	740.4484
686.4479	736.6906
686.6019	701.2584
686.7559	624.0147
686.9098	542.8743
687.0637	501.1317
687.2176	502.995
687.3715	514.6683
687.5254	535.3699
687.6793	558.9842
687.8332	601.1646
687.9871	633.8506
688.1409	661.4833
688.2947	671.1777
688.4486	668.0988
688.6024	656.6352
688.7563	643.7134
688.9101	635.4526
689.0639	629.1677
689.2177	626.4603
689.3715	624.0651
689.5253	612.8281
689.6791	629.1829
689.8328	618.9371
689.9866	627.9049
690.1403	631.5953
690.2941	635.8708
690.4478	635.0204
690.6015	643.4043
690.7552	639.924
690.9089	654.6064
691.0626	655.1808
691.2164	658.7693
691.37	648.9221
691.5237	649.8402
691.6774	655.5804
691.831	661.332
691.9847	668.8521
692.1383	665.511
692.2919	663.2964
692.4456	662.8539
692.5992	655.6144
692.7527	651.2684
692.9064	650.0237
693.0599	643.2588
693.2136	650.6511
693.3671	654.4064
693.5207	647.0955
693.6742	641.3806
693.8278	642.738
693.9813	631.105
694.1348	621.6552
694.2883	619.4799
694.4418	623.6161
694.5953	620.3841
694.7488	638.5271
694.9023	635.7498
695.0558	632.7762
695.2093	635.2329
695.3627	635.3483
695.5162	635.2351
695.6696	634.1776
695.8231	633.5931
695.9764	638.6804
696.1299	634.6957
696.2833	635.5681
696.4367	656.0486
696.5901	663.0909
696.7435	675.7561
696.8968	674.0504
697.0502	673.1755
697.2036	666.2183
697.3569	652.2176
697.5102	660.2178
697.6635	652.0145
697.8168	635.0389
697.9702	632.4589
698.1235	636.4249
698.2768	654.161
698.4301	649.6616
698.5833	637.1518
698.7366	625.7208
698.8898	627.8713
699.0431	633.8997
699.1964	638.6668
699.3495	622.5781
699.5028	638.2142
699.656	641.3779
699.8092	642.5101
699.9624	626.601
700.1156	620.4008
700.2688	618.452
700.4219	614.0004
700.5751	596.3861
700.7283	596.741
700.8814	612.2203
701.0345	625.8194
701.1877	629.8357
701.3408	620.5814
701.4939	617.7009
701.647	609.3354
701.8001	602.4223
701.9532	602.3533
702.1063	617.8524
702.2593	617.8424
702.4124	609.6793
702.5654	599.0851
702.7184	592.2305
702.8715	604.9473
703.0245	620.7556
703.1776	637.5747
703.3305	634.2198
703.4835	626.8929
703.6365	632.5853
703.7895	617.1055
703.9424	619.2347
704.0954	621.5995
704.2484	630.7498
704.4013	630.2536
704.5543	631.4327
704.7072	635.2546
704.8601	631.2902
705.013	630.5529
705.1659	626.7098
705.3188	615.1019
705.4717	619.8434
705.6246	608.9224
705.7774	621.4168
705.9303	620.099
706.0831	614.4366
706.236	613.8126
706.3888	619.9385
706.5416	616.814
706.6944	621.4406
706.8472	618.9138
707	615.2902
707.1528	617.1203
707.3056	622.9699
707.4583	621.4211
707.6111	613.915
707.7639	626.1093
707.9166	632.2874
708.0693	627.4785
708.222	623.8099
708.3748	614.2777
708.5275	612.1056
708.6802	610.7289
708.8328	604.0106
708.9855	601.6757
709.1382	605.7607
709.2909	617.7811
709.4435	614.6408
709.5962	616.5762
709.7488	605.1298
709.9014	606.5355
710.054	607.8649
710.2067	605.9454
710.3593	613.667
710.5118	610.726
710.6644	612.1356
710.817	601.9121
710.9695	603.5295
711.1221	601.9121
711.2747	608.3291
711.4272	597.0082
711.5797	594.3926
711.7322	596.3676
711.8848	592.0734
712.0373	587.6993
712.1898	580.1879
712.3422	582.5497
712.4948	587.4174
712.6472	589.3585
712.7996	585.8605
712.9521	585.1212
713.1046	577.5991
713.257	574.2323
713.4094	589.3723
713.5618	586.3549
713.7142	584.4603
713.8666	587.6923
714.019	581.8862
714.1714	580.0806
714.3237	568.8466
714.4761	562.9583
714.6285	560.7739
714.7808	543.8745
714.9331	542.5795
715.0854	553.3246
715.2378	561.6122
715.3901	571.8697
715.5424	566.7097
715.6947	563.9211
715.8469	548.9785
715.9992	551.2506
716.1515	557.5722
716.3037	545.078
716.456	519.9464
716.6082	504.0436
716.7604	495.936
716.9127	481.1171
717.0649	469.3299
717.2171	459.3532
717.3693	453.0086
717.5214	436.9343
717.6736	431.1756
717.8258	439.314
717.978	441.4227
718.1301	454.4487
718.2822	449.6202
718.4344	429.5337
718.5865	400.9602
718.7386	390.7673
718.8907	410.6871
719.0428	426.0781
719.1949	416.3205
719.3469	409.349
719.499	413.726
719.6511	415.5592
719.8031	434.3143
719.9551	422.8999
720.1072	412.1386
720.2592	410.4074
720.4112	411.5427
720.5632	420.4785
720.7152	428.8553
720.8672	444.3195
721.0192	458.076
721.1711	484.2385
721.3231	507.3244
721.475	507.5884
721.627	506.2612
721.7789	506.8111
721.9308	495.8761
722.0828	495.0689
722.2347	494.8752
722.3866	495.1638
722.5385	491.2274
722.6903	493.6459
722.8422	495.3659
722.9941	478.2823
723.1459	469.0141
723.2977	445.9718
723.4496	416.4983
723.6014	415.1891
723.7532	431.692
723.905	437.3595
724.0568	429.2144
724.2086	428.4177
724.3604	425.0563
724.5121	430.2894
724.6639	443.4273
724.8157	453.0979
724.9674	455.7538
725.1191	434.7498
725.2709	417.331
725.4226	424.073
725.5743	434.8946
725.726	448.7923
725.8777	459.5377
726.0294	441.2105
726.181	435.1991
726.3327	424.0515
726.4844	416.3857
726.636	428.7129
726.7877	448.1307
726.9393	463.3247
727.0909	456.4474
727.2425	445.7695
727.3941	435.4017
727.5457	416.9493
727.6973	404.3957
727.8488	393.3663
728.0004	410.7241
728.1519	436.4266
728.3035	452.7301
728.455	458.0397
728.6066	461.4572
728.7581	447.2571
728.9095	419.2015
729.0611	399.6596
729.2126	392.425
729.364	404.7712
729.5155	435.7455
729.667	466.4234
729.8184	472.2897
729.9698	465.6559
730.1213	441.3023
730.2727	432.3387
730.4241	423.5623
730.5756	429.94
730.7269	442.5936
730.8784	435.4315
731.0297	427.5597
731.1811	426.4874
731.3325	433.6258
731.4838	446.8326
731.6351	446.6622
731.7865	437.3017
731.9378	442.3676
732.0891	459.5696
732.2404	467.9943
732.3917	474.7704
732.543	469.1815
732.6943	468.9541
732.8456	468.2217
732.9968	472.3666
733.1481	469.449
733.2993	459.2082
733.4506	461.071
733.6018	468.8994
733.753	479.035
733.9042	496.4583
734.0554	494.2119
734.2066	486.2148
734.3578	483.4269
734.509	481.6717
734.6602	474.8616
734.8113	474.9325
734.9624	472.7942
735.1136	470.4846
735.2647	464.5849
735.4158	468.1431
735.5669	474.5388
735.718	472.5424
735.8691	464.6775
736.0201	465.5866
736.1713	453.2759
736.3223	454.4364
736.4733	456.2697
736.6244	460.4348
736.7755	464.849
736.9265	460.9678
737.0775	466.8815
737.2285	466.0205
737.3795	480.5002
737.5305	478.6745
737.6815	472.5251
737.8324	466.9177
737.9834	476.3152
738.1343	468.1151
738.2853	454.8963
738.4362	455.4114
738.5871	448.2
738.738	451.3071
738.8889	447.6588
739.0399	444.4345
739.1907	446.6908
739.3416	451.4353
739.4925	457.1795
739.6433	455.333
739.7942	458.2076
739.945	458.2026
740.0958	464.887
740.2467	466.0672
740.3975	460.9469
740.5483	464.0035
740.6991	457.0243
740.8499	446.9653
741.0007	444.152
741.1514	451.5371
741.3022	452.1451
741.4529	448.5291
741.6036	454.9077
741.7544	450.7161
741.9051	458.5981
742.0558	457.2943
742.2065	454.3539
742.3572	439.7661
742.5079	447.2806
742.6586	452.6082
742.8093	455.6511
742.9599	458.5387
743.1105	458.1039
743.2612	460.0476
743.4118	457.8642
743.5624	456.7613
743.7131	448.297
743.8636	444.8934
744.0142	450.6879
744.1648	445.3196
744.3154	452.2065
744.4659	434.6616
744.6165	435.8862
744.767	442.5295
744.9176	440.0691
745.0681	437.0681
745.2186	450.5424
745.3691	454.4915
745.5197	448.4846
745.6702	443.1288
745.8206	443.6192
745.9711	450.2698
746.1215	442.6754
746.272	437.1438
746.4224	443.0439
746.5729	440.4291
746.7233	435.9545
746.8737	440.9866
747.0241	430.1767
747.1745	435.0457
747.3249	435.7045
747.4753	422.9049
747.6257	424.0496
747.776	428.2971
747.9264	420.4455
748.0767	421.7944
748.2271	423.0595
748.3774	415.3214
748.5276	420.3905
748.678	418.7423
748.8282	418.0856
748.9786	424.2091
749.1288	414.4879
749.2791	408.8401
749.4294	415.4196
749.5796	414.9855
749.7299	412.4148
749.8801	415.8843
750.0303	421.4614
750.1805	423.7195
750.3307	412.7372
750.4809	418.7451
750.6311	411.1081
750.7813	401.5242
750.9314	406.0776
751.0816	394.5452
751.2318	401.4696
751.3818	400.4496
751.532	398.1624
751.6821	402.9159
751.8322	411.0366
751.9823	405.4685
752.1324	404.5309
752.2825	402.8858
752.4326	387.8342
752.5826	389.9318
752.7327	392.0307
752.8827	391.9071
753.0327	390.1383
753.1827	387.5415
753.3328	387.4537
753.4828	384.8911
753.6328	384.3511
753.7828	394.2886
753.9327	391.9376
754.0827	393.8134
754.2327	390.2924
754.3826	384.7121
754.5325	387.6095
754.6825	379.7241
754.8324	377.2301
754.9823	386.3096
755.1322	382.4082
755.2821	378.3806
755.432	375.1519
755.5818	368.6582
755.7318	361.656
755.8816	367.4983
756.0314	369.2631
756.1813	367.7901
756.3311	370.4813
756.4809	379.6177
756.6307	369.2326
756.7805	361.9687
756.9303	361.3214
757.0801	354.4861
757.2299	359.0926
757.3796	367.0205
757.5294	361.3442
757.6791	361.3091
757.8289	354.6969
757.9786	358.2378
758.1283	363.0371
758.278	354.4849
758.4277	346.0507
758.5773	343.537
758.7271	346.7176
758.8767	351.99
759.0264	344.3453
759.176	333.4987
759.3256	298.9259
759.4753	244.3276
759.6249	185.0067
759.7745	141.3623
759.9241	116.0648
760.0737	103.2411
760.2233	84.53658
760.3729	69.30713
760.5224	71.51173
760.6719	64.73469
760.8215	61.92176
760.971	70.57288
761.1205	84.86014
761.2701	107.397
761.4196	125.3422
761.5691	156.8769
761.7186	191.844
761.868	222.888
762.0175	234.2813
762.167	218.0265
762.3164	194.709
762.4659	164.336
762.6153	149.437
762.7647	146.1627
762.9141	146.2937
763.0635	143.9595
763.2129	140.5842
763.3623	143.8317
763.5117	152.9512
763.661	161.6235
763.8104	164.6106
763.9597	165.9256
764.1091	163.0412
764.2584	172.8149
764.4077	185.7495
764.557	184.677
764.7063	191.1561
764.8556	202.6954
765.0049	209.247
765.1541	214.7024
765.3034	220.0711
765.4526	223.7811
765.6019	217.809
765.7511	231.2329
765.9003	237.8972
766.0496	233.9458
766.1987	234.8957
766.348	239.0514
766.4971	249.7334
766.6463	250.899
766.7955	265.1871
766.9446	271.1385
767.0938	264.9715
767.2429	266.9353
767.392	275.8248
767.5411	285.7524
767.6902	277.0545
767.8394	278.3546
767.9884	282.9578
768.1375	290.8993
768.2866	283.0128
768.4356	280.8293
768.5847	279.6276
768.7337	281.4675
768.8828	286.6685
769.0317	285.6434
769.1808	281.9363
769.3298	284.5241
769.4788	285.7372
769.6277	284.0419
769.7767	280.5748
769.9257	276.706
770.0746	280.2957
770.2236	287.541
770.3725	291.9478
770.5214	292.3784
770.6703	292.1393
770.8193	291.2814
770.9681	284.4937
771.1171	279.9884
771.2659	277.7725
771.4148	273.8528
771.5637	281.0505
771.7125	288.2787
771.8613	284.1492
772.0101	292.1926
772.159	288.8419
772.3078	279.2521
772.4566	282.1113
772.6054	283.4122
772.7542	278.7241
772.903	280.3777
773.0517	276.622
773.2004	280.9765
773.3492	277.5381
773.4979	269.7991
773.6467	276.7922
773.7953	283.3062
773.944	283.1494
774.0928	282.5984
774.2415	279.6544
774.3901	280.3988
774.5388	274.0872
774.6874	263.0658
774.8361	259.6487
774.9847	262.3847
775.1334	265.5634
775.282	267.7737
775.4305	267.3139
775.5792	269.7696
775.7277	265.085
775.8763	268.4075
776.0249	268.3548
776.1735	266.4415
776.322	266.633
776.4705	270.7863
776.6191	270.4855
776.7676	265.6398
776.9161	264.1951
777.0646	258.5446
777.2131	257.0139
777.3616	260.2191
777.5101	268.1954
777.6585	269.8455
777.8069	267.6611
777.9554	259.4778
778.1038	250.7153
778.2523	251.7496
778.4007	259.3391
778.5491	261.6323
778.6974	257.9252
778.8459	259.9674
778.9942	255.6328
779.1426	254.4874
779.291	256.2531
779.4393	253.935
779.5876	256.9069
779.736	258.1879
779.8843	248.0722
780.0326	246.5916
780.1809	247.5355
780.3292	255.0135
780.4775	257.2046
780.6257	251.92
780.774	255.3243
780.9222	253.611
781.0704	258.8973
781.2187	251.8653
781.3669	258.206
781.5151	254.5944
781.6633	251.0467
781.8115	255.3964
781.9597	253.4107
782.1078	256.7416
782.256	248.974
782.4042	253.9371
782.5523	255.0553
782.7004	254.3915
782.8486	246.0291
782.9967	255.1555
783.1448	249.057
783.2929	245.5222
783.441	246.9029
783.5891	245.1788
783.7371	247.2889
783.8851	241.3921
784.0332	241.7661
784.1812	247.9002
784.3293	243.9505
784.4773	241.6209
784.6253	238.6632
784.7733	239.0752
784.9213	244.1219
785.0692	240.4943
785.2172	240.3157
785.3652	238.7661
785.5131	237.4192
785.6611	241.138
785.809	243.1846
785.9569	237.5932
786.1048	241.4394
786.2527	238.2948
786.4006	235.2658
786.5485	242.0333
786.6964	236.6987
786.8442	236.5917
786.9921	238.0358
787.1399	238.3558
787.2877	231.2761
787.4355	238.8348
787.5833	233.5732
787.7311	229.664
787.8789	231.5802
788.0267	224.1603
788.1745	226.9805
788.3223	229.895
788.47	231.3552
788.6177	230.1636
788.7654	223.2168
788.9132	227.8334
789.0609	219.9429
789.2086	220.0916
789.3563	210.7129
789.504	222.5811
789.6517	218.9025
789.7993	219.646
789.947	214.6018
790.0946	218.3487
790.2422	217.0169
790.3898	226.3532
790.5375	219.545
790.6851	227.8521
790.8326	222.2653
790.9802	218.2048
791.1278	217.282
791.2754	217.2351
791.423	215.1248
791.5705	218.7456
791.718	216.9412
791.8655	214.0166
792.0131	209.559
792.1606	212.4819
792.308	214.0107
792.4556	211.2799
792.603	211.1004
792.7505	211.5572
792.8979	205.5179
793.0454	204.8606
793.1928	207.6924
793.3403	206.6328
793.4877	207.1984
793.6351	211.1428
793.7825	208.9945
793.9299	206.5341
794.0772	203.1288
794.2246	212.7578
794.3719	217.7766
794.5193	211.4129
794.6666	215.9075
794.814	209.049
794.9613	209.1168
795.1086	213.7478
795.2559	208.4883
795.4032	202.9933
795.5505	205.6942
795.6978	209.9371
795.845	204.8708
795.9922	202.6323
796.1395	195.3586
796.2867	198.386
796.4339	206.0762
796.5811	200.8581
796.7283	201.0166
796.8755	198.0633
797.0227	206.3347
797.1699	208.6839
797.317	202.4731
797.4642	200.9999
797.6113	210.1999
797.7584	209.8006
797.9056	210.86
798.0527	192.2816
798.1998	199.8882
798.3469	200.0065
798.494	204.7447
798.641	198.4392
798.7881	193.0343
798.9351	199.2906
799.0822	198.2124
799.2292	199.6945
799.3762	195.241
799.5232	192.5381
799.6702	193.4031
799.8172	196.0386
799.9642	191.846
800.1111	196.3748
800.2581	185.231
800.4051	188.682
800.552	191.2797
800.6989	189.521
800.8458	188.3527
800.9927	185.5274
801.1396	188.163
801.2866	196.2603
801.4334	189.3184
801.5803	187.6122
801.7272	194.3562
801.874	188.3637
802.0209	188.3181
802.1677	186.7942
802.3145	183.0969
802.4613	180.3077
802.6081	180.5875
802.7549	179.5897
802.9017	178.5145
803.0485	187.9989
803.1952	185.619
803.342	189.118
803.4887	187.5455
803.6354	181.314
803.7822	177.366
803.9289	180.1964
804.0756	187.1443
804.2223	178.6639
804.369	174.9285
804.5156	166.041
804.6623	172.1128
804.8089	178.3474
804.9556	167.379
805.1022	172.933
805.2488	175.2934
805.3954	176.0676
805.542	183.2827
805.6886	181.1073
805.8352	183.5313
805.9818	180.8028
806.1283	175.9777
806.2749	182.7755
806.4214	176.0523
806.5679	178.6204
806.7145	176.6085
806.861	174.1908
807.0074	168.5341
807.154	179.2538
807.3004	172.378
807.4469	169.1408
807.5934	171.556
807.7398	173.0309
807.8862	170.0448
808.0327	166.1205
808.1791	165.5309
808.3255	164.7307
808.4719	163.871
808.6183	165.0928
808.7647	166.3165
808.9111	163.3445
809.0574	160.9558
809.2037	163.5256
809.3501	167.3835
809.4965	160.6262
809.6428	164.8842
809.7891	164.8207
809.9354	159.5334
810.0817	157.4687
810.2279	164.8063
810.3742	163.4684
810.5204	163.7689
810.6667	158.1643
810.8129	161.4111
810.9592	155.9033
811.1054	156.2785
811.2516	154.2268
811.3978	154.6754
811.5439	144.0478
811.6901	154.1391
811.8363	152.5422
811.9825	155.0863
812.1286	147.1872
812.2748	138.2851
812.4209	137.4423
812.567	144.4169
812.7131	148.9565
812.8592	143.3829
813.0053	143.0134
813.1514	137.4705
813.2974	128.5335
813.4435	126.7608
813.5895	128.6199
813.7356	129.99
813.8816	135.1018
814.0276	137.2739
814.1736	133.8064
814.3196	129.82
814.4656	132.3084
814.6116	133.9043
814.7576	129.1845
814.9035	125.882
815.0494	125.4855
815.1954	121.0644
815.3413	122.8642
815.4872	118.4801
815.6331	119.1477
815.779	125.0224
815.9249	126.1328
816.0707	120.511
816.2166	116.0501
816.3625	110.4145
816.5083	105.783
816.6542	112.6373
816.8	112.6994
816.9458	109.7788
817.0916	113.9587
817.2374	120.4917
817.3832	126.1258
817.5289	125.4008
817.6747	117.4653
817.8204	102.917
817.9662	101.8157
818.1119	108.7744
818.2576	113.6951
818.4034	117.6916
818.5491	122.1056
818.6948	126.3133
818.8405	120.9132
818.9861	112.7047
819.1318	116.4927
819.2774	117.7862
819.423	116.8058
819.5687	117.0632
819.7143	114.921
819.8599	112.3649
820.0055	112.5317
820.1511	112.09
820.2967	118.4208
820.4422	126.3509
820.5878	130.5616
820.7333	136.7137
820.8788	133.1506
821.0244	127.2307
821.1699	124.6441
821.3154	126.2287
821.4609	125.4335
821.6064	125.2856
821.7519	123.3678
821.8973	120.365
822.0428	118.35
822.1882	116.7332
822.3337	112.5009
822.4791	104.8111
822.6245	97.19742
822.7699	85.28382
822.9153	81.57364
823.0607	83.32669
823.2061	88.32945
823.3514	88.33913
823.4968	95.46812
823.6422	107.5458
823.7875	117.868
823.9328	119.7868
824.0781	119.2243
824.2234	114.7356
824.3687	118.4772
824.514	115.2707
824.6592	122.7218
824.8045	123.4956
824.9498	129.2066
825.095	119.3235
825.2402	119.4989
825.3854	123.932
825.5306	116.1121
825.6758	111.5052
825.821	115.5398
825.9662	114.3201
826.1114	109.6509
826.2565	108.8175
826.4017	107.9287
826.5468	118.8608
826.692	125.5352
826.837	124.2782
826.9822	125.463
827.1273	121.2046
827.2723	112.8911
827.4174	108.8653
827.5625	102.9956
827.7075	97.54044
827.8526	107.8829
827.9976	104.2522
828.1426	96.30946
828.2877	107.8139
828.4327	111.3824
828.5776	108.6425
828.7227	108.0023
828.8676	99.56042
829.0126	102.2241
829.1575	107.5046
829.3024	106.8792
829.4474	108.7955
829.5923	107.0192
829.7372	109.793
829.8821	114.5215
830.027	113.5332
830.1719	113.5985
830.3168	108.9693
830.4616	107.185
830.6064	102.1314
830.7513	103.0127
830.8961	108.9814
831.041	110.7203
831.1857	112.2215
831.3306	113.6681
831.4753	106.4924
831.6201	109.2779
831.7649	106.8874
831.9096	101.4761
832.0544	105.4043
832.1991	102.0817
832.3438	106.933
832.4885	107.3874
832.6332	112.9591
832.778	110.2468
832.9226	106.4702
833.0673	101.9308
833.2119	101.4324
833.3566	100.2262
833.5012	98.63652
833.6459	103.8224
833.7905	105.8978
833.9351	105.4566
834.0797	106.1482
834.2243	106.1829
834.3688	105.2315
834.5134	106.0257
834.658	102.1029
834.8026	112.5522
834.9471	111.768
835.0916	109.5583
835.2361	106.4278
835.3806	101.6748
835.5251	107.3111
835.6696	103.6205
835.8141	102.4438
835.9586	111.4739
836.103	108.2306
836.2474	105.5089
836.3918	99.28964
836.5363	109.2939
836.6807	108.56
836.8251	108.031
836.9695	109.0079
837.1138	105.5248
837.2582	104.5023
837.4026	104.4062
837.5469	102.7744
837.6913	106.4684
837.8356	107.5402
837.9799	107.5689
838.1242	103.9703
838.2686	104.8423
838.4128	106.2204
838.5571	110.4555
838.7014	106.9115
838.8456	110.0431
838.9899	106.6338
839.1341	99.77029
839.2783	103.2425
839.4225	108.1978
839.5667	99.99388
839.7109	105.7442
839.8551	108.7986
839.9993	110.3338
840.1434	104.058
840.2876	104.1399
840.4317	103.1463
840.5759	102.1952
840.72	101.6037
840.8641	106.541
841.0082	100.5347
841.1523	103.0765
841.2963	106.2525
841.4404	101.7299
841.5845	104.5906
841.7285	107.5094
841.8726	101.5435
842.0165	102.5539
842.1606	106.4186
842.3046	107.5979
842.4485	101.2639
842.5925	104.4172
842.7365	101.0997
842.8805	99.53476
843.0244	104.3267
843.1684	102.6938
843.3123	101.227
843.4562	105.7878
843.6002	102.1476
843.744	102.2275
843.8879	102.9961
844.0318	101.6392
844.1757	103.8512
844.3195	102.9482
844.4634	101.6687
844.6072	101.4057
844.751	99.66086
844.8948	98.65668
845.0386	100.7363
845.1824	103.8576
845.3262	100.1211
845.47	100.4418
845.6138	99.1218
845.7575	102.6189
845.9012	100.9142
846.045	99.76595
846.1887	101.671
846.3324	100.0796
846.4761	98.89946
846.6198	97.07482
846.7635	100.137
846.9071	95.32077
847.0508	92.94176
847.1944	93.47276
847.3381	102.0742
847.4817	102.366
847.6253	97.53804
847.7689	100.2087
847.9125	98.34166
848.0561	98.24538
848.1996	102.2463
848.3432	99.44804
848.4868	97.84811
848.6303	97.69579
848.7738	97.26014
848.9174	97.23206
849.0609	106.7361
849.2043	102.2612
849.3478	95.0259
849.4913	91.14528
849.6348	89.50903
849.7782	86.18056
849.9217	84.28445
850.0651	81.25542
850.2086	89.07301
850.3519	84.27475
850.4954	90.50294
850.6387	95.06623
850.7821	98.28431
850.9255	96.24895
851.0688	92.37391
851.2122	91.76164
851.3555	91.96812
851.4988	88.72842
851.6422	94.15945
851.7855	94.97432
851.9288	95.90976
852.0721	94.67802
852.2153	95.96087
852.3586	90.33626
852.5018	92.64979
852.6451	91.45438
852.7883	87.00817
852.9315	88.36607
853.0748	93.27604
853.218	91.80588
853.3611	95.84783
853.5043	89.31906
853.6475	89.1217
853.7906	80.19218
853.9338	75.16743
854.0769	69.83425
854.22	59.06494
854.3632	66.36236
854.5063	64.7426
854.6494	70.42751
854.7924	78.26697
854.9355	81.80208
855.0786	88.63376
855.2216	89.77984
855.3647	83.82106
855.5077	86.8569
855.6507	83.38255
855.7937	86.79508
855.9367	92.24397
856.0797	83.24367
856.2227	87.66357
856.3657	91.55882
856.5086	89.00745
856.6516	89.77663
856.7945	92.81234
856.9374	91.15082
857.0803	88.13855
857.2232	81.85029
857.3661	83.31281
857.509	86.59634
857.6519	87.1065
857.7947	84.44756
857.9376	92.25094
858.0804	85.94884
858.2232	85.84009
858.366	89.70098
858.5089	89.57007
858.6516	89.36105
858.7944	88.27139
858.9372	91.80431
859.08	94.74158
859.2227	89.12766
859.3654	86.49635
859.5082	83.9117
859.6509	86.79436
859.7936	80.80902
859.9363	81.179
860.079	78.85116
860.2217	85.6926
860.3643	85.2849
860.507	84.07831
860.6496	82.30071
860.7922	84.40115
860.9349	86.4013
861.0775	82.1291
861.2201	84.50755
861.3627	81.02923
861.5052	82.4045
861.6478	83.65107
861.7904	79.45777
861.9329	79.56938
862.0755	81.65781
862.218	80.42767
862.3605	84.68523
862.503	82.11567
862.6455	80.70097
862.788	85.54025
862.9305	81.72203
863.0729	86.38351
863.2154	82.82265
863.3578	82.2115
863.5002	79.44809
863.6426	78.36591
863.7851	81.00752
863.9275	77.0393
864.0698	81.31376
864.2122	84.47065
864.3546	80.18271
864.4969	81.66713
864.6393	81.39182
864.7816	76.90118
864.924	80.18953
865.0662	77.63851
865.2086	72.96831
865.3508	75.68511
865.4931	75.41631
865.6354	73.7803
865.7776	74.49173
865.9199	69.76847
866.0621	63.57224
866.2043	56.53476
866.3466	58.9338
866.4888	60.79673
866.6309	61.52094
866.7731	66.63374
866.9153	67.36017
867.0574	74.98942
867.1996	73.18727
867.3417	75.61156
867.4839	73.90236
867.626	70.37638
867.7681	73.22556
867.9102	78.16084
868.0522	77.19794
868.1943	73.94776
868.3364	78.98775
868.4785	71.97438
868.6205	66.16198
868.7625	71.91956
868.9045	69.49892
869.0465	64.19925
869.1885	72.36915
869.3305	76.76108
869.4725	75.42543
869.6144	72.52425
869.7564	70.7412
869.8983	65.28255
870.0403	72.05973
870.1822	73.25968
870.3241	72.38062
870.466	61.77494
870.6079	69.26575
870.7498	67.7243
870.8916	73.32296
871.0335	72.26069
871.1754	66.08315
871.3171	66.84258
871.459	69.52776
871.6008	69.98202
871.7426	67.29571
871.8844	70.59679
872.0262	67.46804
872.1679	67.34715
872.3097	65.11322
872.4514	64.20764
872.5931	67.41093
872.7349	72.90053
872.8766	67.13332
873.0183	67.19191
873.16	72.22684
873.3017	74.49567
873.4434	70.88327
873.585	69.83759
873.7266	63.1802
873.8683	65.20123
874.0099	68.03561
874.1516	69.86822
874.2932	67.14232
874.4348	68.37126
874.5763	62.85601
874.7179	61.26692
874.8594	66.1703
875.001	69.38127
875.1425	65.70456
875.2841	64.29876
875.4256	62.04585
875.5671	62.86875
875.7086	69.13981
875.85	65.24203
875.9915	63.63486
876.133	64.76143
876.2744	64.34083
876.4159	67.66354
876.5573	66.14731
876.6987	60.13903
876.8401	61.41951
876.9815	65.29143
877.1229	61.30481
877.2643	64.83232
877.4056	65.61823
877.547	61.75339
877.6884	60.99022
877.8297	61.02337
877.971	62.22865
878.1123	70.1739
878.2536	67.13465
878.3949	60.66536
878.5362	61.25423
878.6774	64.75701
878.8187	60.2949
878.9599	63.66762
879.1011	56.7759
879.2424	58.67909
879.3836	66.67847
879.5248	62.25777
879.666	63.68403
879.8071	60.236
879.9483	62.21477
880.0895	58.54625
880.2306	57.43591
880.3718	58.24999
880.5129	57.87006
880.654	57.58035
880.7951	55.82825
880.9362	51.56361
881.0773	59.77623
881.2183	56.73523
881.3594	58.16428
881.5004	59.57233
881.6414	60.15636
881.7825	61.70885
881.9235	63.61281
882.0645	60.84072
882.2054	59.02732
882.3464	60.03467
882.4874	58.88867
882.6284	58.27412
882.7693	52.6304
882.9103	59.49369
883.0512	63.20784
883.1921	61.19638
883.333	58.11117
883.4739	59.86064
883.6147	57.83503
883.7556	58.5195
883.8965	60.0619
884.0374	63.57122
884.1782	58.74795
884.319	62.72328
884.4598	62.1211
884.6006	60.78255
884.7414	58.31481
884.8822	56.81948
885.0229	54.75794
885.1637	57.27184
885.3044	60.13667
885.4452	58.29366
885.5859	56.20748
885.7266	56.62226
885.8673	57.19175
886.008	57.58782
886.1487	57.52459
886.2894	59.83379
886.43	54.07392
886.5707	52.05057
886.7113	55.87162
886.8519	56.29075
886.9926	58.71329
887.1331	55.51886
887.2737	53.48779
887.4143	59.70491
887.5549	64.45377
887.6954	51.59325
887.836	53.87929
887.9765	55.23356
888.1171	53.8303
888.2576	53.65792
888.3981	53.65765
888.5386	47.28725
888.679	52.21795
888.8195	54.14568
888.96	54.86097
889.1004	54.02483
889.2408	55.88327
889.3813	57.67547
889.5217	57.02965
889.6621	52.5735
889.8025	53.13517
889.9429	49.23468
890.0833	51.49352
890.2236	56.102
890.364	58.79745
890.5043	63.21961
890.6446	55.24702
890.7849	53.58301
890.9252	56.80271
891.0655	55.42922
891.2058	56.61376
891.3461	54.28825
891.4863	53.20047
891.6266	53.96828
891.7668	55.57579
891.907	55.03155
892.0472	51.93742
892.1874	47.28259
892.3276	52.98598
892.4678	52.70246
892.608	49.99041
892.7481	48.54056
892.8883	47.65394
893.0284	43.25179
893.1685	43.53024
893.3087	42.93972
893.4487	45.05955
893.5889	48.40806
893.7289	51.34044
893.869	50.17405
894.009	52.75419
894.1491	50.69452
894.2891	51.63305
894.4291	51.79959
894.5692	45.65343
894.7092	46.95696
894.8491	45.3194
894.9891	44.244
895.1291	42.04065
895.269	46.23364
895.409	44.74366
895.549	35.91056
895.6888	39.85913
895.8288	43.94605
895.9687	43.56686
896.1086	42.88637
896.2484	42.6579
896.3883	39.0563
896.5281	36.75467
896.668	36.23119
896.8079	35.27667
896.9476	39.43568
897.0875	39.94798
897.2272	40.58413
897.3671	38.68558
897.5068	38.99315
897.6466	40.6717
897.7864	40.83405
897.9261	43.60576
898.0658	40.18562
898.2056	38.30225
898.3453	40.38905
898.4849	39.47091
898.6246	35.94322
898.7643	31.5725
898.904	25.78999
899.0436	23.7561
899.1833	26.59424
899.3229	31.28285
899.4625	40.14311
899.6021	39.72669
899.7417	45.09882
899.8813	41.75331
900.0209	43.05595
900.1605	35.45741
900.3	35.85041
900.4395	29.2472
900.579	33.06808
900.7186	35.80129
900.8581	36.30462
900.9976	34.91881
901.1371	33.77312
901.2766	36.69784
901.416	34.65242
901.5555	35.31256
901.6949	40.20618
901.8344	32.60227
901.9738	32.08426
902.1132	33.38334
902.2526	35.31606
902.3919	31.58548
902.5313	30.13814
902.6707	29.86445
