SPECTRUM DATA FILE
SpectrumCount:	1
PixelCount:	3648
UserName:	ToughBook User
SampleName:	
LightSource:	
Comments:	
DeviceName:	Qwave
DeviceManufacturer:	Broadcom
DeviceSerialNo:	11311

Name:	last spectrum
Date:	2024-05-02T14:34:50.4699022+02:00
ExposureTime:	0.02
TemporalAvg:	1
IntensityUnit:	normalizedCounts
CCDLoadLevel:	0.1490062
Temperature:	31.71158
DiagramColor:	200
ProcessingSteps:	335

Wavelength [nm]	Intensity1
334.421	44.68964
334.5891	43.24809
334.7573	40.06071
334.9254	34.82934
335.0935	37.159
335.2616	42.63014
335.4297	39.17405
335.5978	38.00842
335.7659	36.07028
335.934	31.70506
336.1021	31.61978
336.2701	31.27796
336.4382	37.69418
336.6063	37.42924
336.7744	35.89183
336.9424	35.22555
337.1105	34.04142
337.2785	33.83747
337.4466	38.70859
337.6146	41.64595
337.7827	41.27092
337.9507	38.78792
338.1187	40.45509
338.2867	35.74563
338.4548	40.05418
338.6228	33.17674
338.7908	33.17735
338.9588	34.62947
339.1268	36.61691
339.2948	37.21198
339.4628	36.044
339.6308	37.91977
339.7988	40.06078
339.9667	39.28584
340.1347	36.34755
340.3027	36.68462
340.4707	44.11044
340.6386	41.83826
340.8066	42.27831
340.9745	41.46991
341.1425	40.02385
341.3104	40.41096
341.4784	41.29198
341.6463	41.29395
341.8142	42.97427
341.9821	46.0463
342.1501	41.21027
342.318	42.48856
342.4859	45.50011
342.6538	43.2048
342.8217	44.89172
342.9896	46.17276
343.1575	43.38761
343.3254	44.46995
343.4933	39.3596
343.6612	38.00127
343.829	37.51593
343.9969	43.19442
344.1648	40.65167
344.3326	38.40358
344.5005	38.58033
344.6683	40.88039
344.8362	47.37394
345.004	50.78476
345.1719	47.6219
345.3397	46.58992
345.5075	40.8462
345.6754	43.75019
345.8432	38.14553
346.011	42.95962
346.1788	41.03752
346.3466	40.94036
346.5144	44.34547
346.6822	48.22246
346.85	47.29324
347.0178	42.86302
347.1856	43.92589
347.3534	43.50687
347.5211	42.2917
347.6889	38.83486
347.8567	45.60866
348.0244	42.48278
348.1922	43.64107
348.3599	40.70491
348.5277	48.20245
348.6954	43.11083
348.8632	42.74242
349.0309	45.08764
349.1986	44.24097
349.3663	43.48781
349.5341	45.64989
349.7018	47.27272
349.8695	49.15605
350.0372	54.03782
350.2049	54.44893
350.3726	49.44859
350.5403	52.83187
350.7079	48.90581
350.8756	49.52277
351.0433	53.81734
351.211	51.24885
351.3786	43.94945
351.5463	49.82893
351.714	56.00711
351.8816	51.43504
352.0493	45.84451
352.2169	44.64623
352.3846	47.17395
352.5522	50.36041
352.7198	50.20198
352.8875	52.38482
353.0551	54.90983
353.2227	58.14833
353.3903	59.20843
353.5579	60.18012
353.7255	62.73621
353.8931	57.69598
354.0607	55.40486
354.2283	56.65612
354.3958	61.18536
354.5634	55.40036
354.731	62.66261
354.8986	62.40882
355.0661	54.6939
355.2337	57.63698
355.4012	54.41919
355.5688	55.58369
355.7363	54.55817
355.9039	58.37219
356.0714	55.24992
356.239	58.51978
356.4065	54.16342
356.574	49.14283
356.7415	50.62683
356.909	50.26004
357.0765	49.66049
357.244	54.74865
357.4115	51.58784
357.579	50.13552
357.7465	49.93974
357.914	47.25334
358.0815	45.85199
358.249	44.30101
358.4164	42.03413
358.5839	44.58007
358.7513	45.78391
358.9188	49.77774
359.0862	54.58444
359.2537	59.73532
359.4211	61.83759
359.5886	58.86838
359.756	71.03711
359.9234	73.21581
360.0909	66.06654
360.2583	59.41631
360.4257	61.03204
360.5931	51.9497
360.7605	56.2765
360.9279	60.42737
361.0953	56.14077
361.2627	55.4096
361.4301	57.49851
361.5974	52.36029
361.7648	56.35186
361.9322	55.51823
362.0995	56.66521
362.2669	67.96309
362.4343	71.8912
362.6016	79.03108
362.769	69.99875
362.9363	62.15039
363.1036	63.98436
363.271	60.28799
363.4383	58.60096
363.6056	65.72329
363.7729	69.70285
363.9402	72.36379
364.1075	70.30919
364.2748	68.91474
364.4421	70.00288
364.6094	64.88944
364.7767	60.7705
364.944	71.56667
365.1113	75.37557
365.2786	74.6125
365.4458	72.01957
365.6131	77.25747
365.7803	87.04197
365.9476	84.41931
366.1148	75.28665
366.2821	76.98733
366.4493	78.24157
366.6166	80.7671
366.7838	83.11277
366.951	78.28734
367.1182	74.76457
367.2855	74.32047
367.4527	75.7543
367.6199	74.34875
367.7871	73.55166
367.9543	75.72858
368.1215	72.90203
368.2886	70.64427
368.4558	74.14394
368.623	73.33466
368.7902	72.94805
368.9573	75.18285
369.1245	87.13747
369.2917	85.90347
369.4588	83.28228
369.6259	89.51225
369.7931	92.88395
369.9602	87.92717
370.1274	86.78528
370.2945	81.60831
370.4616	76.08697
370.6287	76.40516
370.7958	76.59702
370.963	80.47499
371.1301	87.90566
371.2971	94.45731
371.4643	93.86909
371.6313	89.38159
371.7984	83.79987
371.9655	71.76481
372.1326	72.51356
372.2997	76.39695
372.4667	85.79045
372.6338	90.24807
372.8008	87.56733
372.9679	87.73337
373.1349	80.17503
373.3019	64.63107
373.469	64.395
373.636	64.66606
373.803	76.64129
373.9701	84.13811
374.1371	84.83341
374.3041	80.73565
374.4711	74.28879
374.6381	71.19229
374.8051	64.48808
374.9721	73.86645
375.1391	87.39289
375.3061	95.4401
375.473	96.32294
375.64	95.66939
375.8069	85.71788
375.9739	91.85177
376.1409	89.89033
376.3078	89.97105
376.4748	87.82141
376.6417	86.63008
376.8087	94.64857
376.9756	101.019
377.1425	101.4848
377.3094	108.8421
377.4763	106.6408
377.6432	110.2158
377.8102	112.0074
377.9771	114.4711
378.144	116.647
378.3109	117.3514
378.4777	114.7853
378.6446	101.8779
378.8115	98.97899
378.9784	97.86526
379.1452	98.7974
379.3121	94.01204
379.4789	97.09109
379.6458	95.47406
379.8127	95.82686
379.9795	99.33208
380.1463	105.2062
380.3131	115.1146
380.48	118.0333
380.6468	110.2708
380.8136	117.2349
380.9804	115.6173
381.1472	107.8754
381.314	105.8873
381.4808	91.89684
381.6476	92.22064
381.8144	93.19714
381.9812	84.92463
382.148	90.59967
382.3147	80.36843
382.4815	78.65647
382.6483	75.54018
382.815	78.07965
382.9818	76.10683
383.1485	74.45312
383.3153	76.27727
383.482	75.11994
383.6487	76.60372
383.8155	75.85101
383.9822	81.95887
384.1489	91.51242
384.3156	101.0758
384.4823	107.5607
384.649	111.1275
384.8157	106.2769
384.9824	105.2677
385.1491	109.4349
385.3158	109.501
385.4825	106.617
385.6491	101.305
385.8158	100.089
385.9825	98.24372
386.1491	106.5941
386.3157	110.7523
386.4824	114.8254
386.649	113.2678
386.8157	107.9318
386.9823	103.1839
387.1489	101.9424
387.3156	103.0543
387.4821	116.5955
387.6488	108.4721
387.8154	106.1287
387.982	107.7766
388.1486	107.8743
388.3152	108.6009
388.4818	105.6682
388.6483	100.2505
388.8149	105.2683
388.9815	114.6282
389.148	125.671
389.3146	133.5752
389.4811	133.5824
389.6477	134.6142
389.8142	135.5365
389.9808	130.9612
390.1473	130.4293
390.3138	128.0504
390.4804	126.004
390.6469	132.4174
390.8134	143.0648
390.9799	141.3022
391.1464	144.1725
391.3129	151.5312
391.4794	150.1622
391.6459	144.4949
391.8124	141.0029
391.9789	134.3278
392.1453	131.4228
392.3118	121.9559
392.4782	111.684
392.6447	106.0438
392.8112	93.24673
392.9776	82.4895
393.144	66.21915
393.3105	61.15807
393.4769	64.87759
393.6433	76.72068
393.8098	92.61138
393.9762	106.3665
394.1426	113.662
394.309	117.5627
394.4754	130.7583
394.6418	131.689
394.8082	145.5107
394.9746	153.4572
395.141	155.5302
395.3073	160.1965
395.4737	163.3628
395.64	164.4041
395.8064	154.358
395.9728	147.7616
396.1391	132.1877
396.3055	110.0201
396.4718	100.0368
396.6381	85.82985
396.8045	73.96039
396.9708	79.50839
397.1371	90.92264
397.3034	109.8924
397.4697	132.2589
397.636	152.7097
397.8023	176.3095
397.9686	181.2802
398.1349	182.2875
398.3012	181.6333
398.4675	186.7101
398.6337	191.4248
398.8	195.2117
398.9662	204.1224
399.1325	205.2886
399.2988	205.2287
399.465	202.5674
399.6313	200.7801
399.7975	201.704
399.9637	207.8973
400.1299	221.0925
400.2961	216.6693
400.4624	196.3523
400.6286	202.8785
400.7948	202.5971
400.961	217.023
401.1272	218.2671
401.2934	224.8457
401.4595	227.8224
401.6257	229.4684
401.7919	221.7531
401.9581	219.29
402.1242	224.8097
402.2904	230.5745
402.4565	232.9518
402.6227	226.6786
402.7888	224.0337
402.955	222.0305
403.1211	212.142
403.2872	202.8827
403.4533	207.7075
403.6194	224.5038
403.7856	243.686
403.9517	250.2101
404.1177	244.6544
404.2838	220.7205
404.4499	204.1807
404.616	203.7247
404.7821	209.5278
404.9482	231.0057
405.1142	245.5927
405.2803	241.479
405.4464	229.901
405.6124	227.8794
405.7784	235.1049
405.9445	234.3321
406.1105	229.1909
406.2766	210.9503
406.4426	215.1723
406.6086	229.2206
406.7746	235.7602
406.9406	244.2437
407.1066	237.5848
407.2726	235.4945
407.4386	236.0484
407.6046	226.6508
407.7706	233.1479
407.9366	241.9922
408.1025	253.2488
408.2685	255.8608
408.4344	254.2667
408.6004	262.9012
408.7664	273.1714
408.9323	276.4485
409.0983	280.4711
409.2642	269.7952
409.4301	266.8616
409.596	258.8339
409.762	250.9276
409.9279	234.7737
410.0938	211.6626
410.2597	216.0825
410.4256	241.2948
410.5915	257.6436
410.7574	264.963
410.9232	274.0727
411.0891	270.1245
411.255	283.7089
411.4209	287.6771
411.5867	280.9058
411.7526	279.6696
411.9184	279.4842
412.0843	284.7112
412.2501	283.4593
412.4159	282.1555
412.5818	280.8603
412.7476	282.9483
412.9134	279.2129
413.0792	270.8416
413.245	265.2989
413.4108	266.5771
413.5766	285.7099
413.7424	288.0012
413.9082	295.9741
414.074	293.5939
414.2397	282.6711
414.4055	276.5099
414.5713	274.6043
414.737	288.2305
414.9028	295.4146
415.0685	289.1128
415.2343	292.9225
415.4	293.3362
415.5658	284.9174
415.7315	283.4724
415.8972	283.6767
416.0629	294.9725
416.2286	317.5855
416.3943	309.3826
416.56	305.432
416.7257	298.9703
416.8914	300.2522
417.0571	288.149
417.2228	279.1205
417.3884	272.2282
417.5541	279.7623
417.7198	288.1898
417.8854	291.1539
418.0511	288.2284
418.2167	291.8649
418.3824	289.7341
418.548	284.6199
418.7136	289.0317
418.8792	287.8811
419.0449	300.7664
419.2105	319.8971
419.3761	314.9284
419.5417	305.3677
419.7073	290.8616
419.8729	283.414
420.0385	280.7844
420.204	292.3672
420.3696	297.7747
420.5352	316.2024
420.7007	328.2406
420.8663	333.6251
421.0319	333.8299
421.1974	332.2536
421.3629	334.3218
421.5285	325.7216
421.694	323.6037
421.8595	340.7939
422.0251	348.1025
422.1906	342.2659
422.3561	306.1897
422.5216	285.3734
422.6871	269.1064
422.8526	286.4165
423.0181	330.455
423.1835	336.2689
423.349	328.4206
423.5145	321.8917
423.68	320.3355
423.8454	317.9239
424.0109	329.8929
424.1763	333.8224
424.3418	342.5715
424.5072	347.7799
424.6726	334.1461
424.838	319.334
425.0035	321.0956
425.1689	327.8474
425.3343	328.8848
425.4997	322.7614
425.6651	328.1918
425.8305	334.7462
425.9959	312.1279
426.1613	320.5867
426.3267	337.1306
426.492	350.8372
426.6574	350.0307
426.8228	330.7989
426.9881	310.4336
427.1534	292.3896
427.3188	285.8755
427.4841	300.1769
427.6495	333.6938
427.8148	337.704
427.9801	349.6227
428.1454	342.6028
428.3107	333.3267
428.476	331.8661
428.6414	319.4869
428.8066	308.8722
428.9719	302.7886
429.1372	312.3037
429.3025	315.9596
429.4678	324.0018
429.633	311.5287
429.7983	287.3089
429.9636	245.4776
430.1288	243.3701
430.294	247.736
430.4593	248.0586
430.6245	241.7872
430.7897	236.402
430.955	243.7567
431.1202	261.1682
431.2854	289.6282
431.4506	328.0337
431.6158	369.4213
431.781	403.1987
431.9462	403.5921
432.1114	380.1058
432.2766	345.3796
432.4417	313.9837
432.6069	309.424
432.772	338.0633
432.9372	384.6634
433.1024	402.0713
433.2675	402.3478
433.4326	398.8135
433.5977	373.0806
433.7629	340.5582
433.928	307.3307
434.0931	300.5383
434.2582	320.7885
434.4233	352.5906
434.5884	384.5293
434.7535	402.9306
434.9186	403.0541
435.0837	386.4175
435.2488	370.1549
435.4138	376.0041
435.5789	388.2443
435.744	401.9554
435.909	399.8446
436.0741	413.9385
436.2391	422.5428
436.4042	440.7612
436.5692	429.7517
436.7342	425.7396
436.8992	419.7745
437.0643	417.6691
437.2293	405.3152
437.3943	397.4921
437.5593	396.1832
437.7243	404.6848
437.8893	413.7461
438.0542	399.1317
438.2192	368.9155
438.3842	341.1057
438.5491	338.9575
438.7141	374.471
438.8791	391.5994
439.044	398.4542
439.209	406.929
439.3739	414.063
439.5388	415.8611
439.7037	430.7643
439.8687	428.1533
440.0336	416.5247
440.1985	418.2182
440.3634	404.5007
440.5283	398.0387
440.6932	405.5286
440.8581	422.3489
441.0229	451.7338
441.1878	458.0054
441.3527	453.1025
441.5175	439.359
441.6824	434.4797
441.8472	461.3118
442.0121	466.3614
442.1769	460.3184
442.3418	456.8884
442.5066	459.2598
442.6714	466.4074
442.8362	462.7831
443.001	462.7021
443.1659	458.154
443.3307	459.2615
443.4955	448.5685
443.6602	443.0284
443.825	468.5862
443.9898	469.8022
444.1546	462.3605
444.3193	453.2805
444.4841	470.0944
444.6488	480.7602
444.8136	495.9525
444.9783	491.6047
445.1431	489.1047
445.3078	467.0236
445.4725	448.5005
445.6372	434.0376
445.802	429.0521
445.9667	435.2262
446.1314	443.9814
446.2961	464.0482
446.4608	474.4662
446.6255	476.6135
446.7901	473.5259
446.9548	484.9283
447.1195	485.9891
447.2841	497.6239
447.4488	517.3956
447.6134	525.8431
447.7781	532.5914
447.9427	508.4732
448.1074	481.9537
448.272	484.1256
448.4366	512.9708
448.6012	524.4567
448.7658	518.4495
448.9305	505.3027
449.095	503.2619
449.2596	509.3294
449.4242	510.0163
449.5888	509.1115
449.7534	524.3963
449.9179	526.3498
450.0825	540.8505
450.2471	546.3438
450.4116	555.6428
450.5762	567.5242
450.7407	563.4483
450.9052	563.9747
451.0698	567.3217
451.2343	550.7655
451.3988	550.3895
451.5633	537.3428
451.7278	543.3949
451.8923	541.7178
452.0568	546.9976
452.2213	544.0652
452.3858	537.9911
452.5503	513.4967
452.7148	497.4339
452.8792	490.605
453.0437	491.7653
453.2081	503.3867
453.3726	498.5521
453.537	505.4551
453.7015	525.8122
453.8659	548.4479
454.0303	561.9861
454.1947	554.7642
454.3592	546.3413
454.5236	542.7033
454.688	521.2097
454.8524	520.5042
455.0168	509.5104
455.1811	520.967
455.3455	537.2969
455.5099	540.0542
455.6743	547.5439
455.8386	561.5892
456.003	572.1289
456.1673	574.598
456.3317	577.256
456.496	546.4309
456.6603	547.2693
456.8246	565.0572
456.989	566.772
457.1533	552.1242
457.3176	561.8816
457.4819	581.33
457.6462	584.9764
457.8105	574.0728
457.9748	559.8677
458.1391	532.5385
458.3033	528.3285
458.4676	536.5757
458.6319	542.2147
458.7961	556.2344
458.9604	562.7982
459.1246	550.7459
459.2888	540.3093
459.4531	552.9733
459.6173	553.2159
459.7815	551.9061
459.9457	550.2127
460.11	549.0645
460.2741	559.5612
460.4384	556.7087
460.6025	564.0487
460.7667	576.265
460.9309	589.5559
461.0951	572.5089
461.2592	550.2762
461.4234	562.1822
461.5876	571.6295
461.7517	569.352
461.9159	563.9984
462.08	570.0258
462.2441	583.447
462.4082	580.6274
462.5724	571.053
462.7365	568.1466
462.9006	584.4452
463.0647	586.6693
463.2288	581.8325
463.3929	580.6112
463.557	575.0739
463.721	573.3518
463.8851	573.041
464.0492	566.9485
464.2132	578.0893
464.3773	585.1418
464.5414	570.5336
464.7054	556.149
464.8694	554.0891
465.0334	561.4652
465.1975	575.407
465.3615	587.2205
465.5255	571.7759
465.6895	572.952
465.8535	593.988
466.0175	612.1736
466.1815	613.3843
466.3455	587.6984
466.5095	564.6761
466.6734	542.0214
466.8374	539.8514
467.0014	566.1157
467.1653	584.0544
467.3293	580.7784
467.4932	596.8669
467.6571	603.9269
467.8211	601.7438
467.985	587.568
468.1489	585.8328
468.3128	593.4874
468.4767	611.8721
468.6406	605.2623
468.8045	596.4351
468.9684	602.6046
469.1323	607.0692
469.2962	602.157
469.46	603.5914
469.6239	607.051
469.7878	603.1039
469.9516	591.5868
470.1154	574.2314
470.2793	561.2629
470.4431	570.258
470.607	583.3419
470.7708	585.9201
470.9346	581.1277
471.0984	587.08
471.2622	594.8553
471.426	599.5887
471.5898	608.2627
471.7536	630.8001
471.9174	633.6689
472.0811	637.5089
472.2449	638.0324
472.4087	643.9362
472.5724	625.9736
472.7362	610.7172
472.8999	594.2473
473.0637	585.2986
473.2274	583.8796
473.3911	602.2405
473.5548	602.6257
473.7185	604.024
473.8822	602.3432
474.0459	614.5554
474.2096	615.9843
474.3733	622.3423
474.537	627.6489
474.7007	627.9847
474.8643	623.0082
475.028	630.3975
475.1917	626.6873
475.3553	611.1573
475.519	603.9465
475.6826	601.0895
475.8463	614.058
476.0099	617.0783
476.1735	616.1802
476.3371	599.8278
476.5007	587.6779
476.6643	588.6821
476.8279	594.7078
476.9915	612.7412
477.1551	623.3184
477.3187	621.0115
477.4823	628.4518
477.6458	629.9546
477.8094	642.0054
477.9729	637.0406
478.1365	629.4147
478.3	615.741
478.4636	601.4327
478.6271	595.1491
478.7906	596.738
478.9541	604.0958
479.1176	615.447
479.2812	640.6785
479.4447	640.31
479.6082	637.1152
479.7716	647.3074
479.9351	628.1918
480.0986	623.9922
480.2621	628.6331
480.4255	624.067
480.589	616.186
480.7524	609.3459
480.9159	616.9013
481.0793	621.9075
481.2428	620.4323
481.4062	628.6522
481.5696	636.8146
481.733	636.6479
481.8964	640.4532
482.0598	637.2476
482.2232	628.7272
482.3866	615.7343
482.55	615.5836
482.7134	637.0981
482.8768	635.9567
483.0401	622.9537
483.2035	616.9489
483.3668	624.1955
483.5302	631.2132
483.6935	622.2598
483.8568	616.0251
484.0202	609.2921
484.1835	606.4173
484.3468	615.3747
484.5101	622.9446
484.6734	631.2656
484.8367	634.4039
485	629.5005
485.1633	625.8145
485.3266	606.4404
485.4899	597.0659
485.6531	581.2192
485.8164	537.8696
485.9796	483.456
486.1429	457.1043
486.3061	464.7718
486.4694	516.7443
486.6326	565.647
486.7958	589.9284
486.959	581.2759
487.1223	560.3805
487.2855	563.8075
487.4486	582.6074
487.6118	608.2516
487.775	611.1045
487.9382	621.1751
488.1014	631.3366
488.2646	632.4493
488.4277	625.6806
488.5909	604.2833
488.754	600.267
488.9171	579.7798
489.0803	571.1496
489.2434	583.8125
489.4066	610.0616
489.5697	651.8127
489.7328	670.4768
489.8959	658.9677
490.059	643.3115
490.2221	640.1284
490.3852	629.0554
490.5482	629.7209
490.7113	626.7552
490.8744	617.6332
491.0374	602.6758
491.2005	603.3719
491.3636	629.5243
491.5266	633.6784
491.6896	615.6117
491.8527	590.5829
492.0157	554.718
492.1787	555.0837
492.3417	577.721
492.5047	602.2386
492.6677	612.2202
492.8307	641.8527
492.9937	648.7397
493.1567	630.6523
493.3196	626.2897
493.4826	621.0794
493.6456	595.9878
493.8085	600.3413
493.9715	601.7334
494.1344	618.7906
494.2974	644.3189
494.4603	650.2823
494.6232	640.896
494.7861	645.1655
494.949	655.0469
495.1119	659.3983
495.2748	644.4777
495.4377	630.2156
495.6006	606.3745
495.7635	593.8055
495.9264	602.5141
496.0892	632.7097
496.2521	670.0256
496.4149	662.6481
496.5778	648.7486
496.7407	634.3314
496.9035	634.6166
497.0663	640.629
497.2291	644.1784
497.3919	660.1255
497.5547	667.2685
497.7176	646.2407
497.8804	634.6912
498.0432	626.9125
498.2059	609.419
498.3687	582.1417
498.5315	593.0395
498.6942	616.8179
498.857	639.7065
499.0198	642.2125
499.1825	634.7761
499.3452	632.2449
499.508	642.4468
499.6707	646.7791
499.8334	642.5723
499.9962	638.6401
500.1589	619.8712
500.3216	613.4206
500.4843	608.2841
500.6469	603.8091
500.8096	615.3774
500.9723	630.3688
501.135	627.7426
501.2976	608.0863
501.4603	602.1009
501.623	600.3753
501.7856	616.1057
501.9482	620.7789
502.1109	621.5223
502.2735	632.4866
502.4361	633.9893
502.5987	638.7139
502.7614	637.0061
502.924	646.2414
503.0865	655.8973
503.2491	675.3641
503.4117	663.0559
503.5743	655.2014
503.7368	634.6841
503.8994	613.8879
504.062	598.702
504.2245	613.1564
504.3871	634.0425
504.5496	666.1322
504.7121	663.8188
504.8746	650.6047
505.0372	642.6519
505.1997	645.8599
505.3622	656.5037
505.5247	660.74
505.6872	678.7264
505.8497	690.2999
506.0121	691.7219
506.1746	689.552
506.3371	682.033
506.4995	670.4076
506.662	656.0573
506.8244	649.5901
506.9869	660.8187
507.1493	658.0104
507.3117	655.4072
507.4742	657.7047
507.6366	657.3069
507.799	639.1403
507.9614	623.0378
508.1238	605.0939
508.2862	630.7793
508.4485	647.844
508.6109	662.844
508.7733	669.5548
508.9357	664.676
509.098	671.9585
509.2604	687.3348
509.4227	676.0627
509.5851	661.8227
509.7474	643.9641
509.9097	626.7708
510.072	635.8712
510.2343	650.171
510.3966	667.6366
510.5589	667.7378
510.7212	644.6884
510.8835	632.9142
511.0458	634.4634
511.2081	653.1522
511.3703	666.3311
511.5326	666.0533
511.6949	672.2465
511.8571	669.3087
512.0193	664.0777
512.1816	653.5396
512.3438	632.9292
512.506	612.7242
512.6682	621.8184
512.8304	617.9736
512.9926	620.803
513.1548	622.8588
513.317	629.6764
513.4792	641.3515
513.6414	635.6251
513.8035	622.7267
513.9657	594.1964
514.1279	586.061
514.29	603.8004
514.4521	608.3492
514.6143	616.9768
514.7764	617.6405
514.9385	627.4403
515.1006	632.7274
515.2628	622.5281
515.4249	620.9962
515.587	626.0685
515.7491	632.9692
515.9111	630.4829
516.0732	627.9494
516.2353	622.0817
516.3973	596.7175
516.5594	558.1466
516.7214	522.4231
516.8835	506.5711
517.0455	504.7963
517.2076	502.5151
517.3696	522.2076
517.5316	571.6326
517.6937	613.8129
517.8557	630.5548
518.0176	613.3043
518.1796	560.5587
518.3416	521.73
518.5036	517.1954
518.6656	561.6055
518.8275	597.6422
518.9895	605.2379
519.1514	603.8243
519.3134	600.85
519.4753	592.9039
519.6373	597.902
519.7992	618.7099
519.9611	628.9816
520.123	632.475
520.2849	632.4125
520.4468	619.288
520.6087	599.1572
520.7706	596.3934
520.9325	603.9306
521.0944	623.7899
521.2562	641.4248
521.4181	646.214
521.58	643.7423
521.7418	630.3892
521.9036	630.2656
522.0655	651.9331
522.2273	656.8965
522.3891	630.2218
522.551	609.7152
522.7128	589.4954
522.8746	604.3416
523.0363	618.0383
523.1981	620.2753
523.3599	618.1758
523.5217	627.7567
523.6835	649.0352
523.8452	659.8521
524.007	675.795
524.1687	671.8248
524.3304	665.6614
524.4922	667.0498
524.6539	656.0193
524.8157	653.7003
524.9774	639.1971
525.1391	650.0866
525.3008	652.3132
525.4625	645.479
525.6241	660.146
525.7858	664.3851
525.9475	664.8869
526.1092	643.5027
526.2709	616.5156
526.4325	590.9386
526.5942	571.7371
526.7558	566.2882
526.9174	563.1932
527.079	566.4532
527.2407	583.4642
527.4023	611.2181
527.5639	635.0886
527.7255	646.8346
527.8871	655.7577
528.0487	649.5069
528.2103	636.1616
528.3718	638.3538
528.5334	644.8309
528.695	659.7641
528.8565	679.6054
529.0181	681.5485
529.1796	674.8991
529.3412	669.5797
529.5027	663.3277
529.6642	646.0947
529.8257	634.452
529.9872	637.2062
530.1487	647.8298
530.3102	655.9495
530.4717	674.3215
530.6332	680.1373
530.7947	672.5784
530.9562	681.6021
531.1176	679.5131
531.2791	678.1371
531.4405	667.1162
531.6019	654.6051
531.7634	656.7593
531.9248	656.1777
532.0862	662.7615
532.2477	647.4457
532.4091	624.6326
532.5704	609.0792
532.7319	593.8677
532.8932	582.9706
533.0546	591.3303
533.216	617.2685
533.3774	643.3444
533.5388	638.3454
533.7001	647.1063
533.8615	641.3096
534.0228	620.461
534.1841	613.7071
534.3455	632.8113
534.5068	642.183
534.6681	634.3409
534.8293	627.6564
534.9907	633.1119
535.152	637.034
535.3132	636.2422
535.4745	653.3373
535.6358	658.3922
535.7971	663.2291
535.9583	660.4846
536.1196	659.6882
536.2808	637.782
536.4421	617.7877
536.6033	609.951
536.7645	599.4064
536.9258	599.2517
537.087	601.102
537.2482	592.5442
537.4094	609.3752
537.5706	632.7672
537.7318	628.2831
537.8929	633.7356
538.0541	627.6838
538.2153	617.5134
538.3764	614.2019
538.5376	621.3096
538.6987	637.1884
538.8599	620.8266
539.021	618.9756
539.1821	610.4461
539.3432	608.9034
539.5043	600.7373
539.6655	598.7691
539.8265	593.1686
539.9876	590.1268
540.1487	598.6079
540.3098	592.0543
540.4708	572.1075
540.6319	576.4431
540.793	580.0368
540.954	590.7372
541.1151	590.7918
541.2761	595.7617
541.4371	604.0881
541.5981	606.6277
541.7592	610.583
541.9202	623.0388
542.0812	617.5635
542.2422	598.047
542.4031	591.061
542.5641	600.5767
542.7251	608.6334
542.886	595.5506
543.0471	595.9167
543.208	599.2093
543.369	598.7886
543.5298	595.8796
543.6908	604.2903
543.8517	617.5563
544.0126	616.5782
544.1736	624.2238
544.3345	614.9089
544.4954	590.8655
544.6563	586.3177
544.8171	588.3392
544.978	612.8902
545.1389	622.4179
545.2997	619.1102
545.4606	599.9166
545.6215	600.8951
545.7823	601.1084
545.9432	619.066
546.104	618.6502
546.2648	608.4561
546.4256	603.1622
546.5864	604.2682
546.7473	611.3364
546.908	619.8005
547.0688	610.9083
547.2296	614.5557
547.3904	603.6091
547.5511	595.3444
547.7119	585.3533
547.8727	584.1489
548.0334	597.3088
548.1942	601.6736
548.3549	600.3218
548.5156	615.2559
548.6763	613.5236
548.837	609.6227
548.9977	613.7065
549.1584	610.8893
549.3192	609.6368
549.4798	616.011
549.6405	607.8412
549.8011	606.1021
549.9619	612.6281
550.1225	602.6575
550.2831	602.142
550.4438	617.5711
550.6044	608.426
550.765	598.6122
550.9257	608.5646
551.0863	606.8958
551.2469	593.9893
551.4075	593.9899
551.5681	604.6671
551.7287	608.7453
551.8893	607.5923
552.0498	604.1194
552.2104	608.691
552.371	610.1172
552.5315	601.7273
552.6921	588.4074
552.8526	587.9183
553.0131	579.6018
553.1736	591.4406
553.3342	602.0349
553.4947	596.7117
553.6552	592.4795
553.8157	588.0729
553.9762	594.4538
554.1367	595.1179
554.2971	597.3018
554.4576	597.1479
554.618	597.1976
554.7785	601.1584
554.939	609.4299
555.0994	606.8486
555.2598	603.2131
555.4203	596.9396
555.5807	591.4369
555.7411	595.6675
555.9015	593.4474
556.0619	593.1567
556.2223	582.8712
556.3827	575.4537
556.5431	578.8649
556.7034	580.9827
556.8638	578.622
557.0242	569.3985
557.1845	564.779
557.3448	568.4737
557.5052	567.5583
557.6655	567.0028
557.8259	573.5808
557.9861	583.8406
558.1465	583.7704
558.3068	583.7125
558.467	560.0911
558.6274	549.912
558.7877	530.6738
558.9479	538.1375
559.1082	546.8685
559.2684	548.8817
559.4287	550.4705
559.5889	561.2324
559.7491	552.1534
559.9094	542.1327
560.0696	538.2223
560.2299	538.4309
560.3901	545.9015
560.5502	561.2446
560.7104	574.4794
560.8707	581.6356
561.0308	581.1804
561.191	569.4403
561.3511	563.0962
561.5114	542.5452
561.6714	534.7424
561.8316	550.3062
561.9918	554.9305
562.1519	553.7275
562.312	540.4501
562.4722	549.0975
562.6323	545.7706
562.7924	548.8427
562.9525	560.0576
563.1125	568.5107
563.2726	559.9728
563.4327	557.9259
563.5928	555.7805
563.7528	543.136
563.9129	543.4219
564.0729	551.6348
564.233	553.8345
564.393	558.978
564.553	555.887
564.7131	562.5021
564.873	557.6586
565.0331	548.6785
565.1931	547.2714
565.353	546.6392
565.5131	537.5797
565.673	530.6161
565.833	528.7276
565.9929	528.4585
566.1529	518.0214
566.3129	536.73
566.4728	541.246
566.6328	543.6102
566.7927	550.1337
566.9526	545.3633
567.1125	554.587
567.2724	557.1523
567.4323	551.3522
567.5922	551.2919
567.7521	553.8433
567.9119	551.0807
568.0718	534.679
568.2317	531.5021
568.3915	532.4529
568.5514	529.7311
568.7112	515.3286
568.871	528.0742
569.0309	533.2209
569.1907	537.9629
569.3505	537.4769
569.5103	526.8121
569.6701	521.6464
569.8299	527.8256
569.9897	533.4634
570.1495	529.4457
570.3092	530.9609
570.469	531.6941
570.6287	525.1295
570.7885	511.1241
570.9482	505.4916
571.108	503.5145
571.2677	506.0385
571.4274	513.4008
571.5871	528.6853
571.7468	529.2181
571.9066	525.6868
572.0662	530.595
572.2259	534.2659
572.3856	537.2293
572.5452	535.5665
572.7049	533.5035
572.8646	536.6404
573.0242	534.7386
573.1838	544.3926
573.3435	535.3983
573.5031	538.4816
573.6627	539.552
573.8223	537.0295
573.9819	531.1771
574.1415	537.4964
574.3011	529.7537
574.4607	530.446
574.6203	529.2118
574.7798	518.4372
574.9394	517.2983
575.099	518.9669
575.2585	520.4297
575.418	519.2142
575.5776	515.8776
575.7371	517.5826
575.8966	524.6444
576.0562	513.8424
576.2156	512.3013
576.3751	509.2297
576.5346	521.8674
576.6941	525.2729
576.8536	528.9843
577.0131	531.329
577.1725	527.8101
577.332	524.8599
577.4914	523.7336
577.6508	520.6211
577.8103	516.5748
577.9697	506.58
578.1291	502.1423
578.2885	497.2293
578.4479	498.3412
578.6073	497.2873
578.7667	502.7793
578.9261	508.0054
579.0854	510.4041
579.2448	502.2425
579.4042	500.6298
579.5635	513.1292
579.7229	502.4292
579.8822	493.881
580.0416	509.4088
580.2009	509.9778
580.3602	497.2558
580.5195	493.2831
580.6788	493.3016
580.8381	505.1726
580.9974	494.1409
581.1566	496.3304
581.3159	502.4279
581.4752	497.7885
581.6345	490.9021
581.7937	497.4341
581.9529	497.1366
582.1122	496.276
582.2714	495.0724
582.4306	505.6955
582.5898	491.119
582.749	492.7297
582.9082	497.7435
583.0674	504.3986
583.2266	497.7175
583.3857	483.8598
583.5449	494.5669
583.7041	489.091
583.8633	493.9838
584.0224	495.1759
584.1815	491.6018
584.3407	493.8549
584.4998	483.5229
584.6589	476.7333
584.818	477.1207
584.9771	480.6088
585.1362	482.2937
585.2953	486.9922
585.4544	487.2041
585.6135	481.1836
585.7725	467.5332
585.9316	470.8948
586.0906	467.4812
586.2497	466.3884
586.4087	473.0437
586.5677	472.9095
586.7267	475.5219
586.8858	475.2451
587.0448	475.2444
587.2038	474.6153
587.3628	464.1728
587.5218	464.687
587.6807	465.3861
587.8397	463.5367
587.9987	459.0452
588.1577	456.9328
588.3166	446.2558
588.4755	450.9229
588.6345	441.8701
588.7934	422.645
588.9523	412.8055
589.1112	410.578
589.2701	415.3083
589.429	409.5527
589.5879	415.1169
589.7468	409.6368
589.9056	414.3997
590.0645	426.8584
590.2234	448.5968
590.3822	455.4551
590.5411	445.5382
590.6999	438.532
590.8588	441.5326
591.0176	437.7218
591.1764	443.7673
591.3352	446.0056
591.494	443.8081
591.6528	434.6301
591.8116	430.6376
591.9703	445.2862
592.1291	439.6836
592.2878	434.8949
592.4467	435.4458
592.6053	443.8946
592.7641	441.8017
592.9229	444.9239
593.0816	437.5199
593.2403	443.1891
593.399	442.8021
593.5577	439.7058
593.7164	436.0284
593.8751	437.5036
594.0338	428.0656
594.1924	436.0636
594.3511	429.5734
594.5098	434.3069
594.6684	429.237
594.8271	427.5303
594.9857	434.0176
595.1443	429.683
595.303	433.0296
595.4615	441.0747
595.6202	434.3405
595.7787	434.767
595.9374	443.0794
596.0959	441.114
596.2545	435.1332
596.4131	435.427
596.5717	439.91
596.7302	437.7681
596.8887	425.7778
597.0473	429.3478
597.2058	434.7018
597.3644	436.8791
597.5229	436.7519
597.6814	434.5506
597.8399	436.5862
597.9984	435.4611
598.1569	429.0399
598.3154	434.2195
598.4738	438.3064
598.6323	438.3106
598.7908	435.1112
598.9492	436.632
599.1076	434.5081
599.2661	432.6587
599.4245	432.2757
599.5829	437.093
599.7413	435.2553
599.8997	425.6841
600.0581	429.1756
600.2165	438.0518
600.3749	438.7127
600.5333	429.6437
600.6917	419.0614
600.85	417.3078
601.0084	413.3476
601.1667	417.681
601.325	419.9144
601.4833	426.4776
601.6417	427.0009
601.8	424.1547
601.9583	423.0275
602.1166	413.0875
602.2749	423.031
602.4332	433.3705
602.5914	419.9055
602.7498	429.0699
602.908	436.2072
603.0662	435.306
603.2245	436.4148
603.3828	439.965
603.541	433.2459
603.6992	438.0392
603.8574	436.6052
604.0156	425.8433
604.1738	428.3734
604.332	430.0352
604.4902	428.3478
604.6484	427.0512
604.8065	430.343
604.9647	429.8515
605.1229	421.951
605.281	428.7306
605.4391	428.6748
605.5973	425.1236
605.7554	416.6759
605.9135	420.6887
606.0717	423.8806
606.2297	426.4456
606.3878	421.1832
606.5459	425.044
606.704	421.188
606.8621	425.2634
607.0201	431.8817
607.1782	425.6892
607.3362	429.5193
607.4943	434.635
607.6523	421.7177
607.8104	429.6553
607.9684	422.4883
608.1264	417.9701
608.2844	408.6838
608.4424	408.6967
608.6003	412.3787
608.7584	416.8972
608.9163	411.0763
609.0743	419.1993
609.2322	411.1164
609.3902	409.8698
609.5482	411.4306
609.7061	406.5095
609.864	412.3587
610.0219	406.369
610.1798	397.9536
610.3377	389.5218
610.4956	385.3177
610.6535	401.6879
610.8114	399.9139
610.9693	406.4799
611.1271	397.0343
611.285	401.4342
611.4429	398.843
611.6007	404.0609
611.7585	400.7199
611.9164	403.3868
612.0742	407.1095
612.232	396.1667
612.3898	396.8985
612.5476	397.189
612.7054	398.0972
612.8632	402.1707
613.0209	395.1945
613.1787	392.4921
613.3365	386.3223
613.4942	389.288
613.652	384.7789
613.8097	379.5461
613.9674	381.3432
614.1252	383.9501
614.2829	384.5298
614.4406	387.2186
614.5983	382.6863
614.756	393.1205
614.9136	379.0172
615.0714	375.4809
615.229	382.4792
615.3867	392.4618
615.5443	384.1989
615.702	379.4897
615.8596	377.9432
616.0172	372.6093
616.1748	370.5869
616.3325	369.8117
616.4901	370.4342
616.6476	370.6165
616.8052	376.7283
616.9628	374.3825
617.1204	366.5539
617.278	375.6703
617.4355	382.2636
617.5931	372.0552
617.7506	371.3953
617.9081	376.5912
618.0657	374.8069
618.2232	381.9307
618.3807	375.6273
618.5382	369.7689
618.6957	373.076
618.8532	376.3392
619.0107	376.5735
619.1682	369.3807
619.3256	368.7984
619.4831	376.6417
619.6406	380.0378
619.798	379.6311
619.9554	373.1701
620.1129	380.4349
620.2703	383.3918
620.4277	372.4579
620.5851	377.7814
620.7425	380.182
620.8998	383.1001
621.0573	377.5247
621.2146	374.5217
621.372	366.116
621.5294	362.2695
621.6867	356.6328
621.8441	358.1752
622.0013	362.7684
622.1587	365.8006
622.316	372.8684
622.4733	365.2101
622.6306	369.3923
622.7879	366.6894
622.9452	362.0781
623.1025	361.323
623.2598	362.3523
623.4171	375.3825
623.5743	366.0726
623.7316	356.4723
623.8888	362.7668
624.046	359.1375
624.2032	357.9877
624.3605	353.9673
624.5176	351.9871
624.6749	357.7232
624.8321	357.2505
624.9893	355.7096
625.1464	354.9399
625.3036	361.3747
625.4608	349.8261
625.6179	349.6409
625.7751	349.0251
625.9322	352.5146
626.0894	355.9311
626.2465	354.9683
626.4036	355.1516
626.5607	361.5442
626.7178	359.6626
626.8749	360.8376
627.032	360.1415
627.189	355.5011
627.3461	356.612
627.5032	361.0863
627.6602	349.3608
627.8173	341.5289
627.9743	332.4171
628.1313	339.7827
628.2884	346.5019
628.4454	352.5117
628.6024	348.6606
628.7594	349.5977
628.9164	352.5876
629.0734	348.1636
629.2303	345.167
629.3873	345.3904
629.5443	353.6544
629.7012	342.2355
629.8582	340.8344
630.0151	334.7903
630.172	334.372
630.3289	344.301
630.4858	343.3626
630.6428	350.0762
630.7996	353.4459
630.9565	349.1787
631.1134	349.5555
631.2703	341.9244
631.4272	345.9955
631.584	345.316
631.7408	349.0322
631.8977	334.228
632.0546	330.9459
632.2114	345.9882
632.3682	349.4275
632.525	343.2037
632.6818	347.9664
632.8386	342.7157
632.9954	349.7462
633.1522	345.9361
633.3089	340.0072
633.4657	336.0013
633.6224	337.929
633.7792	338.9117
633.9359	342.889
634.0927	338.6837
634.2494	337.6788
634.4061	335.1551
634.5628	343.5891
634.7195	341.2431
634.8762	342.4069
635.0329	343.425
635.1895	340.4683
635.3462	340.4241
635.5029	337.8743
635.6595	336.175
635.8162	347.6802
635.9728	338.1804
636.1295	331.0809
636.2861	334.5183
636.4427	335.1349
636.5992	332.1094
636.7559	333.0214
636.9124	341.657
637.069	341.7252
637.2256	340.022
637.3821	336.9849
637.5387	341.8491
637.6953	339.3636
637.8518	338.3948
638.0084	335.7393
638.1649	334.74
638.3214	334.7694
638.4779	336.4133
638.6344	343.7844
638.7909	340.8121
638.9474	338.824
639.1038	340.3767
639.2603	335.5305
639.4167	321.8954
639.5732	332.0042
639.7297	328.0434
639.8861	324.874
640.0425	313.1731
640.199	315.0386
640.3553	327.9298
640.5118	328.4881
640.6682	327.4446
640.8245	331.0388
640.981	319.6807
641.1373	311.7549
641.2936	322.1931
641.45	324.9535
641.6064	318.1035
641.7627	319.8163
641.9191	311.1411
642.0754	313.2721
642.2317	312.9833
642.388	316.8028
642.5443	317.9159
642.7006	322.9172
642.8569	318.06
643.0131	313.4111
643.1694	312.7113
643.3257	316.3848
643.4819	324.6125
643.6382	318.3612
643.7944	312.6585
643.9506	319.991
644.1069	322.3581
644.2631	314.1047
644.4193	316.6954
644.5754	321.9863
644.7316	323.9153
644.8878	310.3684
645.044	305.4612
645.2002	310.5396
645.3563	307.7861
645.5125	304.2476
645.6686	297.0079
645.8248	300.3514
645.9809	307.7422
646.137	301.8108
646.2931	295.4659
646.4492	303.1072
646.6053	305.5363
646.7614	307.9322
646.9174	304.2164
647.0735	302.9471
647.2296	297.1752
647.3856	296.5127
647.5417	296.204
647.6977	299.424
647.8537	296.6428
648.0098	293.5219
648.1658	295.9367
648.3218	300.9962
648.4777	293.274
648.6337	295.7922
648.7897	302.9959
648.9457	298.4154
649.1016	291.3167
649.2576	293.1998
649.4135	289.7765
649.5695	278.8153
649.7254	280.681
649.8813	283.331
650.0372	292.3721
650.1932	294.4636
650.3491	297.5311
650.5049	292.9698
650.6608	289.7184
650.8167	295.3455
650.9725	291.4867
651.1284	302.7102
651.2842	297.2655
651.4401	284.1889
651.5959	274.6297
651.7518	273.1174
651.9076	275.1574
652.0634	282.3155
652.2192	287.323
652.3749	286.0031
652.5308	295.7866
652.6865	290.8754
652.8423	284.854
652.998	280.0734
653.1538	280.6858
653.3096	281.9363
653.4653	283.0612
653.621	281.1781
653.7767	285.0104
653.9324	293.0734
654.0881	290.3974
654.2438	288.0466
654.3995	284.3592
654.5552	271.9398
654.7109	275.9568
654.8665	282.1063
655.0222	280.7342
655.1778	273.3911
655.3334	276.3799
655.4891	269.3181
655.6447	267.1021
655.8003	269.524
655.9559	256.2202
656.1115	245.6903
656.2671	226.5397
656.4227	223.5873
656.5782	233.9645
656.7338	248.7615
656.8893	263.7346
657.0449	273.3109
657.2004	271.5168
657.356	267.8205
657.5115	263.3648
657.667	275.063
657.8225	276.0913
657.978	274.8656
658.1335	280.8136
658.289	284.2294
658.4445	281.0633
658.5999	283.3157
658.7554	281.2223
658.9108	281.0291
659.0663	280.7932
659.2217	280.5154
659.3771	280.353
659.5325	275.8767
659.6879	275.9995
659.8433	285.0411
659.9987	275.2115
660.1541	280.9585
660.3095	290.0491
660.4648	291.2412
660.6202	282.0199
660.7756	281.3008
660.9309	281.6505
661.0862	284.7728
661.2416	288.7851
661.3969	277.3185
661.5522	274.3692
661.7075	281.6948
661.8628	288.7763
662.0181	283.1093
662.1733	282.4528
662.3286	286.8157
662.4839	285.3591
662.6391	279.4089
662.7944	276.2756
662.9496	277.4888
663.1048	282.4458
663.26	280.6274
663.4152	275.749
663.5704	271.6952
663.7256	278.5072
663.8808	281.065
664.036	276.1806
664.1912	274.4091
664.3463	272.6577
664.5015	274.244
664.6566	276.4576
664.8118	269.3504
664.9669	274.3197
665.122	276.1074
665.2771	279.3282
665.4322	273.8542
665.5873	274.9099
665.7424	284.1211
665.8975	279.7639
666.0526	274.9667
666.2076	278.6918
666.3627	276.5435
666.5177	271.2065
666.6727	270.9604
666.8278	275.1617
666.9828	274.8618
667.1378	271.6233
667.2928	280.5968
667.4478	276.8381
667.6028	279.0675
667.7578	271.7928
667.9127	264.0675
668.0677	267.3518
668.2226	277.2364
668.3776	279.8842
668.5325	267.5206
668.6874	271.2752
668.8423	274.934
668.9973	281.2795
669.1522	277.6597
669.3071	268.3186
669.4619	272.3011
669.6168	266.989
669.7717	261.3757
669.9265	268.0771
670.0814	265.5596
670.2362	262.3005
670.3911	262.7961
670.5459	259.1786
670.7007	261.6916
670.8555	264.2097
671.0103	263.9034
671.1651	257.7947
671.3199	258.698
671.4747	260.5196
671.6295	270.1965
671.7842	263.6328
671.939	254.1069
672.0937	258.0954
672.2484	256.4343
672.4031	255.4203
672.5579	256.3295
672.7126	258.5989
672.8673	261.5637
673.022	262.6375
673.1767	257.7709
673.3314	255.2393
673.486	258.9948
673.6407	258.3715
673.7953	259.8685
673.95	251.1493
674.1046	257.9332
674.2592	265.3842
674.4138	256.3645
674.5684	258.299
674.723	258.8862
674.8776	254.8572
675.0322	247.9381
675.1868	253.4134
675.3414	252.9844
675.4959	258.9349
675.6505	258.1123
675.805	253.9182
675.9595	251.2753
676.1141	249.1995
676.2686	251.3042
676.4231	255.0061
676.5776	252.4361
676.7321	248.7752
676.8866	254.8452
677.041	247.6944
677.1955	247.7233
677.35	238.8299
677.5044	241.9989
677.6589	243.3499
677.8133	246.914
677.9677	241.9979
678.1221	238.0446
678.2766	243.7928
678.4309	238.473
678.5853	235.291
678.7397	246.7464
678.8941	247.3972
679.0485	241.9068
679.2028	237.347
679.3571	246.4292
679.5115	242.1783
679.6658	236.955
679.8201	231.3165
679.9744	240.2458
680.1288	240.4143
680.2831	237.3015
680.4373	237.3922
680.5916	240.0217
680.7459	238.588
680.9001	233.9805
681.0544	228.5632
681.2087	229.6397
681.3629	235.8506
681.5171	239.5505
681.6713	239.7785
681.8256	237.3326
681.9797	235.408
682.134	241.7108
682.2881	234.5533
682.4423	234.2721
682.5965	232.6125
682.7507	234.0332
682.9048	234.7319
683.059	231.6469
683.2131	232.5959
683.3672	233.3268
683.5213	225.2692
683.6754	220.3439
683.8295	226.3689
683.9836	222.1471
684.1377	225.1082
684.2918	219.0463
684.4459	215.1012
684.5999	223.0398
684.754	220.881
684.908	225.4693
685.062	219.7117
685.2161	217.1332
685.3701	216.25
685.5241	224.0182
685.6781	224.821
685.8321	221.0104
685.9861	213.2297
686.14	213.5058
686.294	217.7649
686.4479	220.202
686.6019	216.3165
686.7559	186.9349
686.9098	177.3552
687.0637	164.7266
687.2176	167.5223
687.3715	174.5119
687.5254	174.7728
687.6793	181.2387
687.8332	188.4171
687.9871	194.5918
688.1409	196.8229
688.2947	197.2876
688.4486	201.7089
688.6024	192.7839
688.7563	191.5126
688.9101	186.6279
689.0639	191.62
689.2177	194.7604
689.3715	191.6838
689.5253	190.2089
689.6791	194.1341
689.8328	194.7325
689.9866	197.2638
690.1403	195.5838
690.2941	193.899
690.4478	188.9903
690.6015	190.8322
690.7552	200.4709
690.9089	202.59
691.0626	202.5041
691.2164	210.2505
691.37	201.7021
691.5237	192.7049
691.6774	192.4845
691.831	196.9651
691.9847	198.8066
692.1383	192.9971
692.2919	198.9042
692.4456	196.0599
692.5992	198.7671
692.7527	196.8259
692.9064	191.0236
693.0599	194.6486
693.2136	205.9428
693.3671	198.3325
693.5207	197.6315
693.6742	192.6938
693.8278	193.6852
693.9813	189.1186
694.1348	189.9154
694.2883	190.1123
694.4418	192.5149
694.5953	194.6562
694.7488	193.4473
694.9023	193.0837
695.0558	190.8026
695.2093	199.1315
695.3627	194.5027
695.5162	193.4677
695.6696	196.8157
695.8231	200.0641
695.9764	195.6003
696.1299	189.4362
696.2833	190.8148
696.4367	198.994
696.5901	196.2204
696.7435	202.1698
696.8968	202.5339
697.0502	199.8377
697.2036	194.321
697.3569	193.9907
697.5102	188.1047
697.6635	190.8116
697.8168	188.1915
697.9702	190.0556
698.1235	191.7003
698.2768	193.6782
698.4301	191.1021
698.5833	187.7486
698.7366	188.4585
698.8898	187.8343
699.0431	186.0082
699.1964	187.4482
699.3495	189.0973
699.5028	187.9366
699.656	188.4393
699.8092	192.2705
699.9624	185.2847
700.1156	186.3774
700.2688	186.1096
700.4219	191.4411
700.5751	184.181
700.7283	179.7163
700.8814	180.6253
701.0345	187.6292
701.1877	182.6002
701.3408	186.8457
701.4939	182.405
701.647	180.5677
701.8001	190.4294
701.9532	186.8509
702.1063	190.5143
702.2593	189.8546
702.4124	179.3454
702.5654	183.4217
702.7184	180.0789
702.8715	178.831
703.0245	183.0863
703.1776	190.1108
703.3305	186.4698
703.4835	187.9559
703.6365	184.5791
703.7895	182.1342
703.9424	179.7331
704.0954	180.4337
704.2484	185.6967
704.4013	188.004
704.5543	190.9752
704.7072	188.1299
704.8601	186.5784
705.013	192.7404
705.1659	196.4052
705.3188	178.6725
705.4717	183.0304
705.6246	188.4025
705.7774	180.2683
705.9303	184.2912
706.0831	182.1355
706.236	181.6659
706.3888	183.4303
706.5416	188.2036
706.6944	187.0072
706.8472	182.3417
707	181.35
707.1528	180.9666
707.3056	186.7521
707.4583	188.6561
707.6111	182.8941
707.7639	181.9068
707.9166	180.4525
708.0693	189.7358
708.222	183.625
708.3748	184.1065
708.5275	184.2576
708.6802	176.8453
708.8328	179.9572
708.9855	179.7497
709.1382	178.4504
709.2909	185.3125
709.4435	177.2651
709.5962	178.2877
709.7488	183.4436
709.9014	184.6646
710.054	184.9087
710.2067	182.3245
710.3593	179.7207
710.5118	181.8203
710.6644	178.9765
710.817	178.1483
710.9695	183.1217
711.1221	180.4303
711.2747	183.3145
711.4272	174.0699
711.5797	177.0438
711.7322	180.5715
711.8848	178.4507
712.0373	172.1005
712.1898	172.5498
712.3422	177.0032
712.4948	180.9543
712.6472	181.8257
712.7996	179.5279
712.9521	171.407
713.1046	173.7674
713.257	174.3699
713.4094	175.5683
713.5618	173.8669
713.7142	179.4385
713.8666	178.2985
714.019	176.3113
714.1714	177.2388
714.3237	172.7767
714.4761	175.0349
714.6285	179.6898
714.7808	172.9612
714.9331	172.9508
715.0854	175.9852
715.2378	171.4822
715.3901	180.4464
715.5424	164.5184
715.6947	166.696
715.8469	175.41
715.9992	170.6676
716.1515	168.5372
716.3037	166.1198
716.456	158.1894
716.6082	160.0888
716.7604	157.6143
716.9127	152.7575
717.0649	156.4729
717.2171	154.9038
717.3693	145.9908
717.5214	143.2195
717.6736	147.6009
717.8258	148.765
717.978	146.227
718.1301	152.9521
718.2822	148.3608
718.4344	142.3284
718.5865	146.2502
718.7386	139.8981
718.8907	137.2157
719.0428	140.2725
719.1949	142.8588
719.3469	133.9733
719.499	138.3407
719.6511	139.9204
719.8031	143.1996
719.9551	142.9219
720.1072	138.7484
720.2592	141.4528
720.4112	136.0231
720.5632	137.6919
720.7152	144.5358
720.8672	144.0625
721.0192	150.069
721.1711	150.7319
721.3231	157.9491
721.475	156.5275
721.627	158.6034
721.7789	157.963
721.9308	154.6733
722.0828	160.3537
722.2347	156.2342
722.3866	158.9615
722.5385	152.8021
722.6903	154.3295
722.8422	159.3381
722.9941	153.4064
723.1459	147.7701
723.2977	145.024
723.4496	139.538
723.6014	140.4031
723.7532	145.2309
723.905	145.6691
724.0568	141.5593
724.2086	136.5731
724.3604	134.5217
724.5121	140.7399
724.6639	140.9014
724.8157	140.5256
724.9674	147.0929
725.1191	145.8558
725.2709	143.798
725.4226	138.1034
725.5743	137.2947
725.726	143.344
725.8777	147.3149
726.0294	147.3844
726.181	150.8242
726.3327	143.4765
726.4844	139.5398
726.636	146.8311
726.7877	149.0093
726.9393	147.7279
727.0909	147.0769
727.2425	136.5998
727.3941	136.8088
727.5457	134.7327
727.6973	132.3058
727.8488	135.054
728.0004	135.0987
728.1519	135.8486
728.3035	144.2297
728.455	148.4074
728.6066	151.8327
728.7581	144.7647
728.9095	136.3305
729.0611	133.4165
729.2126	130.7997
729.364	136.769
729.5155	139.5725
729.667	147.1252
729.8184	147.8065
729.9698	147.5364
730.1213	141.6088
730.2727	143.6517
730.4241	142.8451
730.5756	143.6422
730.7269	141.6294
730.8784	133.6751
731.0297	135.1018
731.1811	137.1624
731.3325	138.2895
731.4838	136.2833
731.6351	147.7825
731.7865	136.885
731.9378	138.7255
732.0891	145.3924
732.2404	148.8345
732.3917	143.9198
732.543	139.9455
732.6943	141.0104
732.8456	143.1247
732.9968	145.784
733.1481	141.8309
733.2993	146.6328
733.4506	145.7881
733.6018	145.5111
733.753	147.306
733.9042	150.8265
734.0554	150.3628
734.2066	148.6876
734.3578	151.4187
734.509	145.1355
734.6602	149.3068
734.8113	148.9708
734.9624	148.2316
735.1136	140.9424
735.2647	148.8969
735.4158	150.9772
735.5669	147.4756
735.718	139.5363
735.8691	147.0066
736.0201	140.6268
736.1713	143.9399
736.3223	141.9241
736.4733	139.7231
736.6244	145.4923
736.7755	145.6094
736.9265	138.1696
737.0775	139.3331
737.2285	146.8052
737.3795	143.1261
737.5305	142.1667
737.6815	146.2173
737.8324	149.9668
737.9834	151.6652
738.1343	149.0819
738.2853	139.6034
738.4362	141.9272
738.5871	150.939
738.738	147.7853
738.8889	139.7612
739.0399	140.3411
739.1907	129.7139
739.3416	140.3635
739.4925	140.8829
739.6433	137.8395
739.7942	140.5175
739.945	136.1861
740.0958	145.9982
740.2467	149.9781
740.3975	140.2146
740.5483	138.2386
740.6991	139.5682
740.8499	133.4043
741.0007	138.6166
741.1514	135.086
741.3022	139.4615
741.4529	140.5575
741.6036	141.6921
741.7544	144.3586
741.9051	141.1416
742.0558	140.8316
742.2065	139.5225
742.3572	142.0871
742.5079	136.4636
742.6586	140.3242
742.8093	142.3495
742.9599	139.9842
743.1105	140.4955
743.2612	140.1183
743.4118	138.0665
743.5624	144.5904
743.7131	140.375
743.8636	136.9319
744.0142	138.5066
744.1648	134.0545
744.3154	132.8975
744.4659	133.3188
744.6165	136.5563
744.767	131.1998
744.9176	134.5552
745.0681	135.9589
745.2186	140.8977
745.3691	141.2455
745.5197	128.6877
745.6702	134.2287
745.8206	139.0952
745.9711	136.4488
746.1215	135.8872
746.272	138.3814
746.4224	141.3332
746.5729	135.5083
746.7233	132.0854
746.8737	135.9124
747.0241	138.3596
747.1745	132.6476
747.3249	140.2476
747.4753	134.7427
747.6257	132.8498
747.776	129.9724
747.9264	130.7915
748.0767	127.7733
748.2271	137.1893
748.3774	132.3761
748.5276	131.947
748.678	133.0472
748.8282	125.8262
748.9786	134.7654
749.1288	131.3557
749.2791	124.6147
749.4294	127.7251
749.5796	131.9106
749.7299	128.8598
749.8801	128.3409
750.0303	123.7172
750.1805	121.2989
750.3307	128.8063
750.4809	130.4909
750.6311	137.8252
750.7813	131.8811
750.9314	130.7021
751.0816	117.1796
751.2318	125.0592
751.3818	128.2094
751.532	124.9465
751.6821	131.0579
751.8322	123.7489
751.9823	131.6661
752.1324	123.1973
752.2825	117.3478
752.4326	123.9781
752.5826	125.0415
752.7327	128.0714
752.8827	127.7994
753.0327	124.4437
753.1827	121.9976
753.3328	128.5612
753.4828	130.076
753.6328	125.8641
753.7828	123.1926
753.9327	122.3898
754.0827	120.1264
754.2327	120.4632
754.3826	126.2138
754.5325	121.9855
754.6825	121.4444
754.8324	128.2815
754.9823	124.5909
755.1322	125.6243
755.2821	123.8677
755.432	120.9927
755.5818	121.461
755.7318	121.5549
755.8816	123.3526
756.0314	121.7706
756.1813	122.9225
756.3311	121.9831
756.4809	119.7595
756.6307	115.9441
756.7805	119.4834
756.9303	119.6273
757.0801	120.5925
757.2299	117.3003
757.3796	112.5394
757.5294	115.7312
757.6791	119.6597
757.8289	117.3013
757.9786	117.9736
758.1283	116.4651
758.278	114.2964
758.4277	111.4819
758.5773	116.9197
758.7271	110.9944
758.8767	111.4441
759.0264	111.7604
759.176	110.4729
759.3256	105.1963
759.4753	91.59104
759.6249	82.33205
759.7745	68.60983
759.9241	62.92897
760.0737	58.4916
760.2233	59.30924
760.3729	56.65892
760.5224	52.54177
760.6719	53.69853
760.8215	53.84608
760.971	53.68681
761.1205	57.89729
761.2701	61.1221
761.4196	65.79662
761.5691	74.01588
761.7186	83.38934
761.868	88.06626
762.0175	96.25332
762.167	88.99724
762.3164	78.42105
762.4659	69.28051
762.6153	71.13963
762.7647	71.48602
762.9141	67.87868
763.0635	63.63949
763.2129	63.99769
763.3623	63.70757
763.5117	70.61839
763.661	72.25035
763.8104	69.47526
763.9597	72.59026
764.1091	78.72106
764.2584	72.10376
764.4077	72.75343
764.557	74.56374
764.7063	74.2365
764.8556	76.81662
765.0049	77.55541
765.1541	86.31568
765.3034	81.2375
765.4526	83.81613
765.6019	83.00999
765.7511	88.47219
765.9003	84.60162
766.0496	85.39146
766.1987	89.40896
766.348	90.35246
766.4971	88.89733
766.6463	86.43677
766.7955	89.05729
766.9446	96.40464
767.0938	95.8667
767.2429	91.50282
767.392	95.08508
767.5411	99.27071
767.6902	100.4808
767.8394	95.87409
767.9884	99.15544
768.1375	97.44717
768.2866	97.32185
768.4356	96.19671
768.5847	94.80336
768.7337	99.33216
768.8828	99.74615
769.0317	103.0592
769.1808	97.61322
769.3298	101.1824
769.4788	98.81039
769.6277	94.08703
769.7767	96.60477
769.9257	97.5849
770.0746	98.00602
770.2236	98.64008
770.3725	97.48248
770.5214	102.5788
770.6703	100.3917
770.8193	98.64815
770.9681	100.8087
771.1171	99.5336
771.2659	93.58775
771.4148	96.5232
771.5637	95.21086
771.7125	94.12219
771.8613	100.8368
772.0101	94.85336
772.159	89.06396
772.3078	85.91869
772.4566	94.88106
772.6054	98.63389
772.7542	99.56391
772.903	97.44048
773.0517	91.35289
773.2004	90.4166
773.3492	97.65989
773.4979	95.74875
773.6467	90.45689
773.7953	96.14075
773.944	89.84174
774.0928	86.53807
774.2415	91.64341
774.3901	86.82358
774.5388	94.76902
774.6874	97.1678
774.8361	86.06161
774.9847	86.99438
775.1334	91.87738
775.282	92.65292
775.4305	91.50314
775.5792	93.11302
775.7277	91.82358
775.8763	91.73611
776.0249	90.85023
776.1735	92.95095
776.322	93.02226
776.4705	93.9014
776.6191	92.67302
776.7676	92.617
776.9161	89.67229
777.0646	91.17586
777.2131	91.49974
777.3616	86.90138
777.5101	91.44489
777.6585	89.0735
777.8069	87.15047
777.9554	87.81147
778.1038	85.1861
778.2523	89.52616
778.4007	85.43648
778.5491	87.87127
778.6974	93.26023
778.8459	87.23994
778.9942	87.86742
779.1426	87.47231
779.291	87.61591
779.4393	87.33115
779.5876	83.58505
779.736	82.25646
779.8843	87.91255
780.0326	86.12801
780.1809	88.41646
780.3292	89.25897
780.4775	87.78584
780.6257	91.37447
780.774	92.91531
780.9222	85.68299
781.0704	90.35451
781.2187	91.7924
781.3669	90.68935
781.5151	89.33875
781.6633	88.78826
781.8115	87.18571
781.9597	87.66026
782.1078	91.51959
782.256	88.64677
782.4042	88.11452
782.5523	89.42512
782.7004	86.97729
782.8486	84.79861
782.9967	86.15939
783.1448	81.23172
783.2929	81.88158
783.441	84.35311
783.5891	82.12736
783.7371	82.2927
783.8851	80.67251
784.0332	84.54267
784.1812	85.31229
784.3293	82.90175
784.4773	84.14914
784.6253	85.62735
784.7733	80.1478
784.9213	82.69899
785.0692	84.67994
785.2172	78.94096
785.3652	83.98316
785.5131	87.84667
785.6611	82.27814
785.809	76.58517
785.9569	75.66092
786.1048	80.8651
786.2527	84.04175
786.4006	85.38305
786.5485	77.51229
786.6964	79.39692
786.8442	84.56093
786.9921	82.76646
787.1399	77.91003
787.2877	84.66833
787.4355	82.74639
787.5833	84.04854
787.7311	80.68765
787.8789	84.55021
788.0267	86.75158
788.1745	83.22392
788.3223	79.52491
788.47	80.98402
788.6177	78.92963
788.7654	82.18645
788.9132	81.24806
789.0609	70.36621
789.2086	75.38438
789.3563	77.46492
789.504	75.92576
789.6517	78.89836
789.7993	77.80181
789.947	77.33325
790.0946	78.66071
790.2422	81.01445
790.3898	73.89714
790.5375	75.28863
790.6851	76.71622
790.8326	78.96852
790.9802	76.72057
791.1278	74.05235
791.2754	73.13927
791.423	71.01109
791.5705	78.44439
791.718	80.98424
791.8655	75.94059
792.0131	72.74642
792.1606	74.12601
792.308	78.84155
792.4556	78.59438
792.603	81.17454
792.7505	78.04318
792.8979	75.86693
793.0454	75.23402
793.1928	70.39021
793.3403	70.85615
793.4877	72.49774
793.6351	74.33581
793.7825	74.47774
793.9299	76.13264
794.0772	76.29054
794.2246	65.09114
794.3719	66.78234
794.5193	71.16316
794.6666	74.23309
794.814	72.72475
794.9613	76.88327
795.1086	68.29053
795.2559	71.36398
795.4032	76.10719
795.5505	76.98316
795.6978	69.13621
795.845	70.96608
795.9922	72.89384
796.1395	70.14069
796.2867	65.98019
796.4339	66.07526
796.5811	66.20173
796.7283	68.10193
796.8755	75.29982
797.0227	75.76454
797.1699	72.60281
797.317	72.35318
797.4642	67.26745
797.6113	70.69238
797.7584	73.01114
797.9056	67.95358
798.0527	71.15386
798.1998	74.09455
798.3469	68.76283
798.494	73.80257
798.641	75.83642
798.7881	76.45517
798.9351	70.07056
799.0822	71.55177
799.2292	73.26776
799.3762	69.06566
799.5232	76.07784
799.6702	70.90122
799.8172	72.06656
799.9642	64.55482
800.1111	64.26833
800.2581	71.83329
800.4051	75.18894
800.552	74.36395
800.6989	74.3875
800.8458	72.82931
800.9927	71.46024
801.1396	67.52734
801.2866	70.61897
801.4334	71.89258
801.5803	68.43644
801.7272	65.33206
801.874	66.59721
802.0209	70.1614
802.1677	64.70776
802.3145	64.17791
802.4613	67.51149
802.6081	63.91443
802.7549	70.03773
802.9017	65.10148
803.0485	65.06871
803.1952	66.32803
803.342	66.4008
803.4887	65.50395
803.6354	68.60648
803.7822	68.90451
803.9289	65.09253
804.0756	67.31246
804.2223	69.14307
804.369	66.55701
804.5156	59.37366
804.6623	60.25669
804.8089	59.99045
804.9556	63.44097
805.1022	64.5554
805.2488	62.92101
805.3954	64.76331
805.542	60.48721
805.6886	63.80264
805.8352	63.48338
805.9818	60.48405
806.1283	60.64065
806.2749	62.56303
806.4214	60.80604
806.5679	64.14736
806.7145	63.07195
806.861	64.53333
807.0074	64.91635
807.154	66.4511
807.3004	58.19427
807.4469	60.29683
807.5934	58.44285
807.7398	61.74817
807.8862	68.45772
808.0327	60.36427
808.1791	64.87766
808.3255	63.1201
808.4719	63.11072
808.6183	57.72318
808.7647	59.59587
808.9111	57.23275
809.0574	60.65884
809.2037	58.68685
809.3501	58.90958
809.4965	60.31877
809.6428	59.04382
809.7891	58.24835
809.9354	57.25946
810.0817	58.61
810.2279	59.46165
810.3742	65.01488
810.5204	58.90529
810.6667	56.47675
810.8129	58.56908
810.9592	56.91033
811.1054	56.9674
811.2516	52.76136
811.3978	54.28267
811.5439	54.81787
811.6901	63.83211
811.8363	57.56571
811.9825	54.76441
812.1286	59.70154
812.2748	59.80511
812.4209	53.04023
812.567	56.66893
812.7131	55.98457
812.8592	58.48662
813.0053	51.96442
813.1514	52.46495
813.2974	55.86321
813.4435	52.91308
813.5895	51.38338
813.7356	53.96299
813.8816	51.78335
814.0276	51.13438
814.1736	55.94765
814.3196	52.05206
814.4656	47.57712
814.6116	47.57484
814.7576	45.77494
814.9035	51.60802
815.0494	46.51195
815.1954	51.97271
815.3413	50.14739
815.4872	50.41082
815.6331	54.41774
815.779	49.87221
815.9249	51.77431
816.0707	46.55869
816.2166	44.29587
816.3625	41.79933
816.5083	44.43141
816.6542	50.44041
816.8	45.96987
816.9458	46.1226
817.0916	47.42686
817.2374	52.85386
817.3832	52.62242
817.5289	50.31515
817.6747	50.40484
817.8204	47.29639
817.9662	46.64582
818.1119	49.42284
818.2576	51.11205
818.4034	52.22162
818.5491	51.4114
818.6948	51.45758
818.8405	48.08628
818.9861	49.53481
819.1318	46.63747
819.2774	45.78934
819.423	49.49762
819.5687	45.83228
819.7143	41.3705
819.8599	45.12171
820.0055	48.35727
820.1511	47.90146
820.2967	50.60022
820.4422	51.69448
820.5878	50.60614
820.7333	50.81709
820.8788	55.89747
821.0244	51.08203
821.1699	45.69895
821.3154	45.79419
821.4609	46.74782
821.6064	47.3295
821.7519	51.68739
821.8973	42.61595
822.0428	43.51379
822.1882	46.00188
822.3337	47.70099
822.4791	46.30419
822.6245	42.11478
822.7699	38.76237
822.9153	33.0376
823.0607	35.30965
823.2061	36.99252
823.3514	36.85492
823.4968	43.23595
823.6422	44.37687
823.7875	40.95135
823.9328	43.91925
824.0781	42.39738
824.2234	53.66115
824.3687	47.69215
824.514	48.37877
824.6592	43.33085
824.8045	44.60646
824.9498	46.87763
825.095	49.18371
825.2402	46.81173
825.3854	47.72082
825.5306	44.07032
825.6758	47.20192
825.821	42.05691
825.9662	45.95306
826.1114	47.0946
826.2565	45.99924
826.4017	47.6961
826.5468	46.5523
826.692	48.98227
826.837	47.74747
826.9822	47.79201
827.1273	45.48885
827.2723	42.00837
827.4174	45.10706
827.5625	39.5165
827.7075	40.46944
827.8526	42.55706
827.9976	47.45794
828.1426	42.5825
828.2877	43.70255
828.4327	39.77053
828.5776	42.20123
828.7227	39.50177
828.8676	46.59435
829.0126	45.92664
829.1575	45.04165
829.3024	41.82901
829.4474	40.7423
829.5923	43.17669
829.7372	41.59053
829.8821	42.63852
830.027	47.3827
830.1719	45.34991
830.3168	43.53626
830.4616	45.06574
830.6064	42.33268
830.7513	46.22743
830.8961	43.82345
831.041	47.19454
831.1857	42.99733
831.3306	41.71169
831.4753	42.443
831.6201	42.98686
831.7649	40.45014
831.9096	35.73619
832.0544	38.2504
832.1991	47.41565
832.3438	46.09427
832.4885	39.31443
832.6332	44.65584
832.778	40.58218
832.9226	39.60331
833.0673	43.98341
833.2119	41.12216
833.3566	41.09557
833.5012	41.68945
833.6459	40.88013
833.7905	37.45467
833.9351	42.53444
834.0797	38.47651
834.2243	39.78624
834.3688	51.38595
834.5134	47.80111
834.658	45.18033
834.8026	42.51177
834.9471	44.91312
835.0916	41.27133
835.2361	41.54007
835.3806	41.31918
835.5251	43.51802
835.6696	42.0458
835.8141	36.75101
835.9586	37.63596
836.103	40.58932
836.2474	43.20562
836.3918	44.4343
836.5363	39.49789
836.6807	43.52764
836.8251	39.75728
836.9695	37.7324
837.1138	44.27513
837.2582	41.1516
837.4026	45.96419
837.5469	41.93466
837.6913	42.08619
837.8356	45.17349
837.9799	42.33598
838.1242	43.14886
838.2686	43.9091
838.4128	39.06804
838.5571	45.29733
838.7014	44.26038
838.8456	41.28439
838.9899	39.50532
839.1341	43.70218
839.2783	46.36907
839.4225	42.92555
839.5667	43.5062
839.7109	35.63033
839.8551	38.60107
839.9993	41.02417
840.1434	39.86075
840.2876	41.74793
840.4317	42.22213
840.5759	43.36234
840.72	41.00965
840.8641	40.29171
841.0082	45.21516
841.1523	40.60691
841.2963	41.58704
841.4404	38.41228
841.5845	38.1825
841.7285	45.55106
841.8726	44.03279
842.0165	43.3288
842.1606	45.00565
842.3046	41.50644
842.4485	41.30286
842.5925	39.06583
842.7365	35.93889
842.8805	37.88476
843.0244	42.80473
843.1684	35.40271
843.3123	41.38877
843.4562	43.5732
843.6002	35.0627
843.744	38.27553
843.8879	42.59053
844.0318	41.05765
844.1757	38.83357
844.3195	37.47381
844.4634	37.22234
844.6072	37.69217
844.751	39.94333
844.8948	38.19496
845.0386	37.39713
845.1824	33.8518
845.3262	35.95034
845.47	40.1184
845.6138	38.1851
845.7575	40.21138
845.9012	34.89088
846.045	36.01204
846.1887	40.99771
846.3324	41.51983
846.4761	36.33894
846.6198	38.26548
846.7635	41.302
846.9071	40.61847
847.0508	39.40747
847.1944	40.73769
847.3381	42.73599
847.4817	43.07703
847.6253	37.69108
847.7689	33.90762
847.9125	35.64227
848.0561	36.53927
848.1996	37.35497
848.3432	39.61595
848.4868	33.96317
848.6303	37.42741
848.7738	34.98125
848.9174	36.44139
849.0609	38.40985
849.2043	43.25938
849.3478	37.63435
849.4913	39.48269
849.6348	36.08456
849.7782	40.08369
849.9217	36.05268
850.0651	32.00231
850.2086	31.49619
850.3519	41.59431
850.4954	37.46376
850.6387	34.54788
850.7821	38.63049
850.9255	38.54849
851.0688	40.4203
851.2122	38.40413
851.3555	31.52222
851.4988	35.15996
851.6422	31.32572
851.7855	32.5041
851.9288	36.25571
852.0721	34.71417
852.2153	35.98846
852.3586	39.30425
852.5018	39.46874
852.6451	33.75173
852.7883	38.45752
852.9315	36.27574
853.0748	39.17509
853.218	40.48907
853.3611	37.17668
853.5043	35.55827
853.6475	31.51385
853.7906	29.34791
853.9338	29.581
854.0769	26.22751
854.22	34.42962
854.3632	32.41493
854.5063	27.97032
854.6494	32.36572
854.7924	33.76314
854.9355	39.92783
855.0786	35.32859
855.2216	38.639
855.3647	35.51413
855.5077	35.95609
855.6507	30.88323
855.7937	33.40678
855.9367	32.35556
856.0797	34.85429
856.2227	38.95341
856.3657	36.1608
856.5086	36.89627
856.6516	36.1796
856.7945	36.10716
856.9374	33.87244
857.0803	37.89677
857.2232	33.53637
857.3661	31.12117
857.509	32.88382
857.6519	32.6382
857.7947	39.09609
857.9376	34.92421
858.0804	37.51727
858.2232	37.89082
858.366	34.68856
858.5089	31.71192
858.6516	36.55159
858.7944	28.43746
858.9372	34.72733
859.08	31.81921
859.2227	34.72871
859.3654	31.63095
859.5082	30.592
859.6509	28.33498
859.7936	33.11971
859.9363	29.98484
860.079	30.65528
860.2217	31.36843
860.3643	30.88668
860.507	32.7329
860.6496	32.06052
860.7922	32.43087
860.9349	33.64728
861.0775	30.24002
861.2201	34.34568
861.3627	29.27616
861.5052	31.81991
861.6478	32.89061
861.7904	33.67934
861.9329	31.96877
862.0755	33.74331
862.218	33.76122
862.3605	32.58509
862.503	35.26606
862.6455	32.71304
862.788	36.28473
862.9305	29.0456
863.0729	35.7546
863.2154	32.75388
863.3578	30.64424
863.5002	29.50334
863.6426	30.84362
863.7851	31.70219
863.9275	28.1693
864.0698	35.05576
864.2122	28.20234
864.3546	31.34216
864.4969	31.63581
864.6393	29.57529
864.7816	31.62206
864.924	37.12323
865.0662	31.35341
865.2086	28.26336
865.3508	28.87612
865.4931	25.63377
865.6354	28.20492
865.7776	31.39581
865.9199	24.32782
866.0621	28.02272
866.2043	28.46638
866.3466	27.25424
866.4888	30.7238
866.6309	26.7427
866.7731	27.08717
866.9153	30.25309
867.0574	28.96407
867.1996	32.96329
867.3417	33.39663
867.4839	30.93787
867.626	34.45288
867.7681	33.17779
867.9102	26.82867
868.0522	24.68971
868.1943	25.70229
868.3364	25.76378
868.4785	29.9347
868.6205	29.83833
868.7625	26.85036
868.9045	24.40535
869.0465	27.83072
869.1885	28.28151
869.3305	27.25958
869.4725	28.3559
869.6144	27.97694
869.7564	31.09652
869.8983	29.80112
870.0403	32.47858
870.1822	32.80637
870.3241	29.33667
870.466	31.4936
870.6079	31.51044
870.7498	31.24166
870.8916	26.83768
871.0335	30.98545
871.1754	27.05113
871.3171	29.39126
871.459	22.83228
871.6008	25.91631
871.7426	27.2079
871.8844	25.87481
872.0262	25.51287
872.1679	26.15994
872.3097	28.40385
872.4514	26.0216
872.5931	24.48558
872.7349	25.00232
872.8766	24.82558
873.0183	26.04406
873.16	25.4324
873.3017	28.25145
873.4434	28.23657
873.585	29.02778
873.7266	22.16877
873.8683	24.17247
874.0099	27.37164
874.1516	25.98545
874.2932	27.49488
874.4348	27.65324
874.5763	30.93409
874.7179	28.71141
874.8594	29.26034
875.001	27.4457
875.1425	22.3937
875.2841	26.50054
875.4256	25.2406
875.5671	29.66932
875.7086	22.61717
875.85	22.87869
875.9915	28.14861
876.133	24.39784
876.2744	27.99489
876.4159	26.02645
876.5573	25.32546
876.6987	26.83765
876.8401	26.03966
876.9815	25.98752
877.1229	24.92537
877.2643	29.25078
877.4056	23.4836
877.547	27.05059
877.6884	31.83543
877.8297	29.52649
877.971	27.12528
878.1123	23.61602
878.2536	26.30542
878.3949	28.501
878.5362	28.57536
878.6774	24.93569
878.8187	25.48861
878.9599	25.16191
879.1011	24.22376
879.2424	26.21412
879.3836	28.42669
879.5248	26
879.666	26.9818
879.8071	25.1737
879.9483	26.88734
880.0895	24.10928
880.2306	25.10824
880.3718	26.81697
880.5129	26.61689
880.654	27.05676
880.7951	23.43698
880.9362	23.94813
881.0773	27.79962
881.2183	21.57314
881.3594	20.57748
881.5004	26.14249
881.6414	29.86663
881.7825	23.90736
881.9235	23.03081
882.0645	26.117
882.2054	25.05802
882.3464	25.04181
882.4874	23.55857
882.6284	22.86886
882.7693	24.78271
882.9103	27.81186
883.0512	18.30721
883.1921	21.93162
883.333	28.6872
883.4739	25.11728
883.6147	29.23678
883.7556	27.59499
883.8965	28.36524
884.0374	25.39238
884.1782	25.43233
884.319	22.35376
884.4598	24.15897
884.6006	25.39428
884.7414	22.68778
884.8822	26.86536
885.0229	23.26009
885.1637	23.20153
885.3044	24.31995
885.4452	22.94765
885.5859	20.89029
885.7266	25.32639
885.8673	24.0367
886.008	22.24112
886.1487	23.829
886.2894	25.21385
886.43	24.49353
886.5707	21.49261
886.7113	23.67031
886.8519	25.12087
886.9926	26.11375
887.1331	23.76762
887.2737	25.39517
887.4143	22.70369
887.5549	24.1371
887.6954	20.99502
887.836	23.65284
887.9765	22.61238
888.1171	21.3637
888.2576	20.39581
888.3981	21.806
888.5386	21.45058
888.679	21.8395
888.8195	23.64868
888.96	21.05171
889.1004	22.4958
889.2408	20.77677
889.3813	20.7013
889.5217	17.53618
889.6621	19.98389
889.8025	25.14742
889.9429	21.00752
890.0833	19.59471
890.2236	18.03979
890.364	24.51787
890.5043	21.3087
890.6446	21.71561
890.7849	18.5253
890.9252	23.14179
891.0655	21.00998
891.2058	21.47655
891.3461	24.81601
891.4863	18.17451
891.6266	22.75853
891.7668	20.64615
891.907	21.14394
892.0472	20.06835
892.1874	20.16009
892.3276	26.92276
892.4678	26.42088
892.608	26.71173
892.7481	21.97953
892.8883	20.9474
893.0284	20.88813
893.1685	19.4499
893.3087	16.5049
893.4487	19.91269
893.5889	22.6786
893.7289	20.24835
893.869	23.28572
894.009	20.8997
894.1491	20.78662
894.2891	22.81157
894.4291	23.11634
894.5692	19.76248
894.7092	18.18656
894.8491	18.90826
894.9891	18.9772
895.1291	22.72262
895.269	19.70696
895.409	17.02274
895.549	15.70838
895.6888	20.17956
895.8288	21.9577
895.9687	20.81564
896.1086	17.95026
896.2484	19.5904
896.3883	17.6481
896.5281	19.3019
896.668	17.55933
896.8079	17.54986
896.9476	18.07667
897.0875	18.9742
897.2272	13.28081
897.3671	18.75086
897.5068	17.27003
897.6466	17.25677
897.7864	20.40116
897.9261	22.88474
898.0658	21.69155
898.2056	20.84199
898.3453	19.76457
898.4849	18.23882
898.6246	17.15373
898.7643	14.20981
898.904	12.61954
899.0436	15.79272
899.1833	16.4822
899.3229	13.17286
899.4625	15.67023
899.6021	17.113
899.7417	21.49846
899.8813	21.00559
900.0209	13.66006
900.1605	15.45285
900.3	20.47039
900.4395	16.16712
900.579	14.75557
900.7186	19.78782
900.8581	20.12885
900.9976	18.37556
901.1371	18.13392
901.2766	15.74642
901.416	17.59641
901.5555	21.62852
901.6949	14.0619
901.8344	15.59035
901.9738	18.06631
902.1132	17.02747
902.2526	20.04973
902.3919	20.93165
902.5313	14.71365
902.6707	17.95122
