SPECTRUM DATA FILE
SpectrumCount:	1
PixelCount:	3648
UserName:	ToughBook User
SampleName:	
LightSource:	
Comments:	
DeviceName:	Qwave
DeviceManufacturer:	Broadcom
DeviceSerialNo:	11311

Name:	last spectrum
Date:	2024-05-02T14:33:50.3356591+02:00
ExposureTime:	0.02
TemporalAvg:	1
IntensityUnit:	normalizedCounts
CCDLoadLevel:	0.163234
Temperature:	31.16721
DiagramColor:	200
ProcessingSteps:	335

Wavelength [nm]	Intensity1
334.421	37.04488
334.5891	34.11585
334.7573	35.57692
334.9254	36.8711
335.0935	40.03138
335.2616	37.53468
335.4297	41.0563
335.5978	39.14115
335.7659	36.54075
335.934	33.24929
336.1021	34.40034
336.2701	33.75937
336.4382	38.07563
336.6063	36.22271
336.7744	37.99585
336.9424	33.8662
337.1105	32.38905
337.2785	35.58512
337.4466	39.16331
337.6146	36.23119
337.7827	36.64221
337.9507	31.14067
338.1187	30.40321
338.2867	41.39469
338.4548	35.63793
338.6228	41.67428
338.7908	39.08641
338.9588	40.09565
339.1268	36.62339
339.2948	36.02276
339.4628	39.01088
339.6308	38.20449
339.7988	40.72079
339.9667	46.26023
340.1347	42.25167
340.3027	39.46562
340.4707	39.27139
340.6386	38.98048
340.8066	41.89456
340.9745	36.79889
341.1425	38.88645
341.3104	41.65614
341.4784	40.81137
341.6463	38.62187
341.8142	44.40881
341.9821	42.36589
342.1501	42.26134
342.318	43.76088
342.4859	40.98702
342.6538	42.18888
342.8217	47.36023
342.9896	49.07392
343.1575	45.97923
343.3254	41.25928
343.4933	49.28882
343.6612	47.43481
343.829	41.91049
343.9969	33.97803
344.1648	36.10124
344.3326	34.33515
344.5005	41.28595
344.6683	45.81247
344.8362	43.20837
345.004	43.81381
345.1719	49.39542
345.3397	47.62209
345.5075	46.65785
345.6754	46.53044
345.8432	45.09271
346.011	40.88293
346.1788	41.67167
346.3466	47.24465
346.5144	47.82433
346.6822	47.04157
346.85	45.52083
347.0178	42.71732
347.1856	48.93322
347.3534	43.8503
347.5211	39.33561
347.6889	38.73223
347.8567	46.16121
348.0244	50.11044
348.1922	45.42621
348.3599	43.36762
348.5277	41.36135
348.6954	45.32692
348.8632	43.29423
349.0309	42.93187
349.1986	44.44033
349.3663	48.87426
349.5341	44.88522
349.7018	47.99185
349.8695	52.88897
350.0372	58.1722
350.2049	50.86433
350.3726	48.56926
350.5403	53.35771
350.7079	51.32048
350.8756	52.25821
351.0433	51.94027
351.211	50.12203
351.3786	45.03459
351.5463	46.49815
351.714	52.83147
351.8816	55.88885
352.0493	54.02733
352.2169	44.7476
352.3846	44.60843
352.5522	50.21968
352.7198	50.88596
352.8875	55.16196
353.0551	54.6906
353.2227	59.43763
353.3903	52.79381
353.5579	54.47198
353.7255	58.91268
353.8931	60.22706
354.0607	60.95619
354.2283	59.52857
354.3958	58.90185
354.5634	57.43058
354.731	57.26764
354.8986	62.66816
355.0661	58.89584
355.2337	58.23016
355.4012	55.32012
355.5688	57.5842
355.7363	57.28192
355.9039	56.63593
356.0714	55.95904
356.239	54.87461
356.4065	57.98729
356.574	48.95018
356.7415	50.10165
356.909	45.89478
357.0765	47.43538
357.244	50.43531
357.4115	55.69587
357.579	54.77235
357.7465	51.85884
357.914	50.70928
358.0815	45.26789
358.249	40.40308
358.4164	44.08308
358.5839	44.65104
358.7513	48.42277
358.9188	53.80307
359.0862	55.99044
359.2537	62.12675
359.4211	67.67772
359.5886	65.18331
359.756	63.57438
359.9234	68.17754
360.0909	67.1936
360.2583	64.45027
360.4257	61.55704
360.5931	58.6757
360.7605	53.41073
360.9279	55.99908
361.0953	58.77468
361.2627	58.0581
361.4301	62.53477
361.5974	63.47722
361.7648	61.72223
361.9322	57.60073
362.0995	60.3985
362.2669	69.8224
362.4343	68.859
362.6016	74.31726
362.769	78.98755
362.9363	73.88161
363.1036	62.18917
363.271	55.44884
363.4383	57.63681
363.6056	68.49685
363.7729	71.02091
363.9402	67.68371
364.1075	67.67163
364.2748	68.89753
364.4421	70.16739
364.6094	62.9085
364.7767	58.85478
364.944	58.62779
365.1113	73.80682
365.2786	80.81557
365.4458	78.44375
365.6131	82.6359
365.7803	83.47012
365.9476	81.88301
366.1148	80.97759
366.2821	81.09154
366.4493	80.92599
366.6166	78.47397
366.7838	79.61675
366.951	81.32264
367.1182	78.97063
367.2855	80.05232
367.4527	81.45597
367.6199	75.91788
367.7871	69.99414
367.9543	75.32166
368.1215	78.20543
368.2886	81.93334
368.4558	79.49287
368.623	75.46587
368.7902	81.89668
368.9573	83.09791
369.1245	83.00623
369.2917	83.51614
369.4588	87.81876
369.6259	88.37436
369.7931	94.36045
369.9602	91.8848
370.1274	90.24527
370.2945	84.89285
370.4616	79.28203
370.6287	73.91676
370.7958	81.37453
370.963	79.591
371.1301	88.36221
371.2971	98.5314
371.4643	96.31091
371.6313	97.87481
371.7984	92.56926
371.9655	79.37244
372.1326	76.7476
372.2997	80.45537
372.4667	87.95772
372.6338	92.38834
372.8008	85.02635
372.9679	83.15119
373.1349	84.33048
373.3019	69.54166
373.469	63.6027
373.636	66.40553
373.803	74.82393
373.9701	85.07005
374.1371	90.43793
374.3041	91.82943
374.4711	82.01872
374.6381	71.50032
374.8051	73.91601
374.9721	75.72739
375.1391	85.88546
375.3061	89.82598
375.473	98.5191
375.64	97.53946
375.8069	93.05094
375.9739	94.86063
376.1409	95.79668
376.3078	87.33381
376.4748	89.39539
376.6417	87.4314
376.8087	93.40482
376.9756	97.51649
377.1425	101.6498
377.3094	106.2064
377.4763	108.874
377.6432	115.6237
377.8102	114.7801
377.9771	118.8198
378.144	117.947
378.3109	121.1859
378.4777	121.4708
378.6446	114.3682
378.8115	100.3268
378.9784	101.1054
379.1452	97.28355
379.3121	95.37164
379.4789	96.59601
379.6458	93.89709
379.8127	95.23001
379.9795	97.02523
380.1463	106.9076
380.3131	111.5401
380.48	113.3436
380.6468	115.916
380.8136	118.3812
380.9804	117.4903
381.1472	113.0355
381.314	108.2167
381.4808	100.5839
381.6476	94.83705
381.8144	94.06691
381.9812	94.17303
382.148	88.7134
382.3147	83.93245
382.4815	78.55984
382.6483	78.45871
382.815	73.25982
382.9818	79.69285
383.1485	80.22625
383.3153	77.55047
383.482	76.17905
383.6487	77.86527
383.8155	82.62479
383.9822	86.16905
384.1489	92.45611
384.3156	106.9593
384.4823	117.2662
384.649	118.6538
384.8157	113.6562
384.9824	117.6359
385.1491	116.3172
385.3158	118.939
385.4825	113.6448
385.6491	103.7133
385.8158	100.2366
385.9825	96.44522
386.1491	111.2126
386.3157	118.6112
386.4824	117.0593
386.649	124.3604
386.8157	115.4
386.9823	111.9079
387.1489	106.827
387.3156	112.0106
387.4821	120.0085
387.6488	122.5952
387.8154	117.8961
387.982	116.5205
388.1486	117.7297
388.3152	110.7868
388.4818	109.3688
388.6483	112.0834
388.8149	113.633
388.9815	120.6964
389.148	133.4976
389.3146	139.9451
389.4811	142.0337
389.6477	152.3536
389.8142	145.269
389.9808	142.8797
390.1473	133.4811
390.3138	130.4204
390.4804	131.4435
390.6469	138.7506
390.8134	152.1153
390.9799	158.5154
391.1464	164.7099
391.3129	159.4919
391.4794	154.3438
391.6459	148.5748
391.8124	143.1884
391.9789	142.8262
392.1453	132.1273
392.3118	134.4747
392.4782	131.682
392.6447	120.5156
392.8112	101.6115
392.9776	89.64454
393.144	73.04385
393.3105	62.82954
393.4769	68.47843
393.6433	82.51736
393.8098	93.7193
393.9762	108.7536
394.1426	117.4555
394.309	128.2738
394.4754	135.2432
394.6418	146.7376
394.8082	159.8601
394.9746	172.3657
395.141	169.7047
395.3073	173.0948
395.4737	171.0985
395.64	168.1197
395.8064	166.289
395.9728	158.7679
396.1391	139.8603
396.3055	122.2613
396.4718	106.9142
396.6381	85.60484
396.8045	78.30739
396.9708	81.77441
397.1371	88.28765
397.3034	114.3463
397.4697	130.2456
397.636	154.0794
397.8023	173.1863
397.9686	187.9727
398.1349	196.5039
398.3012	195.4383
398.4675	190.0635
398.6337	198.0952
398.8	206.0238
398.9662	211.4683
399.1325	214.4057
399.2988	212.8083
399.465	214.0164
399.6313	211.766
399.7975	216.46
399.9637	226.393
400.1299	226.8302
400.2961	222.2091
400.4624	211.6167
400.6286	213.4656
400.7948	215.6492
400.961	230.3772
401.1272	236.8264
401.2934	240.5542
401.4595	245.322
401.6257	235.9624
401.7919	236.3515
401.9581	236.6515
402.1242	238.3353
402.2904	240.0794
402.4565	231.4435
402.6227	236.9672
402.7888	246.082
402.955	234.7478
403.1211	223.4031
403.2872	215.9496
403.4533	212.7091
403.6194	239.3222
403.7856	251.4294
403.9517	257.2849
404.1177	249.2416
404.2838	237.1581
404.4499	213.1784
404.616	209.6895
404.7821	223.8715
404.9482	244.4491
405.1142	258.3311
405.2803	254.0467
405.4464	247.3734
405.6124	232.327
405.7784	231.7413
405.9445	238.1475
406.1105	238.1408
406.2766	227.936
406.4426	221.3847
406.6086	234.4305
406.7746	250.9402
406.9406	258.1413
407.1066	250.7675
407.2726	251.9338
407.4386	245.2212
407.6046	247.5638
407.7706	249.2143
407.9366	255.8392
408.1025	266.5099
408.2685	277.9256
408.4344	273.5763
408.6004	272.4659
408.7664	285.1752
408.9323	293.1131
409.0983	298.543
409.2642	293.0362
409.4301	287.338
409.596	264.5294
409.762	257.0354
409.9279	243.8329
410.0938	227.2063
410.2597	226.3251
410.4256	235.8883
410.5915	268.232
410.7574	276.8237
410.9232	278.1736
411.0891	287.7733
411.255	298.7585
411.4209	310.808
411.5867	310.0478
411.7526	298.0648
411.9184	296.5095
412.0843	289.1447
412.2501	295.322
412.4159	307.6131
412.5818	302.5888
412.7476	299.5571
412.9134	292.5588
413.0792	280.2183
413.245	271.0821
413.4108	278.562
413.5766	292.7457
413.7424	308.3031
413.9082	323.4271
414.074	318.9915
414.2397	290.4132
414.4055	293.9301
414.5713	297.3969
414.737	304.2966
414.9028	299.6387
415.0685	304.3202
415.2343	294.4955
415.4	288.2122
415.5658	290.065
415.7315	296.066
415.8972	308.42
416.0629	314.1753
416.2286	322.647
416.3943	332.1366
416.56	323.0755
416.7257	315.0578
416.8914	313.9032
417.0571	307.0983
417.2228	304.636
417.3884	294.313
417.5541	290.0434
417.7198	295.8401
417.8854	312.837
418.0511	314.9441
418.2167	306.2164
418.3824	314.9056
418.548	312.7926
418.7136	306.8125
418.8792	314.2122
419.0449	325.2531
419.2105	333.8525
419.3761	327.8589
419.5417	325.7499
419.7073	306.1405
419.8729	298.3616
420.0385	293.9012
420.204	309.3066
420.3696	329.8036
420.5352	340.1905
420.7007	349.8647
420.8663	359.9443
421.0319	373.419
421.1974	361.5022
421.3629	352.3403
421.5285	339.5393
421.694	341.552
421.8595	346.9015
422.0251	365.5977
422.1906	365.9974
422.3561	347.6313
422.5216	304.8935
422.6871	286.6258
422.8526	311.0304
423.0181	346.8225
423.1835	365.3954
423.349	359.9946
423.5145	343.8628
423.68	331.3233
423.8454	334.5329
424.0109	342.9125
424.1763	363.5559
424.3418	366.1592
424.5072	372.9434
424.6726	345.9313
424.838	338.7755
425.0035	331.6134
425.1689	345.455
425.3343	342.5025
425.4997	353.5875
425.6651	354.4907
425.8305	353.3855
425.9959	334.8176
426.1613	337.8195
426.3267	358.452
426.492	378.8725
426.6574	377.2076
426.8228	358.6836
426.9881	329.2514
427.1534	308.4384
427.3188	306.693
427.4841	320.046
427.6495	352.3048
427.8148	368.2993
427.9801	356.7303
428.1454	354.6223
428.3107	351.8914
428.476	350.1838
428.6414	334.973
428.8066	321.9627
428.9719	321.9539
429.1372	336.359
429.3025	343.3531
429.4678	356.5928
429.633	329.902
429.7983	303.9102
429.9636	271.402
430.1288	265.8882
430.294	258.6022
430.4593	263.895
430.6245	265.0148
430.7897	251.4977
430.955	256.9441
431.1202	268.1335
431.2854	296.2754
431.4506	350.4775
431.6158	390.1706
431.781	426.4719
431.9462	434.5919
432.1114	411.8776
432.2766	379.7228
432.4417	337.3729
432.6069	323.3652
432.772	364.0093
432.9372	396.4748
433.1024	419.4966
433.2675	432.7352
433.4326	427.8197
433.5977	409.7107
433.7629	372.0863
433.928	321.6168
434.0931	312.0622
434.2582	336.7879
434.4233	371.0569
434.5884	416.1588
434.7535	420.1887
434.9186	424.3911
435.0837	418.8253
435.2488	391.8713
435.4138	395.1267
435.5789	417.0255
435.744	426.0547
435.909	440.6067
436.0741	445.3801
436.2391	458.2217
436.4042	463.2731
436.5692	464.1494
436.7342	463.9222
436.8992	442.5777
437.0643	437.2552
437.2293	430.4459
437.3943	425.7145
437.5593	418.1867
437.7243	433.9998
437.8893	442.6534
438.0542	434.8235
438.2192	403.0978
438.3842	361.905
438.5491	362.6843
438.7141	400.3788
438.8791	419.7302
439.044	425.3884
439.209	431.9595
439.3739	437.9152
439.5388	453.7249
439.7037	455.085
439.8687	460.6439
440.0336	447.7327
440.1985	432.4213
440.3634	421.7242
440.5283	417.9562
440.6932	425.9059
440.8581	450.2633
441.0229	485.843
441.1878	490.5262
441.3527	482.4035
441.5175	472.8678
441.6824	468.5235
441.8472	485.3595
442.0121	502.7214
442.1769	505.8352
442.3418	494.6218
442.5066	489.0043
442.6714	506.8275
442.8362	494.2193
443.001	496.9723
443.1659	497.116
443.3307	486.1707
443.4955	478.0222
443.6602	484.866
443.825	502.8179
443.9898	516.7946
444.1546	500.8079
444.3193	484.4699
444.4841	495.925
444.6488	516.963
444.8136	529.8287
444.9783	527.7684
445.1431	519.6796
445.3078	495.9722
445.4725	477.0515
445.6372	468.8202
445.802	468.5833
445.9667	470.6893
446.1314	474.5321
446.2961	491.0683
446.4608	503.9308
446.6255	516.4128
446.7901	513.3545
446.9548	512.9811
447.1195	519.3922
447.2841	537.0756
447.4488	558.6553
447.6134	565.9346
447.7781	560.4097
447.9427	540.1945
448.1074	516.2008
448.272	515.3816
448.4366	540.8533
448.6012	557.333
448.7658	565.3293
448.9305	551.7014
449.095	545.3956
449.2596	550.8083
449.4242	547.0306
449.5888	548.0737
449.7534	551.0146
449.9179	570.7879
450.0825	575.0684
450.2471	582.8279
450.4116	602.3591
450.5762	614.5483
450.7407	616.9413
450.9052	615.824
451.0698	604.2473
451.2343	596.2309
451.3988	579.833
451.5633	589.2533
451.7278	582.7123
451.8923	582.7934
452.0568	598.1585
452.2213	594.4584
452.3858	577.7948
452.5503	559.0715
452.7148	530.6926
452.8792	518.5067
453.0437	527.5805
453.2081	546.2784
453.3726	546.5314
453.537	550.4191
453.7015	570.5775
453.8659	597.4461
454.0303	604.7215
454.1947	592.5309
454.3592	590.9072
454.5236	591.2014
454.688	584.9991
454.8524	568.582
455.0168	564.8894
455.1811	569.3259
455.3455	580.639
455.5099	568.1738
455.6743	582.1121
455.8386	610.3551
456.003	622.9512
456.1673	616.1973
456.3317	598.6674
456.496	591.5399
456.6603	588.5954
456.8246	607.058
456.989	616.2813
457.1533	604.1458
457.3176	609.4825
457.4819	617.355
457.6462	622.129
457.8105	615.8163
457.9748	598.5576
458.1391	579.0362
458.3033	567.5951
458.4676	573.1476
458.6319	584.1839
458.7961	590.5441
458.9604	606.7102
459.1246	608.8641
459.2888	600.8443
459.4531	585.9805
459.6173	581.6986
459.7815	578.3971
459.9457	590.5955
460.11	598.595
460.2741	592.3955
460.4384	600.9416
460.6025	604.6849
460.7667	608.6771
460.9309	625.3833
461.0951	623.1647
461.2592	613.2877
461.4234	610.5839
461.5876	615.0834
461.7517	607.5369
461.9159	615.0323
462.08	627.0373
462.2441	632.25
462.4082	625.6517
462.5724	626.3636
462.7365	627.3559
462.9006	638.7121
463.0647	632.2477
463.2288	634.47
463.3929	631.4423
463.557	624.0474
463.721	618.1251
463.8851	622.9145
464.0492	625.2643
464.2132	631.2094
464.3773	621.2396
464.5414	606.3898
464.7054	593.2665
464.8694	596.0272
465.0334	607.3424
465.1975	630.8696
465.3615	629.5037
465.5255	626.2673
465.6895	630.9836
465.8535	638.3214
466.0175	649.0527
466.1815	653.4443
466.3455	633.5162
466.5095	621.5101
466.6734	592.4457
466.8374	579.9299
467.0014	599.5368
467.1653	633.0272
467.3293	647.9338
467.4932	650.2126
467.6571	654.335
467.8211	644.4096
467.985	624.2504
468.1489	621.0278
468.3128	632.4017
468.4767	652.4388
468.6406	646.9846
468.8045	652.5085
468.9684	658.4518
469.1323	653.1053
469.2962	653.0148
469.46	656.3864
469.6239	665.2831
469.7878	658.6879
469.9516	640.4062
470.1154	616.5215
470.2793	600.8041
470.4431	612.8251
470.607	622.871
470.7708	635.7917
470.9346	637.4937
471.0984	637.2391
471.2622	645.9521
471.426	650.4558
471.5898	660.3116
471.7536	673.9368
471.9174	688.437
472.0811	688.7048
472.2449	682.9928
472.4087	686.0473
472.5724	683.944
472.7362	663.7076
472.8999	645.3253
473.0637	639.2607
473.2274	655.2255
473.3911	657.2678
473.5548	652.3724
473.7185	655.1392
473.8822	660.9016
474.0459	667.8013
474.2096	680.5007
474.3733	681.202
474.537	691.5167
474.7007	690.613
474.8643	685.808
475.028	686.106
475.1917	680.0508
475.3553	663.7181
475.519	646.6398
475.6826	657.9233
475.8463	673.9932
476.0099	676.5244
476.1735	660.1954
476.3371	645.4162
476.5007	633.3588
476.6643	651.9469
476.8279	654.1171
476.9915	659.1946
477.1551	656.8605
477.3187	671.5008
477.4823	679.5922
477.6458	681.6091
477.8094	690.4481
477.9729	678.2087
478.1365	683.6421
478.3	682.3846
478.4636	675.4377
478.6271	670.11
478.7906	670.2594
478.9541	670.7894
479.1176	660.2015
479.2812	673.6318
479.4447	692.7316
479.6082	693.4676
479.7716	693.0158
479.9351	676.9471
480.0986	664.6436
480.2621	671.1936
480.4255	685.1789
480.589	676.9301
480.7524	657.5936
480.9159	670.3902
481.0793	682.1685
481.2428	678.246
481.4062	685.5208
481.5696	692.3791
481.733	694.5057
481.8964	704.8776
482.0598	698.699
482.2232	682.7346
482.3866	672.58
482.55	670.0565
482.7134	684.0335
482.8768	687.0566
483.0401	675.403
483.2035	663.6837
483.3668	675.8737
483.5302	688.8692
483.6935	673.8928
483.8568	662.5979
484.0202	667.1273
484.1835	654.5089
484.3468	658.4783
484.5101	677.5501
484.6734	687.2431
484.8367	684.7402
485	678.0832
485.1633	684.2894
485.3266	675.0463
485.4899	649.5684
485.6531	614.8625
485.8164	584.4277
485.9796	535.9025
486.1429	496.4514
486.3061	504.9781
486.4694	555.9185
486.6326	611.0406
486.7958	627.6104
486.959	644.3768
487.1223	607.7449
487.2855	597.9842
487.4486	626.814
487.6118	647.4357
487.775	669.2769
487.9382	675.1491
488.1014	675.1907
488.2646	671.0178
488.4277	673.1991
488.5909	654.3225
488.754	648.9156
488.9171	636.7336
489.0803	623.0129
489.2434	642.3845
489.4066	669.021
489.5697	712.7352
489.7328	728.4564
489.8959	710.9168
490.059	700.0809
490.2221	684.9617
490.3852	689.335
490.5482	694.2421
490.7113	698.1564
490.8744	688.7259
491.0374	669.7907
491.2005	662.0136
491.3636	675.9836
491.5266	696.3004
491.6896	683.2943
491.8527	643.0708
492.0157	612.5898
492.1787	606.4037
492.3417	630.4312
492.5047	658.7606
492.6677	674.7729
492.8307	689.0457
492.9937	703.3852
493.1567	705.0693
493.3196	700.3413
493.4826	689.6471
493.6456	658.7441
493.8085	641.527
493.9715	657.5718
494.1344	669.9033
494.2974	700.3803
494.4603	708.5934
494.6232	702.5917
494.7861	694.1662
494.949	709.788
495.1119	707.6895
495.2748	720.4726
495.4377	698.5725
495.6006	663.6695
495.7635	650.0938
495.9264	655.322
496.0892	688.9995
496.2521	724.3813
496.4149	712.9135
496.5778	695.8279
496.7407	685.477
496.9035	689.7465
497.0663	688.2758
497.2291	702.2659
497.3919	717.7144
497.5547	717.1683
497.7176	696.8462
497.8804	695.5607
498.0432	683.9836
498.2059	669.9539
498.3687	640.8593
498.5315	637.8914
498.6942	674.9397
498.857	694.3843
499.0198	702.3345
499.1825	704.7664
499.3452	714.5497
499.508	712.3076
499.6707	704.2986
499.8334	693.267
499.9962	692.1285
500.1589	688.9589
500.3216	682.4944
500.4843	667.2415
500.6469	656.9534
500.8096	667.3185
500.9723	683.4802
501.135	689.4119
501.2976	671.4308
501.4603	646.2347
501.623	646.4052
501.7856	661.9232
501.9482	673.8721
502.1109	672.6143
502.2735	681.6447
502.4361	688.2709
502.5987	685.7933
502.7614	698.1379
502.924	703.2176
503.0865	715.7535
503.2491	727.0317
503.4117	727.5243
503.5743	711.2331
503.7368	688.2799
503.8994	675.4343
504.062	653.8166
504.2245	657.15
504.3871	687.6464
504.5496	724.6798
504.7121	733.1502
504.8746	714.2925
505.0372	695.8597
505.1997	702.0444
505.3622	715.7609
505.5247	734.0089
505.6872	750.621
505.8497	749.9188
506.0121	750.2314
506.1746	759.4601
506.3371	742.2587
506.4995	716.9983
506.662	710.785
506.8244	706.4817
506.9869	722.0361
507.1493	710.6785
507.3117	710.3431
507.4742	704.5085
507.6366	709.9178
507.799	710.4869
507.9614	687.3416
508.1238	678.3881
508.2862	692.7095
508.4485	711.7921
508.6109	717.7628
508.7733	737.1847
508.9357	738.9709
509.098	723.8113
509.2604	733.2343
509.4227	738.3054
509.5851	729.2853
509.7474	706.8464
509.9097	684.3809
510.072	692.3065
510.2343	701.0667
510.3966	720.2369
510.5589	716.3506
510.7212	699.2863
510.8835	689.0789
511.0458	695.1825
511.2081	712.9204
511.3703	729.8317
511.5326	736.3405
511.6949	731.1628
511.8571	746.4339
512.0193	726.3592
512.1816	709.3732
512.3438	696.4116
512.506	676.2393
512.6682	677.4542
512.8304	686.3452
512.9926	690.162
513.1548	691.1812
513.317	700.4478
513.4792	693.4139
513.6414	680.7531
513.8035	665.9152
513.9657	661.3204
514.1279	662.374
514.29	661.4742
514.4521	681.9518
514.6143	677.5681
514.7764	672.2423
514.9385	682.0569
515.1006	687.0767
515.2628	680.5615
515.4249	675.9715
515.587	687.2842
515.7491	698.9622
515.9111	694.4276
516.0732	693.0621
516.2353	690.5779
516.3973	660.9037
516.5594	617.8505
516.7214	572.8582
516.8835	555.0344
517.0455	548.0898
517.2076	550.1954
517.3696	560.1141
517.5316	613.3339
517.6937	668.3557
517.8557	678.7725
518.0176	670.8943
518.1796	618.8217
518.3416	567.5512
518.5036	561.7557
518.6656	595.9609
518.8275	653.71
518.9895	680.5599
519.1514	663.1993
519.3134	656.8551
519.4753	651.0703
519.6373	660.5052
519.7992	674.9337
519.9611	695.072
520.123	703.7639
520.2849	694.5431
520.4468	682.7861
520.6087	663.5269
520.7706	648.1925
520.9325	652.2458
521.0944	689.0438
521.2562	701.7895
521.4181	701.4207
521.58	695.9536
521.7418	686.8057
521.9036	694.826
522.0655	717.7145
522.2273	714.5638
522.3891	693.407
522.551	665.2379
522.7128	647.9762
522.8746	655.4809
523.0363	670.8986
523.1981	686.2679
523.3599	683.59
523.5217	682.1505
523.6835	692.7993
523.8452	725.7533
524.007	740.6328
524.1687	738.3919
524.3304	735.9012
524.4922	738.0662
524.6539	724.8348
524.8157	728.7042
524.9774	713.7078
525.1391	709.5706
525.3008	707.9245
525.4625	713.0661
525.6241	724.9183
525.7858	731.3307
525.9475	737.6709
526.1092	723.7191
526.2709	671.8618
526.4325	642.1839
526.5942	623.0665
526.7558	624.5905
526.9174	610.9138
527.079	615.2328
527.2407	648.1219
527.4023	681.481
527.5639	685.3051
527.7255	701.8804
527.8871	719.9491
528.0487	729.6965
528.2103	699.4862
528.3718	688.8063
528.5334	710.3417
528.695	733.7989
528.8565	752.4011
529.0181	753.162
529.1796	752.2172
529.3412	750.3049
529.5027	735.5327
529.6642	712.931
529.8257	696.1673
529.9872	693.728
530.1487	707.3629
530.3102	727.7591
530.4717	731.4893
530.6332	731.2119
530.7947	733.5141
530.9562	737.9304
531.1176	741.4182
531.2791	748.1072
531.4405	733.6329
531.6019	715.6525
531.7634	714.2546
531.9248	713.1603
532.0862	719.691
532.2477	711.58
532.4091	690.1376
532.5704	667.9208
532.7319	635.1642
532.8932	635.8111
533.0546	656.5985
533.216	689.3212
533.3774	702.654
533.5388	713.6682
533.7001	704.6873
533.8615	701.3192
534.0228	680.4114
534.1841	683.4644
534.3455	688.5435
534.5068	701.0543
534.6681	702.6033
534.8293	691.9969
534.9907	696.409
535.152	698.261
535.3132	701.4437
535.4745	716.507
535.6358	730.5865
535.7971	734.6852
535.9583	733.2017
536.1196	719.8587
536.2808	705.1746
536.4421	699.2444
536.6033	682.5058
536.7645	672.6373
536.9258	663.4349
537.087	651.8494
537.2482	663.2967
537.4094	681.0919
537.5706	693.9257
537.7318	699.7703
537.8929	700.09
538.0541	685.7164
538.2153	680.527
538.3764	694.5576
538.5376	690.8867
538.6987	693.0073
538.8599	690.1702
539.021	683.1275
539.1821	673.0995
539.3432	661.7127
539.5043	663.4373
539.6655	665.5125
539.8265	655.9268
539.9876	649.0785
540.1487	661.7502
540.3098	655.2998
540.4708	638.9046
540.6319	625.9825
540.793	642.0247
540.954	649.6686
541.1151	642.6835
541.2761	641.1925
541.4371	665.5831
541.5981	667.6698
541.7592	667.7323
541.9202	667.3271
542.0812	655.3588
542.2422	653.8641
542.4031	654.6035
542.5641	657.1993
542.7251	660.3087
542.886	660.2881
543.0471	647.21
543.208	644.4392
543.369	638.3703
543.5298	651.1498
543.6908	667.5387
543.8517	685.4908
544.0126	685.8193
544.1736	689.5426
544.3345	683.5425
544.4954	658.1798
544.6563	649.7628
544.8171	643.792
544.978	657.5361
545.1389	677.9843
545.2997	683.6636
545.4606	671.8864
545.6215	655.3177
545.7823	652.9586
545.9432	675.5112
546.104	676.4285
546.2648	669.2758
546.4256	656.6399
546.5864	651.1111
546.7473	661.5033
546.908	673.6317
547.0688	676.822
547.2296	663.4902
547.3904	655.8917
547.5511	652.7881
547.7119	641.614
547.8727	650.3643
548.0334	644.1321
548.1942	663.7461
548.3549	668.0695
548.5156	661.0935
548.6763	673.2685
548.837	675.3755
548.9977	665.507
549.1584	679.0843
549.3192	678.0474
549.4798	676.4016
549.6405	672.0637
549.8011	666.1968
549.9619	665.5195
550.1225	660.9083
550.2831	666.8691
550.4438	666.3516
550.6044	675.5402
550.765	662.6509
550.9257	661.2952
551.0863	664.7929
551.2469	664.7067
551.4075	659.1456
551.5681	672.6545
551.7287	682.651
551.8893	678.8934
552.0498	672.254
552.2104	688.6464
552.371	683.4497
552.5315	660.5014
552.6921	657.5757
552.8526	644.6768
553.0131	649.0214
553.1736	647.5131
553.3342	660.3839
553.4947	655.3861
553.6552	650.3257
553.8157	651.324
553.9762	658.873
554.1367	670.0201
554.2971	665.9963
554.4576	659.6014
554.618	655.3414
554.7785	656.4032
554.939	672.8466
555.0994	662.2725
555.2598	649.0272
555.4203	646.1956
555.5807	654.3607
555.7411	643.973
555.9015	643.6736
556.0619	645.9577
556.2223	645.237
556.3827	636.9712
556.5431	633.3469
556.7034	618.6779
556.8638	623.0438
557.0242	626.3044
557.1845	625.5115
557.3448	621.7902
557.5052	625.1254
557.6655	627.0942
557.8259	630.487
557.9861	637.3359
558.1465	629.9468
558.3068	633.9171
558.467	626.552
558.6274	601.706
558.7877	588.2617
558.9479	589.3359
559.1082	604.5233
559.2684	600.2923
559.4287	610.2057
559.5889	620.8564
559.7491	613.6558
559.9094	609.8744
560.0696	596.9335
560.2299	593.3334
560.3901	605.2536
560.5502	623.918
560.7104	638.533
560.8707	639.5294
561.0308	649.9958
561.191	642.4911
561.3511	622.8371
561.5114	605.6176
561.6714	589.2703
561.8316	596.4677
561.9918	603.3915
562.1519	607.9872
562.312	619.4684
562.4722	608.2704
562.6323	604.374
562.7924	622.0623
562.9525	633.7314
563.1125	633.8474
563.2726	630.6892
563.4327	616.2089
563.5928	606.2456
563.7528	601.1428
563.9129	601.0038
564.0729	592.0616
564.233	604.497
564.393	606.0165
564.553	606.4681
564.7131	607.4212
564.873	613.9249
565.0331	603.9697
565.1931	604.262
565.353	591.6659
565.5131	597.7599
565.673	591.8766
565.833	575.5117
565.9929	579.9758
566.1529	576.8132
566.3129	580.3695
566.4728	584.8324
566.6328	588.307
566.7927	596.2729
566.9526	596.4443
567.1125	597.0201
567.2724	602.4123
567.4323	604.9662
567.5922	609.0135
567.7521	612.1191
567.9119	612.4072
568.0718	593.1755
568.2317	580.5037
568.3915	573.7156
568.5514	569.3442
568.7112	577.3358
568.871	585.168
569.0309	579.7883
569.1907	592.2432
569.3505	599.7537
569.5103	593.3956
569.6701	598.1286
569.8299	590.0939
569.9897	583.7617
570.1495	563.9907
570.3092	577.7297
570.469	579.4473
570.6287	562.8226
570.7885	553.944
570.9482	551.3342
571.108	548.1302
571.2677	555.486
571.4274	567.0793
571.5871	573.6888
571.7468	581.6161
571.9066	580.5951
572.0662	580.7297
572.2259	583.0632
572.3856	595.7643
572.5452	595.631
572.7049	597.8496
572.8646	596.6318
573.0242	596.6783
573.1838	594.001
573.3435	586.3925
573.5031	576.314
573.6627	575.8169
573.8223	585.739
573.9819	596.433
574.1415	596.7352
574.3011	589.0783
574.4607	583.2862
574.6203	592.3438
574.7798	595.8698
574.9394	582.3575
575.099	572.3066
575.2585	564.2193
575.418	557.0189
575.5776	562.2191
575.7371	572.7047
575.8966	575.8632
576.0562	570.0512
576.2156	562.6642
576.3751	562.9456
576.5346	571.2501
576.6941	567.8152
576.8536	564.7166
577.0131	571.6001
577.1725	572.2247
577.332	563.1498
577.4914	571.8127
577.6508	571.9124
577.8103	563.648
577.9697	554.577
578.1291	552.5022
578.2885	546.5028
578.4479	540.0948
578.6073	549.4807
578.7667	543.8693
578.9261	554.9444
579.0854	563.0672
579.2448	564.5821
579.4042	561.8059
579.5635	547.7607
579.7229	556.9792
579.8822	558.9437
580.0416	559.4577
580.2009	554.605
580.3602	554.3132
580.5195	553.6782
580.6788	547.5601
580.8381	545.5576
580.9974	546.6963
581.1566	547.8361
581.3159	550.1806
581.4752	541.5922
581.6345	540.0213
581.7937	549.4134
581.9529	554.099
582.1122	542.3842
582.2714	541.0734
582.4306	554.3278
582.5898	558.0492
582.749	548.8721
582.9082	543.9551
583.0674	552.2794
583.2266	549.8367
583.3857	542.7593
583.5449	541.0713
583.7041	540.1895
583.8633	535.6301
584.0224	544.369
584.1815	543.3694
584.3407	545.8113
584.4998	542.289
584.6589	535.3274
584.818	524.354
584.9771	524.1389
585.1362	527.0372
585.2953	531.1685
585.4544	516.0839
585.6135	512.464
585.7725	508.5436
585.9316	504.8554
586.0906	510.6951
586.2497	509.1591
586.4087	515.9287
586.5677	524.1882
586.7267	523.0353
586.8858	516.4136
587.0448	518.6979
587.2038	513.9235
587.3628	517.689
587.5218	514.5511
587.6807	512.2515
587.8397	508.2673
587.9987	515.3817
588.1577	499.733
588.3166	499.1665
588.4755	502.1895
588.6345	495.8562
588.7934	481.2678
588.9523	457.6551
589.1112	446.0351
589.2701	441.0682
589.429	447.7718
589.5879	452.6438
589.7468	456.8893
589.9056	454.0493
590.0645	476.1814
590.2234	486.651
590.3822	493.4165
590.5411	484.1549
590.6999	493.4612
590.8588	488.4345
591.0176	486.604
591.1764	491.1312
591.3352	490.3417
591.494	493.2787
591.6528	473.076
591.8116	477.4929
591.9703	479.8979
592.1291	474.8924
592.2878	487.8491
592.4467	487.679
592.6053	486.2148
592.7641	483.1822
592.9229	476.0414
593.0816	477.2283
593.2403	479.7405
593.399	485.1085
593.5577	482.4471
593.7164	483.7758
593.8751	489.483
594.0338	486.1607
594.1924	480.7266
594.3511	471.0849
594.5098	469.8923
594.6684	472.1215
594.8271	475.7388
594.9857	467.0211
595.1443	469.6638
595.303	478.9885
595.4615	471.3819
595.6202	475.9972
595.7787	477.4812
595.9374	477.9162
596.0959	476.3504
596.2545	475.5703
596.4131	483.1185
596.5717	483.0663
596.7302	487.2967
596.8887	487.9492
597.0473	478.5973
597.2058	471.4742
597.3644	484.0444
597.5229	482.8901
597.6814	469.4708
597.8399	482.6728
597.9984	477.576
598.1569	473.0329
598.3154	475.7684
598.4738	468.7496
598.6323	473.4926
598.7908	476.3231
598.9492	473.6802
599.1076	469.7701
599.2661	476.7461
599.4245	479.3701
599.5829	488.972
599.7413	482.5559
599.8997	475.84
600.0581	471.1641
600.2165	481.1411
600.3749	474.8052
600.5333	470.9801
600.6917	473.001
600.85	468.0387
601.0084	462.9609
601.1667	465.4301
601.325	478.0642
601.4833	473.0329
601.6417	473.5123
601.8	473.2217
601.9583	474.6366
602.1166	469.3143
602.2749	461.0453
602.4332	460.6255
602.5914	470.3647
602.7498	473.9741
602.908	473.8353
603.0662	473.4062
603.2245	470.4382
603.3828	481.876
603.541	473.8141
603.6992	470.67
603.8574	467.9659
604.0156	474.1366
604.1738	469.1867
604.332	476.044
604.4902	478.6777
604.6484	468.7433
604.8065	464.394
604.9647	473.0845
605.1229	477.4312
605.281	477.9262
605.4391	474.4828
605.5973	473.6686
605.7554	465.2105
605.9135	469.726
606.0717	460.2642
606.2297	463.8987
606.3878	467.0016
606.5459	452.7021
606.704	457.343
606.8621	467.2292
607.0201	472.3958
607.1782	466.3282
607.3362	470.7427
607.4943	469.4659
607.6523	468.2722
607.8104	460.5978
607.9684	455.4359
608.1264	449.7829
608.2844	454.5917
608.4424	457.0612
608.6003	447.3158
608.7584	445.8394
608.9163	446.692
609.0743	459.8593
609.2322	449.4121
609.3902	447.7124
609.5482	441.1626
609.7061	444.1257
609.864	455.1752
610.0219	453.3106
610.1798	435.9845
610.3377	433.9584
610.4956	437.9812
610.6535	442.9951
610.8114	446.7911
610.9693	446.7102
611.1271	444.4392
611.285	447.3932
611.4429	451.1024
611.6007	452.4808
611.7585	450.2821
611.9164	438.4634
612.0742	443.6856
612.232	444.7113
612.3898	438.1879
612.5476	425.253
612.7054	430.0173
612.8632	439.464
613.0209	438.2006
613.1787	437.6489
613.3365	440.2068
613.4942	429.6632
613.652	417.8051
613.8097	418.1702
613.9674	410.1637
614.1252	420.2226
614.2829	425.4475
614.4406	427.3395
614.5983	425.3618
614.756	430.3691
614.9136	431.9642
615.0714	429.809
615.229	428.7133
615.3867	435.5231
615.5443	424.4872
615.702	423.7613
615.8596	424.7376
616.0172	420.8544
616.1748	407.6154
616.3325	398.9073
616.4901	402.1936
616.6476	413.2048
616.8052	413.5817
616.9628	408.3582
617.1204	399.7145
617.278	411.6882
617.4355	416.1711
617.5931	406.4948
617.7506	409.1864
617.9081	416.2706
618.0657	419.3835
618.2232	419.4628
618.3807	412.8547
618.5382	418.2927
618.6957	408.2099
618.8532	406.1295
619.0107	409.0786
619.1682	410.2456
619.3256	406.0327
619.4831	407.681
619.6406	418.2915
619.798	426.2727
619.9554	430.2356
620.1129	421.7907
620.2703	416.9862
620.4277	419.0121
620.5851	415.3506
620.7425	420.2094
620.8998	417.6642
621.0573	410.4937
621.2146	415.4044
621.372	401.4671
621.5294	400.961
621.6867	409.5527
621.8441	399.7022
622.0013	405.5508
622.1587	408.2671
622.316	404.3524
622.4733	411.7912
622.6306	407.5511
622.7879	403.9156
622.9452	399.3136
623.1025	388.9344
623.2598	384.4718
623.4171	393.5236
623.5743	403.5456
623.7316	400.8699
623.8888	402.5942
624.046	398.5981
624.2032	398.7079
624.3605	398.3775
624.5176	394.2289
624.6749	390.8873
624.8321	384.3151
624.9893	401.4589
625.1464	394.9139
625.3036	384.8454
625.4608	382.1616
625.6179	386.2255
625.7751	383.1505
625.9322	387.5443
626.0894	391.162
626.2465	397.354
626.4036	398.3542
626.5607	393.7123
626.7178	395.0223
626.8749	386.4671
627.032	393.1529
627.189	395.1662
627.3461	386.7308
627.5032	385.4262
627.6602	383.8906
627.8173	365.4847
627.9743	359.2982
628.1313	366.148
628.2884	375.1604
628.4454	379.4816
628.6024	372.674
628.7594	382.0353
628.9164	377.989
629.0734	374.8637
629.2303	383.3579
629.3873	380.7296
629.5443	384.0173
629.7012	375.5419
629.8582	369.7718
630.0151	368.0933
630.172	362.4699
630.3289	358.1864
630.4858	358.5659
630.6428	371.5832
630.7996	378.301
630.9565	382.4909
631.1134	380.3788
631.2703	377.2448
631.4272	375.0939
631.584	374.5352
631.7408	372.5608
631.8977	368.9485
632.0546	363.7255
632.2114	363.6834
632.3682	376.1111
632.525	388.6475
632.6818	380.7994
632.8386	380.6772
632.9954	379.162
633.1522	380.7192
633.3089	370.2525
633.4657	377.9789
633.6224	367.4398
633.7792	364.7895
633.9359	372.8952
634.0927	367.6428
634.2494	361.815
634.4061	371.5324
634.5628	378.3282
634.7195	370.9972
634.8762	371.468
635.0329	376.2195
635.1895	369.2146
635.3462	372.576
635.5029	368.581
635.6595	369.2996
635.8162	368.5784
635.9728	365.5858
636.1295	366.9904
636.2861	361.0495
636.4427	361.4268
636.5992	372.6614
636.7559	367.149
636.9124	364.1032
637.069	372.9069
637.2256	370.3832
637.3821	374.072
637.5387	377.7267
637.6953	374.3801
637.8518	368.0735
638.0084	361.5263
638.1649	369.7712
638.3214	362.7434
638.4779	363.6963
638.6344	372.7879
638.7909	370.8046
638.9474	368.8242
639.1038	362.5972
639.2603	360.5396
639.4167	359.1168
639.5732	355.3734
639.7297	348.6229
639.8861	355.0439
640.0425	356.4708
640.199	343.9088
640.3553	354.7625
640.5118	359.7798
640.6682	361.0482
640.8245	357.7732
640.981	352.7101
641.1373	356.5736
641.2936	355.1227
641.45	362.9981
641.6064	354.1573
641.7627	356.6409
641.9191	347.0813
642.0754	340.7266
642.2317	343.3283
642.388	341.8229
642.5443	347.6427
642.7006	347.6781
642.8569	357.1655
643.0131	356.8404
643.1694	350.6759
643.3257	346.2181
643.4819	356.4829
643.6382	339.706
643.7944	336.5449
643.9506	337.962
644.1069	334.2283
644.2631	340.4706
644.4193	345.3679
644.5754	345.4271
644.7316	349.4344
644.8878	342.7809
645.044	339.5727
645.2002	340.3123
645.3563	335.763
645.5125	333.3828
645.6686	330.3903
645.8248	327.462
645.9809	331.8792
646.137	328.1576
646.2931	328.8581
646.4492	331.828
646.6053	329.5012
646.7614	334.6636
646.9174	324.2728
647.0735	328.2899
647.2296	319.7897
647.3856	325.1735
647.5417	329.7927
647.6977	323.7952
647.8537	321.6021
648.0098	328.3205
648.1658	322.3095
648.3218	327.7864
648.4777	322.3109
648.6337	330.7797
648.7897	324.8331
648.9457	318.9742
649.1016	321.6974
649.2576	313.0126
649.4135	305.7384
649.5695	296.8392
649.7254	301.7245
649.8813	306.3859
650.0372	321.2796
650.1932	323.8884
650.3491	325.0424
650.5049	322.076
650.6608	326.1592
650.8167	327.6397
650.9725	319.3082
651.1284	321.6726
651.2842	322.1698
651.4401	316.3726
651.5959	306.1343
651.7518	308.8948
651.9076	309.2599
652.0634	308.985
652.2192	315.9924
652.3749	318.9369
652.5308	307.3812
652.6865	309.2226
652.8423	318.8479
652.998	308.8644
653.1538	309.8954
653.3096	311.9156
653.4653	310.3494
653.621	319.3539
653.7767	315.6584
653.9324	321.2766
654.0881	319.3466
654.2438	312.78
654.3995	305.3929
654.5552	300.4056
654.7109	298.0163
654.8665	306.5752
655.0222	318.7425
655.1778	307.0092
655.3334	307.9394
655.4891	301.1921
655.6447	290.7008
655.8003	289.0585
655.9559	281.0445
656.1115	265.092
656.2671	245.339
656.4227	240.7995
656.5782	251.6078
656.7338	270.1613
656.8893	284.3622
657.0449	283.8617
657.2004	293.8109
657.356	293.8148
657.5115	293.1867
657.667	297.0189
657.8225	302.2235
657.978	303.4967
658.1335	310.4951
658.289	310.8456
658.4445	308.1079
658.5999	307.9634
658.7554	304.1549
658.9108	304.6766
659.0663	302.1761
659.2217	309.0446
659.3771	301.6413
659.5325	304.0414
659.6879	305.4559
659.8433	300.1245
659.9987	306.9738
660.1541	311.4852
660.3095	312.8072
660.4648	311.6659
660.6202	300.2896
660.7756	301.6778
660.9309	304.267
661.0862	306.4092
661.2416	298.4223
661.3969	303.857
661.5522	302.4651
661.7075	306.3422
661.8628	308.6625
662.0181	320.7041
662.1733	316.0052
662.3286	306.7691
662.4839	305.5515
662.6391	313.1161
662.7944	304.143
662.9496	300.9865
663.1048	298.3623
663.26	300.6505
663.4152	295.0665
663.5704	295.7898
663.7256	298.0258
663.8808	301.4032
664.036	305.3983
664.1912	303.4344
664.3463	298.958
664.5015	291.6909
664.6566	297.436
664.8118	304.9477
664.9669	302.0872
665.122	306.907
665.2771	295.4114
665.4322	298.1223
665.5873	308.63
665.7424	312.5815
665.8975	305.9152
666.0526	299.0245
666.2076	296.464
666.3627	295.0053
666.5177	296.0576
666.6727	299.5571
666.8278	297.5452
666.9828	298.0282
667.1378	302.7943
667.2928	312.0404
667.4478	302.3104
667.6028	291.4948
667.7578	294.6597
667.9127	294.5399
668.0677	292.9249
668.2226	290.7937
668.3776	296.8574
668.5325	300.1515
668.6874	294.6449
668.8423	297.5481
668.9973	300.5536
669.1522	304.7939
669.3071	293.9041
669.4619	286.8054
669.6168	289.9897
669.7717	291.2823
669.9265	291.867
670.0814	299.1947
670.2362	294.8522
670.3911	293.1443
670.5459	293.406
670.7007	290.2263
670.8555	289.293
671.0103	284.7597
671.1651	283.0988
671.3199	287.8309
671.4747	293.1222
671.6295	281.1596
671.7842	284.7844
671.939	289.5151
672.0937	284.6538
672.2484	290.4271
672.4031	284.5276
672.5579	286.8803
672.7126	280.8423
672.8673	283.2521
673.022	283.0505
673.1767	279.6167
673.3314	286.402
673.486	291.8693
673.6407	284.4214
673.7953	279.9512
673.95	278.5696
674.1046	275.2007
674.2592	278.1926
674.4138	281.2873
674.5684	276.2063
674.723	278.2028
674.8776	285.8043
675.0322	285.1196
675.1868	278.1245
675.3414	274.2086
675.4959	279.4866
675.6505	282.2682
675.805	271.8445
675.9595	274.6244
676.1141	273.7051
676.2686	271.7244
676.4231	271.8424
676.5776	274.6536
676.7321	275.3893
676.8866	276.7274
677.041	274.3228
677.1955	270.0599
677.35	264.5351
677.5044	270.4483
677.6589	276.2782
677.8133	277.2757
677.9677	277.0124
678.1221	267.6967
678.2766	269.3499
678.4309	270.5464
678.5853	269.8154
678.7397	270.4314
678.8941	259.6637
679.0485	259.7749
679.2028	264.6458
679.3571	263.5329
679.5115	260.0915
679.6658	269.1486
679.8201	260.5736
679.9744	257.8301
680.1288	261.0245
680.2831	263.5779
680.4373	262.8763
680.5916	265.9847
680.7459	261.5715
680.9001	260.2467
681.0544	255.8559
681.2087	253.383
681.3629	251.6553
681.5171	252.5581
681.6713	253.432
681.8256	257.8412
681.9797	254.5409
682.134	248.7731
682.2881	255.3002
682.4423	250.4874
682.5965	256.6684
682.7507	247.8699
682.9048	243.1806
683.059	243.6003
683.2131	242.2465
683.3672	238.6181
683.5213	246.0323
683.6754	247.8141
683.8295	238.7625
683.9836	245.4946
684.1377	240.7862
684.2918	233.4877
684.4459	237.6253
684.5999	246.125
684.754	243.085
684.908	242.4107
685.062	236.0365
685.2161	241.9485
685.3701	241.5728
685.5241	239.6013
685.6781	233.6273
685.8321	232.8236
685.9861	236.2172
686.14	226.9042
686.294	235.7591
686.4479	236.6307
686.6019	219.4124
686.7559	201.2946
686.9098	191.5421
687.0637	180.6317
687.2176	175.9038
687.3715	183.6765
687.5254	190.835
687.6793	192.9049
687.8332	196.3683
687.9871	203.1533
688.1409	218.1059
688.2947	216.3839
688.4486	213.068
688.6024	207.9796
688.7563	200.7552
688.9101	205.1497
689.0639	200.3933
689.2177	203.5155
689.3715	203.6432
689.5253	204.238
689.6791	203.7876
689.8328	198.6803
689.9866	209.0901
690.1403	204.8043
690.2941	201.6906
690.4478	207.7314
690.6015	206.3973
690.7552	204.6749
690.9089	204.4144
691.0626	213.2091
691.2164	210.4177
691.37	207.7061
691.5237	209.9778
691.6774	210.7576
691.831	211.4062
691.9847	207.3104
692.1383	209.1896
692.2919	208.0332
692.4456	204.112
692.5992	205.6984
692.7527	207.318
692.9064	208.0733
693.0599	205.7522
693.2136	207.1388
693.3671	207.6357
693.5207	214.9902
693.6742	207.8111
693.8278	215.4725
693.9813	212.2045
694.1348	203.3375
694.2883	203.9572
694.4418	213.2278
694.5953	206.764
694.7488	205.7354
694.9023	205.3835
695.0558	207.2923
695.2093	209.6188
695.3627	202.9251
695.5162	203.0986
695.6696	207.4253
695.8231	207.2362
695.9764	200.7528
696.1299	204.5463
696.2833	212.4905
696.4367	213.9361
696.5901	214.9718
696.7435	220.8573
696.8968	216.4056
697.0502	207.0434
697.2036	209.3592
697.3569	213.6357
697.5102	209.1475
697.6635	204.1165
697.8168	196.7361
697.9702	199.3888
698.1235	206.532
698.2768	207.2379
698.4301	208.0737
698.5833	201.4627
698.7366	201.5963
698.8898	205.6753
699.0431	201.6577
699.1964	204.2088
699.3495	204.5364
699.5028	202.7134
699.656	204.4094
699.8092	204.3785
699.9624	200.8297
700.1156	195.6248
700.2688	205.608
700.4219	194.7881
700.5751	190.7441
700.7283	187.3817
700.8814	195.5222
701.0345	200.7585
701.1877	200.057
701.3408	197.6312
701.4939	200.7719
701.647	195.6015
701.8001	194.4426
701.9532	194.8686
702.1063	197.4952
702.2593	196.0514
702.4124	199.0115
702.5654	188.805
702.7184	186.7475
702.8715	185.1944
703.0245	200.4519
703.1776	202.4141
703.3305	206.8334
703.4835	201.9235
703.6365	198.4549
703.7895	197.4116
703.9424	194.002
704.0954	199.0596
704.2484	200.5835
704.4013	203.8456
704.5543	206.1154
704.7072	199.2589
704.8601	201.3229
705.013	198.4429
705.1659	192.9914
705.3188	191.0828
705.4717	193.037
705.6246	199.9285
705.7774	196.9878
705.9303	200.7224
706.0831	190.1575
706.236	191.7642
706.3888	191.5612
706.5416	192.3197
706.6944	189.6593
706.8472	196.5183
707	197.1654
707.1528	195.9487
707.3056	193.6866
707.4583	196.7738
707.6111	195.1857
707.7639	193.3101
707.9166	199.2147
708.0693	202.1418
708.222	197.6737
708.3748	190.5794
708.5275	191.4719
708.6802	192.2486
708.8328	192.2112
708.9855	186.0842
709.1382	186.1867
709.2909	191.958
709.4435	194.0438
709.5962	191.1635
709.7488	191.8655
709.9014	193.9993
710.054	192.8451
710.2067	192.2212
710.3593	190.6853
710.5118	192.9802
710.6644	193.8324
710.817	194.4415
710.9695	189.8879
711.1221	188.1868
711.2747	187.6339
711.4272	192.2569
711.5797	194.946
711.7322	192.9812
711.8848	192.4518
712.0373	187.5941
712.1898	183.4724
712.3422	195.5277
712.4948	192.4373
712.6472	186.2676
712.7996	183.1588
712.9521	179.9452
713.1046	186.0191
713.257	184.8865
713.4094	186.8198
713.5618	186.1682
713.7142	192.822
713.8666	187.8471
714.019	189.1674
714.1714	186.6143
714.3237	183.3304
714.4761	188.3506
714.6285	188.7636
714.7808	186.687
714.9331	177.437
715.0854	180.7294
715.2378	176.9075
715.3901	175.8067
715.5424	185.983
715.6947	185.2812
715.8469	191.2785
715.9992	184.563
716.1515	174.1605
716.3037	177.7184
716.456	170.5466
716.6082	167.8031
716.7604	163.591
716.9127	162.0933
717.0649	155.0514
717.2171	154.0005
717.3693	153.9983
717.5214	154.0134
717.6736	154.612
717.8258	156.8397
717.978	161.0413
718.1301	161.6691
718.2822	153.3961
718.4344	145.5052
718.5865	142.3974
718.7386	140.6299
718.8907	142.9133
719.0428	150.0981
719.1949	159.2121
719.3469	146.2894
719.499	146.0717
719.6511	148.4534
719.8031	152.7704
719.9551	150.0284
720.1072	139.5845
720.2592	143.7
720.4112	147.3491
720.5632	145.6062
720.7152	146.0923
720.8672	156.1273
721.0192	161.9283
721.1711	165.3904
721.3231	170.0824
721.475	172.8332
721.627	167.5207
721.7789	169.9719
721.9308	166.8755
722.0828	161.9598
722.2347	168.9094
722.3866	167.5847
722.5385	166.2762
722.6903	169.0499
722.8422	170.3025
722.9941	164.4597
723.1459	156.0419
723.2977	149.6242
723.4496	141.6056
723.6014	142.1467
723.7532	150.1183
723.905	147.5069
724.0568	148.2284
724.2086	150.7834
724.3604	151.6513
724.5121	148.17
724.6639	150.3533
724.8157	152.4301
724.9674	153.8206
725.1191	152.4554
725.2709	140.3793
725.4226	143.5431
725.5743	154.7719
725.726	155.2656
725.8777	150.2834
726.0294	149.6555
726.181	148.4287
726.3327	150.8026
726.4844	137.6264
726.636	151.2875
726.7877	158.0912
726.9393	153.1537
727.0909	155.9393
727.2425	152.2052
727.3941	148.3792
727.5457	141.6366
727.6973	142.0448
727.8488	139.4943
728.0004	143.3292
728.1519	152.616
728.3035	155.8963
728.455	150.8898
728.6066	154.3283
728.7581	147.2325
728.9095	138.1118
729.0611	135.6001
729.2126	141.6968
729.364	147.9526
729.5155	147.5597
729.667	152.6864
729.8184	155.1299
729.9698	164.6997
730.1213	158.4926
730.2727	145.7469
730.4241	150.3192
730.5756	145.7415
730.7269	150.9659
730.8784	149.6106
731.0297	143.7012
731.1811	147.7945
731.3325	144.7903
731.4838	144.5258
731.6351	148.6285
731.7865	148.5397
731.9378	144.7999
732.0891	149.6982
732.2404	148.4004
732.3917	152.177
732.543	155.4694
732.6943	151.0057
732.8456	152.9583
732.9968	161.0627
733.1481	161.1332
733.2993	152.4462
733.4506	152.0654
733.6018	156.991
733.753	156.8425
733.9042	157.4897
734.0554	162.1438
734.2066	161.1937
734.3578	161.4564
734.509	153.7224
734.6602	158.5705
734.8113	161.6295
734.9624	154.8138
735.1136	151.5436
735.2647	150.5749
735.4158	158.741
735.5669	158.078
735.718	149.4231
735.8691	150.677
736.0201	155.5593
736.1713	145.4454
736.3223	151.6366
736.4733	154.6337
736.6244	152.0173
736.7755	155.4572
736.9265	156.3562
737.0775	154.6403
737.2285	146.0764
737.3795	157.7006
737.5305	160.1564
737.6815	156.7433
737.8324	155.693
737.9834	150.9985
738.1343	152.3545
738.2853	147.5696
738.4362	147.437
738.5871	149.4307
738.738	147.3244
738.8889	147.3895
739.0399	149.7722
739.1907	149.2045
739.3416	155.2952
739.4925	152.1121
739.6433	150.166
739.7942	150.0319
739.945	147.731
740.0958	152.3598
740.2467	151.3884
740.3975	149.9136
740.5483	149.6909
740.6991	154.9652
740.8499	144.1759
741.0007	149.3654
741.1514	140.1147
741.3022	144.7641
741.4529	148.8928
741.6036	147.6784
741.7544	143.798
741.9051	153.1431
742.0558	145.9648
742.2065	153.6341
742.3572	146.2155
742.5079	146.657
742.6586	145.136
742.8093	149.2239
742.9599	148.5118
743.1105	149.8961
743.2612	150.8186
743.4118	150.4142
743.5624	149.6058
743.7131	153.2234
743.8636	151.6488
744.0142	150.0764
744.1648	146.1809
744.3154	147.3461
744.4659	150.9056
744.6165	148.7984
744.767	139.9445
744.9176	139.3055
745.0681	149.2421
745.2186	145.0724
745.3691	146.3964
745.5197	151.1205
745.6702	150.426
745.8206	149.9503
745.9711	149.1974
746.1215	145.4454
746.272	143.9184
746.4224	146.9744
746.5729	150.2463
746.7233	147.2981
746.8737	142.2264
747.0241	152.7526
747.1745	146.8378
747.3249	142.6086
747.4753	145.4724
747.6257	145.0365
747.776	143.7108
747.9264	147.3397
748.0767	139.0431
748.2271	138.593
748.3774	139.6344
748.5276	137.091
748.678	143.1871
748.8282	144.7999
748.9786	138.9506
749.1288	137.0705
749.2791	135.5075
749.4294	133.6837
749.5796	137.6625
749.7299	138.0849
749.8801	137.4778
750.0303	145.344
750.1805	136.4021
750.3307	135.1541
750.4809	132.817
750.6311	137.4707
750.7813	135.2923
750.9314	135.104
751.0816	135.4805
751.2318	136.6077
751.3818	128.2206
751.532	134.2448
751.6821	129.9248
751.8322	133.9021
751.9823	134.1398
752.1324	135.164
752.2825	132.8943
752.4326	134.4725
752.5826	122.4131
752.7327	129.9056
752.8827	128.648
753.0327	131.1961
753.1827	135.8513
753.3328	132.8291
753.4828	127.1575
753.6328	135.507
753.7828	134.5292
753.9327	136.7257
754.0827	133.6425
754.2327	129.1869
754.3826	131.1749
754.5325	130.3507
754.6825	129.8466
754.8324	127.8285
754.9823	121.4025
755.1322	122.9281
755.2821	124.6119
755.432	125.4884
755.5818	125.6361
755.7318	119.62
755.8816	124.5975
756.0314	125.3788
756.1813	122.8829
756.3311	125.7824
756.4809	120.097
756.6307	122.8107
756.7805	118.4697
756.9303	122.2096
757.0801	121.1023
757.2299	123.8433
757.3796	120.7453
757.5294	116.2966
757.6791	118.0425
757.8289	120.9922
757.9786	125.2098
758.1283	122.2546
758.278	122.5598
758.4277	117.2577
758.5773	112.613
758.7271	115.5024
758.8767	117.9857
759.0264	116.5041
759.176	115.2649
759.3256	108.2298
759.4753	90.29031
759.6249	81.29686
759.7745	66.69773
759.9241	63.17923
760.0737	57.94634
760.2233	56.11396
760.3729	48.72125
760.5224	51.04616
760.6719	52.09441
760.8215	49.55235
760.971	49.1268
761.1205	54.26525
761.2701	59.70361
761.4196	67.25021
761.5691	70.48484
761.7186	77.81018
761.868	87.24924
762.0175	90.48198
762.167	79.25916
762.3164	74.99444
762.4659	65.31564
762.6153	68.46313
762.7647	67.90318
762.9141	70.43044
763.0635	67.27
763.2129	65.16856
763.3623	65.64034
763.5117	70.60783
763.661	67.79862
763.8104	65.41837
763.9597	69.0027
764.1091	69.96323
764.2584	76.04565
764.4077	82.72713
764.557	80.54658
764.7063	78.72701
764.8556	82.30064
765.0049	82.79772
765.1541	87.24043
765.3034	85.37209
765.4526	87.05797
765.6019	82.9999
765.7511	83.45053
765.9003	95.85666
766.0496	87.52692
766.1987	87.69295
766.348	86.91656
766.4971	90.86713
766.6463	90.08173
766.7955	89.49432
766.9446	94.74969
767.0938	92.62508
767.2429	92.81846
767.392	97.89449
767.5411	104.7702
767.6902	103.8771
767.8394	96.27709
767.9884	100.5677
768.1375	99.98181
768.2866	96.92022
768.4356	99.63702
768.5847	96.55013
768.7337	104.8177
768.8828	103.386
769.0317	104.3955
769.1808	98.64787
769.3298	105.6048
769.4788	102.0331
769.6277	102.3636
769.7767	109.8442
769.9257	103.5116
770.0746	100.2449
770.2236	102.1949
770.3725	105.4908
770.5214	104.6395
770.6703	99.43475
770.8193	97.91481
770.9681	101.9665
771.1171	100.1064
771.2659	95.26998
771.4148	102.8836
771.5637	105.5277
771.7125	102.2177
771.8613	102.9904
772.0101	106.0018
772.159	104.6468
772.3078	99.69896
772.4566	99.11681
772.6054	98.80669
772.7542	101.6119
772.903	98.65895
773.0517	96.24739
773.2004	95.89686
773.3492	97.69974
773.4979	99.77033
773.6467	100.6015
773.7953	99.47297
773.944	100.1675
774.0928	97.90577
774.2415	98.01793
774.3901	100.7252
774.5388	96.90195
774.6874	94.46521
774.8361	97.64531
774.9847	94.05151
775.1334	97.91348
775.282	98.60474
775.4305	101.4896
775.5792	96.34177
775.7277	87.85344
775.8763	95.24091
776.0249	103.1465
776.1735	97.35709
776.322	98.40303
776.4705	97.60893
776.6191	94.7178
776.7676	92.86177
776.9161	89.82121
777.0646	94.31458
777.2131	94.40499
777.3616	94.34902
777.5101	94.48743
777.6585	94.50636
777.8069	94.0439
777.9554	94.12581
778.1038	92.07326
778.2523	92.56155
778.4007	91.91084
778.5491	91.80374
778.6974	99.86189
778.8459	93.72459
778.9942	94.24005
779.1426	92.06052
779.291	93.41461
779.4393	92.90656
779.5876	93.52663
779.736	88.64408
779.8843	90.35474
780.0326	86.56607
780.1809	91.90876
780.3292	90.09122
780.4775	89.14148
780.6257	93.40102
780.774	94.67337
780.9222	88.22854
781.0704	87.25256
781.2187	91.77167
781.3669	91.85085
781.5151	86.75709
781.6633	93.50764
781.8115	92.37263
781.9597	90.80263
782.1078	90.88344
782.256	94.77889
782.4042	89.17925
782.5523	89.29876
782.7004	85.86465
782.8486	89.32384
782.9967	91.75545
783.1448	90.80577
783.2929	90.16836
783.441	85.17307
783.5891	88.82504
783.7371	87.12154
783.8851	89.33529
784.0332	90.72499
784.1812	86.8623
784.3293	82.08587
784.4773	85.50992
784.6253	84.52122
784.7733	84.28068
784.9213	85.18715
785.0692	85.10941
785.2172	88.78515
785.3652	89.90723
785.5131	92.10628
785.6611	85.26173
785.809	83.01006
785.9569	91.85754
786.1048	90.33877
786.2527	84.59657
786.4006	84.37908
786.5485	84.25581
786.6964	85.34148
786.8442	83.26076
786.9921	84.01187
787.1399	81.77845
787.2877	86.98705
787.4355	84.67651
787.5833	88.41072
787.7311	88.00629
787.8789	83.74217
788.0267	83.79168
788.1745	79.61775
788.3223	84.77423
788.47	86.43124
788.6177	91.06559
788.7654	84.32825
788.9132	81.61907
789.0609	83.72807
789.2086	78.69585
789.3563	80.67171
789.504	77.93412
789.6517	82.45979
789.7993	78.51292
789.947	79.04753
790.0946	81.1968
790.2422	80.7037
790.3898	78.45799
790.5375	78.65784
790.6851	79.79952
790.8326	79.85404
790.9802	74.34155
791.1278	70.01842
791.2754	80.18084
791.423	80.78342
791.5705	78.6126
791.718	75.12618
791.8655	79.06547
792.0131	84.4223
792.1606	77.53487
792.308	83.9156
792.4556	84.23254
792.603	77.02275
792.7505	79.58145
792.8979	81.91512
793.0454	75.87024
793.1928	73.70937
793.3403	73.48554
793.4877	77.77642
793.6351	78.23759
793.7825	77.8084
793.9299	77.46882
794.0772	70.56528
794.2246	73.90019
794.3719	76.59844
794.5193	73.51089
794.6666	73.7095
794.814	79.54741
794.9613	77.94035
795.1086	75.83895
795.2559	84.45235
795.4032	83.06655
795.5505	72.86998
795.6978	76.53404
795.845	74.37679
795.9922	76.11578
796.1395	73.92856
796.2867	72.20526
796.4339	76.13218
796.5811	71.05293
796.7283	70.71791
796.8755	74.45692
797.0227	71.62706
797.1699	74.92615
797.317	73.67875
797.4642	77.01993
797.6113	78.92776
797.7584	75.26911
797.9056	77.24153
798.0527	74.04602
798.1998	75.34779
798.3469	69.29191
798.494	70.94618
798.641	73.00713
798.7881	72.34193
798.9351	64.08861
799.0822	72.91579
799.2292	75.20901
799.3762	75.23548
799.5232	71.52725
799.6702	72.06616
799.8172	70.38421
799.9642	71.50598
800.1111	67.17657
800.2581	68.7364
800.4051	67.12901
800.552	71.78468
800.6989	69.60876
800.8458	71.51981
800.9927	74.16049
801.1396	72.88136
801.2866	70.59827
801.4334	70.98217
801.5803	65.5395
801.7272	66.3894
801.874	69.49686
802.0209	75.29003
802.1677	72.97276
802.3145	69.45609
802.4613	71.19017
802.6081	66.64854
802.7549	63.92794
802.9017	64.01701
803.0485	65.2466
803.1952	67.0671
803.342	73.7497
803.4887	67.63245
803.6354	66.29201
803.7822	71.74644
803.9289	66.31049
804.0756	66.5789
804.2223	70.39742
804.369	66.8128
804.5156	61.68233
804.6623	67.12044
804.8089	68.10812
804.9556	69.56998
805.1022	69.19897
805.2488	65.02221
805.3954	67.18498
805.542	70.18905
805.6886	67.8325
805.8352	66.39711
805.9818	65.92464
806.1283	65.62257
806.2749	61.70479
806.4214	64.49364
806.5679	70.40476
806.7145	69.46895
806.861	67.68327
807.0074	65.69937
807.154	69.36855
807.3004	63.71089
807.4469	64.3259
807.5934	66.20464
807.7398	62.39256
807.8862	61.9651
808.0327	60.81593
808.1791	63.95728
808.3255	64.59063
808.4719	64.35883
808.6183	62.94629
808.7647	65.86363
808.9111	64.93266
809.0574	61.05227
809.2037	62.5414
809.3501	56.81583
809.4965	61.55745
809.6428	61.7919
809.7891	59.33289
809.9354	61.03467
810.0817	60.27739
810.2279	62.3996
810.3742	56.54449
810.5204	56.76496
810.6667	67.08858
810.8129	66.38712
810.9592	59.91775
811.1054	63.59797
811.2516	62.81937
811.3978	57.12186
811.5439	59.73264
811.6901	57.18275
811.8363	59.01284
811.9825	56.23145
812.1286	62.70436
812.2748	57.22462
812.4209	57.80933
812.567	55.10666
812.7131	54.66544
812.8592	65.6433
813.0053	57.75266
813.1514	56.30551
813.2974	57.29457
813.4435	52.30649
813.5895	54.55125
813.7356	54.15825
813.8816	53.11977
814.0276	56.15062
814.1736	57.89942
814.3196	57.85716
814.4656	54.91552
814.6116	53.99722
814.7576	51.60457
814.9035	53.26848
815.0494	49.41688
815.1954	47.89777
815.3413	49.7067
815.4872	52.56384
815.6331	49.22854
815.779	51.35284
815.9249	53.69682
816.0707	51.05442
816.2166	49.40693
816.3625	45.67168
816.5083	44.5973
816.6542	48.70603
816.8	46.23738
816.9458	43.93923
817.0916	47.67547
817.2374	51.27091
817.3832	49.73057
817.5289	52.08474
817.6747	43.94081
817.8204	42.61361
817.9662	48.50344
818.1119	49.10499
818.2576	48.92221
818.4034	50.12427
818.5491	51.16003
818.6948	52.43923
818.8405	52.37431
818.9861	47.67344
819.1318	47.10424
819.2774	48.96335
819.423	48.40376
819.5687	42.75259
819.7143	45.71178
819.8599	43.70218
820.0055	44.09212
820.1511	48.38115
820.2967	47.49729
820.4422	54.1627
820.5878	46.37276
820.7333	52.09996
820.8788	50.44988
821.0244	48.80759
821.1699	50.19322
821.3154	49.77604
821.4609	48.91205
821.6064	52.07987
821.7519	53.555
821.8973	47.70926
822.0428	53.19693
822.1882	49.25505
822.3337	46.88413
822.4791	43.13181
822.6245	45.76275
822.7699	45.83738
822.9153	36.2699
823.0607	39.42125
823.2061	38.85392
823.3514	44.83055
823.4968	42.90048
823.6422	48.80866
823.7875	51.85259
823.9328	46.85612
824.0781	45.53398
824.2234	45.77766
824.3687	47.51241
824.514	52.51767
824.6592	51.00988
824.8045	50.24983
824.9498	44.9681
825.095	52.01212
825.2402	49.85662
825.3854	48.66776
825.5306	49.58007
825.6758	46.89939
825.821	49.64288
825.9662	46.52742
826.1114	45.95949
826.2565	46.36612
826.4017	44.42476
826.5468	46.61641
826.692	45.58717
826.837	52.67707
826.9822	52.01215
827.1273	47.8554
827.2723	43.16982
827.4174	46.97875
827.5625	40.50446
827.7075	44.90209
827.8526	44.17808
827.9976	48.04203
828.1426	44.24834
828.2877	43.89727
828.4327	49.16356
828.5776	47.10806
828.7227	41.85125
828.8676	40.63605
829.0126	46.80286
829.1575	48.55514
829.3024	42.28243
829.4474	41.68839
829.5923	46.59487
829.7372	42.43586
829.8821	44.57521
830.027	47.68392
830.1719	47.32793
830.3168	49.04508
830.4616	40.91294
830.6064	45.36362
830.7513	44.13673
830.8961	37.57444
831.041	44.68792
831.1857	43.65186
831.3306	42.88177
831.4753	42.61779
831.6201	42.97369
831.7649	37.68397
831.9096	37.18555
832.0544	47.18378
832.1991	45.39497
832.3438	42.49692
832.4885	41.93546
832.6332	44.23261
832.778	45.68425
832.9226	40.57608
833.0673	47.32675
833.2119	42.35405
833.3566	39.08051
833.5012	40.79419
833.6459	44.96816
833.7905	45.28086
833.9351	40.35122
834.0797	43.60221
834.2243	44.20902
834.3688	46.26347
834.5134	48.86988
834.658	49.78646
834.8026	45.07392
834.9471	42.94639
835.0916	44.01152
835.2361	47.14149
835.3806	43.70127
835.5251	49.75058
835.6696	43.11706
835.8141	42.46447
835.9586	40.75465
836.103	42.41844
836.2474	42.66063
836.3918	40.84467
836.5363	42.60356
836.6807	40.31868
836.8251	43.8768
836.9695	40.28671
837.1138	42.08819
837.2582	45.09428
837.4026	43.78367
837.5469	46.14206
837.6913	44.22641
837.8356	39.7243
837.9799	39.26125
838.1242	49.2024
838.2686	42.22483
838.4128	36.10532
838.5571	44.18038
838.7014	46.25034
838.8456	40.34995
838.9899	41.06636
839.1341	42.78912
839.2783	41.01824
839.4225	46.77767
839.5667	40.13526
839.7109	41.68698
839.8551	42.46249
839.9993	41.7121
840.1434	46.17295
840.2876	42.71867
840.4317	41.11059
840.5759	45.08873
840.72	42.37676
840.8641	38.57187
841.0082	40.47514
841.1523	43.66676
841.2963	46.50489
841.4404	45.87807
841.5845	41.43329
841.7285	43.04865
841.8726	43.8101
842.0165	38.90619
842.1606	41.65057
842.3046	43.34763
842.4485	40.60593
842.5925	39.76236
842.7365	42.38548
842.8805	45.50145
843.0244	42.64767
843.1684	42.68401
843.3123	40.08861
843.4562	41.21574
843.6002	40.68656
843.744	42.66209
843.8879	36.0225
844.0318	41.24152
844.1757	44.84379
844.3195	42.59764
844.4634	41.64462
844.6072	39.6931
844.751	38.9358
844.8948	35.43545
845.0386	40.91333
845.1824	41.48774
845.3262	42.0941
845.47	39.68114
845.6138	39.74356
845.7575	45.60426
845.9012	43.91876
846.045	41.51814
846.1887	37.45684
846.3324	36.78805
846.4761	41.22504
846.6198	40.88705
846.7635	42.36968
846.9071	40.29046
847.0508	43.97399
847.1944	41.08813
847.3381	43.89591
847.4817	40.79383
847.6253	39.92861
847.7689	43.30797
847.9125	34.54559
848.0561	34.94605
848.1996	41.70368
848.3432	36.74188
848.4868	41.80365
848.6303	37.00725
848.7738	35.69104
848.9174	38.41138
849.0609	38.00003
849.2043	36.63465
849.3478	36.47189
849.4913	33.47398
849.6348	37.52498
849.7782	37.68129
849.9217	41.25124
850.0651	35.02067
850.2086	37.74973
850.3519	40.61112
850.4954	37.45257
850.6387	43.84911
850.7821	42.80304
850.9255	39.0454
851.0688	41.29663
851.2122	38.25375
851.3555	35.02647
851.4988	40.32626
851.6422	38.74594
851.7855	38.85932
851.9288	42.85776
852.0721	40.07376
852.2153	36.66497
852.3586	40.8393
852.5018	44.81325
852.6451	36.66785
852.7883	37.97672
852.9315	39.62923
853.0748	37.07642
853.218	39.36913
853.3611	40.27233
853.5043	37.29194
853.6475	33.14405
853.7906	33.3477
853.9338	32.48969
854.0769	31.61275
854.22	32.55379
854.3632	32.01609
854.5063	27.25081
854.6494	36.1913
854.7924	36.67025
854.9355	32.72707
855.0786	30.65345
855.2216	34.67591
855.3647	34.39819
855.5077	38.76015
855.6507	35.70384
855.7937	30.12533
855.9367	28.18569
856.0797	34.41616
856.2227	33.99316
856.3657	37.53231
856.5086	36.19709
856.6516	43.23206
856.7945	39.14059
856.9374	38.99284
857.0803	33.07454
857.2232	38.6444
857.3661	32.77893
857.509	33.75469
857.6519	33.82053
857.7947	36.11794
857.9376	35.81554
858.0804	33.47054
858.2232	34.89842
858.366	32.87945
858.5089	34.38362
858.6516	33.67453
858.7944	39.51125
858.9372	32.90328
859.08	32.98132
859.2227	35.69559
859.3654	33.29703
859.5082	30.29381
859.6509	32.86562
859.7936	32.44262
859.9363	32.5458
860.079	34.4845
860.2217	36.72134
860.3643	35.84368
860.507	35.2651
860.6496	34.4854
860.7922	35.76661
860.9349	32.64102
861.0775	32.36165
861.2201	38.38555
861.3627	36.64537
861.5052	36.45391
861.6478	36.53749
861.7904	36.62252
861.9329	37.04861
862.0755	29.71245
862.218	28.93537
862.3605	32.18325
862.503	31.50367
862.6455	33.85141
862.788	37.60612
862.9305	36.15131
863.0729	34.5641
863.2154	34.52377
863.3578	34.96437
863.5002	31.09095
863.6426	31.58215
863.7851	29.64618
863.9275	35.43439
864.0698	36.12347
864.2122	35.20155
864.3546	31.62058
864.4969	26.71767
864.6393	31.91969
864.7816	38.39488
864.924	34.43307
865.0662	36.25353
865.2086	29.25627
865.3508	31.25062
865.4931	27.27404
865.6354	33.13393
865.7776	33.84619
865.9199	31.46756
866.0621	26.11657
866.2043	26.09556
866.3466	24.69074
866.4888	24.33944
866.6309	27.77954
866.7731	31.30706
866.9153	30.73413
867.0574	32.25839
867.1996	32.11138
867.3417	31.7093
867.4839	30.94918
867.626	27.21166
867.7681	28.39223
867.9102	33.81746
868.0522	32.9749
868.1943	31.83954
868.3364	28.9
868.4785	29.29871
868.6205	33.00117
868.7625	27.33818
868.9045	27.25461
869.0465	27.90602
869.1885	27.08451
869.3305	27.51923
869.4725	29.03622
869.6144	33.23326
869.7564	32.59818
869.8983	32.38988
870.0403	27.20266
870.1822	28.60485
870.3241	29.82667
870.466	26.74186
870.6079	30.27468
870.7498	31.4938
870.8916	32.46508
871.0335	36.30941
871.1754	31.30251
871.3171	34.6298
871.459	29.93272
871.6008	30.83689
871.7426	32.21863
871.8844	33.88293
872.0262	26.00913
872.1679	33.77834
872.3097	29.15972
872.4514	28.30783
872.5931	29.37197
872.7349	30.20289
872.8766	27.4277
873.0183	30.16306
873.16	29.46521
873.3017	27.55873
873.4434	38.07879
873.585	36.58065
873.7266	30.06041
873.8683	27.13529
874.0099	26.88249
874.1516	26.00595
874.2932	26.2082
874.4348	30.75888
874.5763	27.56663
874.7179	30.73829
874.8594	31.48344
875.001	27.90614
875.1425	25.803
875.2841	26.44563
875.4256	28.74656
875.5671	30.25901
875.7086	32.19454
875.85	28.70527
875.9915	30.02056
876.133	26.27253
876.2744	28.95609
876.4159	23.45763
876.5573	29.07937
876.6987	30.00082
876.8401	22.68938
876.9815	24.89715
877.1229	27.70305
877.2643	28.06671
877.4056	26.73063
877.547	27.64817
877.6884	28.75225
877.8297	26.29284
877.971	27.75298
878.1123	27.45532
878.2536	28.04854
878.3949	25.25119
878.5362	28.16058
878.6774	28.79239
878.8187	27.97409
878.9599	25.18267
879.1011	25.17106
879.2424	29.75106
879.3836	24.14486
879.5248	23.49075
879.666	23.10006
879.8071	23.75323
879.9483	30.90411
880.0895	21.55628
880.2306	25.39237
880.3718	27.19155
880.5129	26.7029
880.654	22.55725
880.7951	22.94884
880.9362	23.76185
881.0773	28.74677
881.2183	25.3197
881.3594	26.42209
881.5004	27.23181
881.6414	26.16597
881.7825	25.36929
881.9235	27.44086
882.0645	32.00637
882.2054	30.58093
882.3464	27.30159
882.4874	27.3775
882.6284	26.80136
882.7693	25.72938
882.9103	28.86473
883.0512	27.28279
883.1921	30.66571
883.333	30.05507
883.4739	28.37052
883.6147	27.44766
883.7556	24.71013
883.8965	23.443
884.0374	23.4181
884.1782	26.52532
884.319	28.17233
884.4598	26.12969
884.6006	27.05346
884.7414	26.10863
884.8822	26.77238
885.0229	27.19976
885.1637	29.69835
885.3044	27.3436
885.4452	25.02333
885.5859	27.88814
885.7266	25.40811
885.8673	22.3175
886.008	25.98074
886.1487	22.70879
886.2894	24.21014
886.43	21.00955
886.5707	18.63794
886.7113	25.6721
886.8519	21.94074
886.9926	18.38329
887.1331	23.95853
887.2737	26.18172
887.4143	24.95296
887.5549	20.53957
887.6954	23.92685
887.836	23.72214
887.9765	22.01631
888.1171	18.05129
888.2576	23.35955
888.3981	21.22649
888.5386	26.87153
888.679	27.29431
888.8195	26.29488
888.96	21.22961
889.1004	19.64262
889.2408	20.96395
889.3813	23.33181
889.5217	21.10756
889.6621	25.31818
889.8025	22.85281
889.9429	24.5382
890.0833	22.3456
890.2236	25.12192
890.364	27.27644
890.5043	21.68106
890.6446	26.72176
890.7849	24.92262
890.9252	20.96083
891.0655	24.94829
891.2058	22.94672
891.3461	25.76995
891.4863	21.99078
891.6266	23.72135
891.7668	27.24804
891.907	23.80732
892.0472	22.81651
892.1874	25.07024
892.3276	26.21334
892.4678	28.28724
892.608	20.42466
892.7481	19.62019
892.8883	21.64332
893.0284	21.04381
893.1685	25.24
893.3087	27.14717
893.4487	22.86077
893.5889	21.75635
893.7289	20.58478
893.869	19.97126
894.009	24.32951
894.1491	21.76358
894.2891	21.09499
894.4291	21.92025
894.5692	22.63434
894.7092	26.97544
894.8491	22.86305
894.9891	21.23219
895.1291	19.62675
895.269	20.09021
895.409	19.86295
895.549	17.18146
895.6888	17.91142
895.8288	22.8413
895.9687	25.51383
896.1086	18.71395
896.2484	23.30876
896.3883	18.40461
896.5281	19.81537
896.668	24.10096
896.8079	23.46871
896.9476	17.98383
897.0875	19.47346
897.2272	19.87971
897.3671	20.99512
897.5068	16.09019
897.6466	20.08394
897.7864	21.39703
897.9261	17.97655
898.0658	17.10375
898.2056	19.74953
898.3453	22.02636
898.4849	19.5197
898.6246	13.22555
898.7643	21.54662
898.904	21.74054
899.0436	22.6872
899.1833	17.45144
899.3229	15.74596
899.4625	17.65328
899.6021	17.68814
899.7417	18.92922
899.8813	20.10182
900.0209	21.79565
900.1605	20.10325
900.3	20.36003
900.4395	18.95643
900.579	18.03306
900.7186	16.30459
900.8581	20.10555
900.9976	19.97387
901.1371	15.86175
901.2766	17.04763
901.416	20.86637
901.5555	22.82834
901.6949	20.02224
901.8344	18.34931
901.9738	20.66867
902.1132	19.0647
902.2526	19.24728
902.3919	16.34725
902.5313	17.64797
902.6707	18.67861
