SPECTRUM DATA FILE
SpectrumCount:	1
PixelCount:	3648
UserName:	ToughBook User
SampleName:	
LightSource:	
Comments:	
DeviceName:	Qwave
DeviceManufacturer:	Broadcom
DeviceSerialNo:	11311

Name:	last spectrum
Date:	2024-05-02T14:34:28.6071694+02:00
ExposureTime:	0.02
TemporalAvg:	1
IntensityUnit:	normalizedCounts
CCDLoadLevel:	0.1629686
Temperature:	31.49347
DiagramColor:	200
ProcessingSteps:	335

Wavelength [nm]	Intensity1
334.421	34.08448
334.5891	36.50972
334.7573	42.17047
334.9254	36.24857
335.0935	39.61246
335.2616	48.03052
335.4297	41.23692
335.5978	36.30207
335.7659	34.68533
335.934	35.02513
336.1021	38.24501
336.2701	31.01923
336.4382	33.36929
336.6063	37.31476
336.7744	33.17532
336.9424	32.57135
337.1105	36.19684
337.2785	39.00581
337.4466	37.62565
337.6146	38.21394
337.7827	34.51632
337.9507	38.05876
338.1187	37.47401
338.2867	38.43906
338.4548	43.34079
338.6228	46.38155
338.7908	47.29229
338.9588	38.48107
339.1268	40.21908
339.2948	39.8287
339.4628	36.77412
339.6308	41.39431
339.7988	44.55308
339.9667	40.87344
340.1347	43.3595
340.3027	40.08797
340.4707	44.84179
340.6386	41.62653
340.8066	41.03006
340.9745	45.33814
341.1425	41.424
341.3104	45.82527
341.4784	42.79325
341.6463	45.21025
341.8142	42.57289
341.9821	40.52018
342.1501	45.0567
342.318	42.47071
342.4859	42.54147
342.6538	46.44589
342.8217	52.59405
342.9896	51.46704
343.1575	50.28835
343.3254	47.46709
343.4933	48.77464
343.6612	46.19315
343.829	42.51476
343.9969	41.20669
344.1648	39.28753
344.3326	38.06964
344.5005	37.31327
344.6683	38.87305
344.8362	42.35338
345.004	47.90018
345.1719	49.79237
345.3397	48.65902
345.5075	47.27002
345.6754	49.95558
345.8432	45.17727
346.011	45.63631
346.1788	46.48152
346.3466	48.03817
346.5144	51.88615
346.6822	50.51821
346.85	51.28487
347.0178	46.8568
347.1856	47.91285
347.3534	45.09612
347.5211	45.53203
347.6889	47.28358
347.8567	47.51385
348.0244	47.00039
348.1922	47.93727
348.3599	50.26269
348.5277	48.06702
348.6954	48.66644
348.8632	46.55144
349.0309	44.59972
349.1986	44.96799
349.3663	42.82676
349.5341	47.34978
349.7018	48.35166
349.8695	52.05872
350.0372	53.83669
350.2049	55.99307
350.3726	58.30703
350.5403	52.8057
350.7079	49.81671
350.8756	49.6972
351.0433	50.58683
351.211	50.64573
351.3786	55.78983
351.5463	51.40614
351.714	57.81214
351.8816	57.30336
352.0493	55.95193
352.2169	50.10639
352.3846	44.88356
352.5522	52.09462
352.7198	51.87756
352.8875	51.93877
353.0551	54.58208
353.2227	53.9792
353.3903	56.33694
353.5579	60.97303
353.7255	62.48405
353.8931	59.90414
354.0607	62.38869
354.2283	59.40832
354.3958	65.39613
354.5634	70.21905
354.731	65.84093
354.8986	64.44014
355.0661	64.88062
355.2337	65.52641
355.4012	63.96185
355.5688	57.47808
355.7363	59.52431
355.9039	59.97647
356.0714	66.00138
356.239	57.38606
356.4065	56.2593
356.574	53.63029
356.7415	50.00034
356.909	50.73477
357.0765	54.05631
357.244	51.00517
357.4115	50.29795
357.579	57.29225
357.7465	54.85107
357.914	47.71554
358.0815	48.22572
358.249	47.21509
358.4164	48.07312
358.5839	51.07104
358.7513	51.43474
358.9188	51.07064
359.0862	57.76459
359.2537	61.88516
359.4211	71.98898
359.5886	72.01431
359.756	77.53551
359.9234	73.5648
360.0909	68.61189
360.2583	64.82362
360.4257	57.05418
360.5931	62.01591
360.7605	57.51913
360.9279	58.66656
361.0953	63.34975
361.2627	60.97915
361.4301	63.61067
361.5974	56.80873
361.7648	58.923
361.9322	61.00074
362.0995	67.84834
362.2669	70.47629
362.4343	79.98066
362.6016	79.99932
362.769	80.6147
362.9363	71.42471
363.1036	66.40474
363.271	63.66807
363.4383	67.0185
363.6056	75.99081
363.7729	76.59954
363.9402	76.14728
364.1075	74.08192
364.2748	78.38504
364.4421	77.18107
364.6094	72.57858
364.7767	68.56558
364.944	72.56521
365.1113	79.65501
365.2786	82.44952
365.4458	90.07848
365.6131	96.35163
365.7803	95.74772
365.9476	89.03363
366.1148	89.84985
366.2821	88.90163
366.4493	87.01879
366.6166	88.20246
366.7838	82.6879
366.951	86.9259
367.1182	93.48191
367.2855	89.0231
367.4527	86.80231
367.6199	82.92098
367.7871	81.13009
367.9543	78.75665
368.1215	81.24883
368.2886	83.00465
368.4558	81.38254
368.623	78.94315
368.7902	81.52135
368.9573	84.4038
369.1245	89.90868
369.2917	88.82573
369.4588	87.07552
369.6259	93.49059
369.7931	103.3165
369.9602	102.6877
370.1274	100.373
370.2945	92.29207
370.4616	78.42822
370.6287	82.18358
370.7958	78.97027
370.963	90.08522
371.1301	94.77906
371.2971	106.656
371.4643	110.5137
371.6313	107.5956
371.7984	91.67583
371.9655	84.50249
372.1326	80.07946
372.2997	90.91173
372.4667	100.1217
372.6338	96.39351
372.8008	92.6893
372.9679	96.12045
373.1349	90.80006
373.3019	82.82868
373.469	71.28078
373.636	71.24924
373.803	84.86325
373.9701	94.45227
374.1371	97.42671
374.3041	84.94324
374.4711	80.09885
374.6381	75.72412
374.8051	72.2098
374.9721	81.75259
375.1391	91.913
375.3061	106.8108
375.473	111.3819
375.64	101.8421
375.8069	87.89697
375.9739	92.21864
376.1409	96.93844
376.3078	97.8903
376.4748	97.70781
376.6417	101.6699
376.8087	101.9729
376.9756	107.1495
377.1425	114.9773
377.3094	112.8997
377.4763	116.257
377.6432	123.0614
377.8102	118.8458
377.9771	128.0281
378.144	131.1687
378.3109	130.5082
378.4777	119.93
378.6446	115.98
378.8115	103.5405
378.9784	105.1268
379.1452	106.0222
379.3121	99.4395
379.4789	98.3484
379.6458	92.77532
379.8127	97.23753
379.9795	104.6678
380.1463	115.1513
380.3131	120.7897
380.48	122.8645
380.6468	121.7942
380.8136	119.1074
380.9804	125.9925
381.1472	120.4857
381.314	116.9681
381.4808	102.2198
381.6476	96.13437
381.8144	99.99916
381.9812	96.58341
382.148	95.33779
382.3147	93.76618
382.4815	89.21479
382.6483	84.42756
382.815	81.36534
382.9818	81.32577
383.1485	82.53128
383.3153	84.8842
383.482	85.91178
383.6487	83.13781
383.8155	83.70557
383.9822	88.44191
384.1489	102.2117
384.3156	115.3524
384.4823	120.69
384.649	129.9521
384.8157	132.9057
384.9824	125.2383
385.1491	128.3322
385.3158	126.5877
385.4825	120.2027
385.6491	107.3174
385.8158	103.5285
385.9825	99.01336
386.1491	109.6358
386.3157	118.3164
386.4824	127.4736
386.649	132.6029
386.8157	123.1328
386.9823	113.8655
387.1489	111.8728
387.3156	118.2219
387.4821	124.8487
387.6488	128.6046
387.8154	120.6354
387.982	113.7387
388.1486	120.0552
388.3152	118.7834
388.4818	116.3486
388.6483	110.1782
388.8149	113.4374
388.9815	129.2883
389.148	143.1715
389.3146	142.0417
389.4811	142.5373
389.6477	151.684
389.8142	147.2376
389.9808	148.7397
390.1473	151.7517
390.3138	136.3284
390.4804	136.461
390.6469	145.6277
390.8134	157.2878
390.9799	160.4252
391.1464	170.2363
391.3129	171.1582
391.4794	163.048
391.6459	165.1778
391.8124	154.3318
391.9789	144.4414
392.1453	139.0036
392.3118	139.5889
392.4782	137.4357
392.6447	119.4838
392.8112	105.9556
392.9776	87.28155
393.144	71.60783
393.3105	68.24354
393.4769	69.91005
393.6433	78.20478
393.8098	94.19438
393.9762	123.0097
394.1426	120.8202
394.309	138.194
394.4754	143.0845
394.6418	154.527
394.8082	164.1339
394.9746	176.4598
395.141	182.2289
395.3073	178.3363
395.4737	168.9879
395.64	176.0403
395.8064	176.6051
395.9728	163.9866
396.1391	144.893
396.3055	125.5477
396.4718	110.8508
396.6381	91.49603
396.8045	78.60861
396.9708	87.69502
397.1371	106.9223
397.3034	126.4003
397.4697	145.3671
397.636	161.7169
397.8023	186.4778
397.9686	205.6742
398.1349	207.5023
398.3012	206.7231
398.4675	209.2679
398.6337	214.4602
398.8	220.6004
398.9662	228.286
399.1325	229.1186
399.2988	225.3953
399.465	224.5309
399.6313	225.2337
399.7975	227.3488
399.9637	229.7867
400.1299	235.295
400.2961	233.6709
400.4624	224.3819
400.6286	220.7254
400.7948	231.8774
400.961	236.1797
401.1272	253.4308
401.2934	251.3454
401.4595	252.5297
401.6257	257.692
401.7919	249.4371
401.9581	249.3763
402.1242	251.7426
402.2904	251.4342
402.4565	250.304
402.6227	257.2501
402.7888	250.456
402.955	238.0709
403.1211	239.9231
403.2872	226.4221
403.4533	237.1075
403.6194	261.4256
403.7856	268.0075
403.9517	268.0085
404.1177	261.5916
404.2838	245.2603
404.4499	231.7326
404.616	223.353
404.7821	240.8315
404.9482	261.3136
405.1142	270.8171
405.2803	263.2563
405.4464	254.1082
405.6124	251.8
405.7784	250.7796
405.9445	261.3993
406.1105	247.82
406.2766	236.3495
406.4426	239.3763
406.6086	250.6029
406.7746	263.0724
406.9406	268.8265
407.1066	265.084
407.2726	260.4408
407.4386	267.1459
407.6046	263.9095
407.7706	254.6095
407.9366	270.2562
408.1025	285.5368
408.2685	288.898
408.4344	285.6097
408.6004	291.1779
408.7664	296.2226
408.9323	311.7209
409.0983	310.5112
409.2642	296.6529
409.4301	293.022
409.596	281.3641
409.762	268.4366
409.9279	257.6543
410.0938	237.3217
410.2597	239.175
410.4256	260.4663
410.5915	288.6803
410.7574	286.6158
410.9232	285.3558
411.0891	298.2245
411.255	304.4781
411.4209	313.2845
411.5867	317.3594
411.7526	316.949
411.9184	320.8335
412.0843	312.0672
412.2501	310.3672
412.4159	315.6382
412.5818	319.5923
412.7476	315.5889
412.9134	306.3597
413.0792	292.9186
413.245	293.2206
413.4108	301.6796
413.5766	317.0213
413.7424	336.5267
413.9082	336.4003
414.074	331.7108
414.2397	312.318
414.4055	305.8137
414.5713	310.4634
414.737	321.5367
414.9028	327.9879
415.0685	322.6877
415.2343	308.4139
415.4	303.4232
415.5658	305.4805
415.7315	312.9679
415.8972	322.5473
416.0629	336.1383
416.2286	353.0399
416.3943	357.3561
416.56	345.5117
416.7257	330.2324
416.8914	323.0084
417.0571	318.8902
417.2228	318.7121
417.3884	307.118
417.5541	308.8265
417.7198	320.8665
417.8854	325.7125
418.0511	319.7799
418.2167	312.7803
418.3824	320.5511
418.548	327.4408
418.7136	321.9159
418.8792	325.3651
419.0449	329.8973
419.2105	344.737
419.3761	346.0265
419.5417	337.4426
419.7073	322.6198
419.8729	312.8953
420.0385	320.2914
420.204	324.2529
420.3696	342.1946
420.5352	359.1777
420.7007	363.3741
420.8663	365.6618
421.0319	361.7961
421.1974	374.011
421.3629	371.1161
421.5285	362.7124
421.694	356.5239
421.8595	366.9003
422.0251	379.6602
422.1906	374.6391
422.3561	355.0014
422.5216	322.6807
422.6871	300.6296
422.8526	330.5594
423.0181	359.0259
423.1835	371.8557
423.349	375.3029
423.5145	352.4701
423.68	357.3455
423.8454	350.784
424.0109	365.6078
424.1763	374.2209
424.3418	372.1122
424.5072	388.2546
424.6726	376.1481
424.838	354.0191
425.0035	349.6794
425.1689	361.0902
425.3343	363.5225
425.4997	372.1195
425.6651	371.7364
425.8305	367.6144
425.9959	356.8774
426.1613	356.0453
426.3267	381.3494
426.492	394.2032
426.6574	388.2849
426.8228	361.7258
426.9881	339.3743
427.1534	321.2995
427.3188	319.5609
427.4841	336.9667
427.6495	359.9146
427.8148	374.7687
427.9801	375.2918
428.1454	374.0601
428.3107	368.3573
428.476	366.3994
428.6414	357.6815
428.8066	344.5846
428.9719	340.2076
429.1372	347.1632
429.3025	362.9346
429.4678	362.0739
429.633	337.047
429.7983	310.0431
429.9636	278.2928
430.1288	262.8104
430.294	268.4536
430.4593	278.5344
430.6245	275.8433
430.7897	268.6349
430.955	269.271
431.1202	281.2518
431.2854	314.6693
431.4506	362.079
431.6158	415.9879
431.781	452.8757
431.9462	454.1929
432.1114	425.7044
432.2766	384.7028
432.4417	340.8716
432.6069	343.0479
432.772	380.668
432.9372	412.7437
433.1024	439.2278
433.2675	450.9972
433.4326	444.0332
433.5977	414.4179
433.7629	373.8159
433.928	339.0577
434.0931	326.7197
434.2582	347.8394
434.4233	389.9703
434.5884	423.4994
434.7535	436.0324
434.9186	440.3046
435.0837	429.4948
435.2488	413.8593
435.4138	411.2741
435.5789	438.7521
435.744	445.5679
435.909	450.818
436.0741	459.9107
436.2391	468.528
436.4042	482.3167
436.5692	474.3317
436.7342	467.2479
436.8992	463.3459
437.0643	461.6886
437.2293	447.567
437.3943	438.0022
437.5593	430.0149
437.7243	450.2243
437.8893	459.9283
438.0542	448.2987
438.2192	403.0958
438.3842	376.5843
438.5491	373.0912
438.7141	409.2671
438.8791	442.1872
439.044	446.1059
439.209	450.5852
439.3739	453.0783
439.5388	451.7214
439.7037	475.7509
439.8687	477.6165
440.0336	475.301
440.1985	455.3436
440.3634	429.7899
440.5283	428.7308
440.6932	447.0559
440.8581	467.0775
441.0229	488.9418
441.1878	502.9698
441.3527	494.7363
441.5175	479.2831
441.6824	482.274
441.8472	504.5653
442.0121	529.5194
442.1769	510.4519
442.3418	504.2605
442.5066	499.8459
442.6714	509.4691
442.8362	521.4438
443.001	527.0902
443.1659	507.248
443.3307	500.1181
443.4955	493.3566
443.6602	507.0914
443.825	525.879
443.9898	534.1868
444.1546	531.042
444.3193	516.0928
444.4841	527.8426
444.6488	534.2457
444.8136	550.4713
444.9783	544.1899
445.1431	533.2195
445.3078	516.3751
445.4725	500.7666
445.6372	485.0371
445.802	481.0982
445.9667	484.84
446.1314	490.2518
446.2961	508.2258
446.4608	522.2662
446.6255	525.4548
446.7901	529.4015
446.9548	532.7238
447.1195	548.8904
447.2841	554.7798
447.4488	567.8659
447.6134	572.7108
447.7781	572.9973
447.9427	552.652
448.1074	541.2529
448.272	533.3978
448.4366	559.9409
448.6012	577.7582
448.7658	588.3041
448.9305	573.0066
449.095	560.6245
449.2596	558.2851
449.4242	563.2805
449.5888	561.4278
449.7534	569.7921
449.9179	587.2079
450.0825	598.6886
450.2471	600.0494
450.4116	618.3317
450.5762	633.429
450.7407	642.5258
450.9052	632.183
451.0698	620.3688
451.2343	620.5988
451.3988	603.7281
451.5633	595.4551
451.7278	593.0977
451.8923	606.8182
452.0568	615.636
452.2213	613.6115
452.3858	596.3666
452.5503	581.4764
452.7148	547.4952
452.8792	540.8081
453.0437	542.8557
453.2081	551.5554
453.3726	558.3297
453.537	560.9813
453.7015	583.6493
453.8659	608.4944
454.0303	614.6197
454.1947	600.3549
454.3592	601.975
454.5236	608.3888
454.688	604.4096
454.8524	585.6774
455.0168	572.536
455.1811	582.1277
455.3455	591.3981
455.5099	600.4391
455.6743	609.2209
455.8386	614.7078
456.003	629.3763
456.1673	637.9492
456.3317	621.8321
456.496	606.3076
456.6603	613.2073
456.8246	626.5675
456.989	626.9348
457.1533	620.9619
457.3176	623.8343
457.4819	630.567
457.6462	644.189
457.8105	633.4822
457.9748	616.5398
458.1391	600.7358
458.3033	589.7615
458.4676	582.317
458.6319	601.3627
458.7961	612.5847
458.9604	616.7881
459.1246	618.0988
459.2888	616.6748
459.4531	606.4733
459.6173	604.0239
459.7815	611.9417
459.9457	607.7647
460.11	611.7983
460.2741	602.1047
460.4384	608.2712
460.6025	632.1096
460.7667	638.0625
460.9309	645.4955
461.0951	641.9912
461.2592	636.7281
461.4234	642.0427
461.5876	643.6043
461.7517	638.3687
461.9159	631.079
462.08	633.9528
462.2441	649.0649
462.4082	650.4362
462.5724	652.5356
462.7365	649.5433
462.9006	642.8974
463.0647	639.9008
463.2288	645.2711
463.3929	639.0397
463.557	636.5573
463.721	628.8149
463.8851	615.4291
464.0492	629.7441
464.2132	631.2416
464.3773	632.3029
464.5414	625.8136
464.7054	605.0404
464.8694	615.4614
465.0334	630.9058
465.1975	645.1552
465.3615	643.8795
465.5255	629.9091
465.6895	640.447
465.8535	650.0154
466.0175	659.7958
466.1815	667.9908
466.3455	660.8273
466.5095	628.652
466.6734	603.1075
466.8374	586.8198
467.0014	614.1024
467.1653	645.751
467.3293	662.1361
467.4932	666.6327
467.6571	661.0507
467.8211	657.8302
467.985	641.9122
468.1489	648.8777
468.3128	657.4217
468.4767	664.4763
468.6406	667.6906
468.8045	671.6546
468.9684	670.4741
469.1323	679.0951
469.2962	666.4321
469.46	672.5977
469.6239	680.5027
469.7878	663.198
469.9516	655.7452
470.1154	629.7148
470.2793	629.9527
470.4431	632.5881
470.607	638.3897
470.7708	645.442
470.9346	644.2372
471.0984	651.0521
471.2622	652.2399
471.426	665.5131
471.5898	676.1862
471.7536	695.7036
471.9174	709.0736
472.0811	702.9373
472.2449	697.8347
472.4087	698.4384
472.5724	705.3289
472.7362	680.0089
472.8999	665.5679
473.0637	651.7522
473.2274	658.1618
473.3911	659.1858
473.5548	651.7706
473.7185	664.5353
473.8822	677.9697
474.0459	688.2208
474.2096	697.9037
474.3733	697.8158
474.537	698.2223
474.7007	698.3518
474.8643	692.8295
475.028	685.0032
475.1917	680.175
475.3553	676.9379
475.519	665.5522
475.6826	669.2371
475.8463	676.5547
476.0099	676.6155
476.1735	662.2175
476.3371	654.8735
476.5007	643.4886
476.6643	656.7328
476.8279	662.6522
476.9915	673.398
477.1551	685.2134
477.3187	690.7112
477.4823	695.0557
477.6458	704.0042
477.8094	716.8389
477.9729	715.4929
478.1365	694.2954
478.3	696.8224
478.4636	683.3358
478.6271	674.49
478.7906	671.887
478.9541	661.2753
479.1176	680.3855
479.2812	694.0588
479.4447	713.5113
479.6082	718.97
479.7716	706.0359
479.9351	687.5797
480.0986	685.7448
480.2621	690.0872
480.4255	691.2386
480.589	681.2378
480.7524	678.2985
480.9159	682.9884
481.0793	679.8828
481.2428	690.7732
481.4062	700.1846
481.5696	708.677
481.733	696.2529
481.8964	711.7737
482.0598	705.0181
482.2232	699.122
482.3866	693.891
482.55	700.7584
482.7134	702.1355
482.8768	704.1031
483.0401	696.8839
483.2035	692.7313
483.3668	694.2181
483.5302	698.426
483.6935	700.9264
483.8568	677.1152
484.0202	674.1234
484.1835	673.5137
484.3468	679.4848
484.5101	686.4331
484.6734	695.1901
484.8367	691.1931
485	689.0744
485.1633	684.6099
485.3266	670.1542
485.4899	655.3851
485.6531	632.0137
485.8164	600.1713
485.9796	542.652
486.1429	509.9233
486.3061	514.2549
486.4694	569.3206
486.6326	627.7963
486.7958	650.6916
486.959	634.8568
487.1223	624.2649
487.2855	623.6445
487.4486	641.2713
487.6118	667.9702
487.775	675.3719
487.9382	693.0473
488.1014	701.9633
488.2646	689.3055
488.4277	667.3123
488.5909	671.5201
488.754	660.2167
488.9171	645.8724
489.0803	643.319
489.2434	658.7426
489.4066	694.1129
489.5697	721.2803
489.7328	740.3289
489.8959	724.8355
490.059	704.4561
490.2221	706.9936
490.3852	702.1018
490.5482	708.5543
490.7113	699.605
490.8744	696.8676
491.0374	677.4379
491.2005	675.2681
491.3636	694.9589
491.5266	707.0214
491.6896	681.8793
491.8527	647.2544
492.0157	623.4476
492.1787	625.8537
492.3417	651.922
492.5047	671.6542
492.6677	680.1257
492.8307	698.694
492.9937	718.5598
493.1567	713.3755
493.3196	687.7835
493.4826	673.2155
493.6456	663.7757
493.8085	663.7018
493.9715	674.9358
494.1344	689.0931
494.2974	715.2809
494.4603	719.9387
494.6232	713.4217
494.7861	722.0739
494.949	729.8292
495.1119	725.4025
495.2748	713.7076
495.4377	696.7722
495.6006	680.9854
495.7635	661.2184
495.9264	673.5272
496.0892	706.4576
496.2521	730.4511
496.4149	725.3018
496.5778	709.6888
496.7407	710.8362
496.9035	702.4659
497.0663	709.048
497.2291	718.8693
497.3919	718.4979
497.5547	715.813
497.7176	721.1894
497.8804	707.4167
498.0432	691.8805
498.2059	656.1179
498.3687	642.6784
498.5315	656.2181
498.6942	693.7968
498.857	715.921
499.0198	712.2698
499.1825	716.6128
499.3452	717.5833
499.508	718.6113
499.6707	730.5365
499.8334	726.645
499.9962	706.318
500.1589	692.429
500.3216	690.075
500.4843	664.6042
500.6469	666.1129
500.8096	685.2828
500.9723	701.7049
501.135	693.3155
501.2976	675.6887
501.4603	662.8699
501.623	656.5982
501.7856	663.7396
501.9482	678.3335
502.1109	695.1935
502.2735	695.6978
502.4361	699.5164
502.5987	700.6633
502.7614	695.2502
502.924	705.9229
503.0865	718.6649
503.2491	738.9573
503.4117	740.3796
503.5743	713.9717
503.7368	693.8185
503.8994	683.8163
504.062	653.1893
504.2245	652.2556
504.3871	690.1048
504.5496	733.6532
504.7121	738.5909
504.8746	728.0177
505.0372	707.2629
505.1997	710.2817
505.3622	736.0029
505.5247	736.4834
505.6872	741.393
505.8497	753.3479
506.0121	756.8678
506.1746	758.0957
506.3371	750.3044
506.4995	737.3904
506.662	717.3859
506.8244	710.4232
506.9869	723.2219
507.1493	722.9632
507.3117	716.9089
507.4742	715.5993
507.6366	722.1083
507.799	714.6831
507.9614	690.0784
508.1238	678.7974
508.2862	682.7233
508.4485	706.2348
508.6109	725.8073
508.7733	724.1984
508.9357	731.766
509.098	736.1313
509.2604	745.2782
509.4227	748.4101
509.5851	734.2679
509.7474	708.4688
509.9097	699.0051
510.072	703.5809
510.2343	716.1553
510.3966	718.7769
510.5589	710.9687
510.7212	701.1629
510.8835	699.3897
511.0458	698.0341
511.2081	719.1077
511.3703	734.4992
511.5326	734.1298
511.6949	734.7664
511.8571	738.6681
512.0193	720.0894
512.1816	709.3093
512.3438	697.3524
512.506	688.3608
512.6682	686.7549
512.8304	682.3948
512.9926	685.897
513.1548	688.2372
513.317	696.683
513.4792	701.6242
513.6414	685.3738
513.8035	668.901
513.9657	664.1943
514.1279	670.5901
514.29	671.9413
514.4521	680.6465
514.6143	679.3277
514.7764	683.6422
514.9385	684.7507
515.1006	684.048
515.2628	689.671
515.4249	678.6471
515.587	687.6125
515.7491	695.0908
515.9111	694.0384
516.0732	687.8808
516.2353	677.7505
516.3973	656.0279
516.5594	615.0074
516.7214	572.0278
516.8835	559.2808
517.0455	565.0576
517.2076	559.0511
517.3696	573.8763
517.5316	617.9787
517.6937	674.0026
517.8557	699.9748
518.0176	682.7139
518.1796	624.3647
518.3416	567.957
518.5036	565.9784
518.6656	602.2888
518.8275	654.7362
518.9895	661.5968
519.1514	649.4441
519.3134	653.5971
519.4753	651.4808
519.6373	659.2444
519.7992	672.8806
519.9611	693.0236
520.123	704.6799
520.2849	696.8309
520.4468	670.1476
520.6087	654.6384
520.7706	656.4335
520.9325	668.277
521.0944	691.3973
521.2562	715.2589
521.4181	716.5857
521.58	695.1178
521.7418	686.1476
521.9036	697.4509
522.0655	720.1567
522.2273	715.3786
522.3891	692.2899
522.551	663.6643
522.7128	654.5087
522.8746	654.3595
523.0363	680.5823
523.1981	690.5233
523.3599	680.4795
523.5217	682.165
523.6835	703.2528
523.8452	725.6148
524.007	728.5057
524.1687	723.4465
524.3304	723.6168
524.4922	724.4341
524.6539	723.7452
524.8157	711.9073
524.9774	699.8986
525.1391	709.6774
525.3008	713.6809
525.4625	706.5273
525.6241	728.3226
525.7858	742.2387
525.9475	738.0864
526.1092	717.9426
526.2709	679.3079
526.4325	643.0681
526.5942	631.5507
526.7558	623.8608
526.9174	625.6136
527.079	638.3185
527.2407	646.8959
527.4023	666.0437
527.5639	683.8199
527.7255	705.7972
527.8871	720.4675
528.0487	729.3669
528.2103	706.9663
528.3718	693.423
528.5334	713.8114
528.695	732.9751
528.8565	746.6073
529.0181	747.2583
529.1796	750.2394
529.3412	743.9865
529.5027	733.6479
529.6642	713.1531
529.8257	690.2062
529.9872	694.6307
530.1487	707.3951
530.3102	714.0277
530.4717	734.0372
530.6332	727.2655
530.7947	736.2776
530.9562	748.7018
531.1176	748.102
531.2791	739.1448
531.4405	730.7405
531.6019	730.2114
531.7634	721.7634
531.9248	724.4039
532.0862	724.3479
532.2477	707.5703
532.4091	678.112
532.5704	656.5731
532.7319	642.4206
532.8932	638.015
533.0546	662.4784
533.216	691.2388
533.3774	708.739
533.5388	712.6039
533.7001	707.006
533.8615	697.662
534.0228	675.1548
534.1841	676.923
534.3455	691.0027
534.5068	698.8832
534.6681	698.137
534.8293	688.2236
534.9907	693.1381
535.152	702.2023
535.3132	702.6823
535.4745	713.2407
535.6358	719.8941
535.7971	735.6304
535.9583	732.2502
536.1196	712.3648
536.2808	698.3665
536.4421	680.8704
536.6033	676.7048
536.7645	661.7881
536.9258	654.9862
537.087	648.1328
537.2482	653.561
537.4094	668.5452
537.5706	695.7661
537.7318	713.0209
537.8929	705.1461
538.0541	692.4778
538.2153	683.9854
538.3764	677.4908
538.5376	681.0472
538.6987	683.1729
538.8599	687.7819
539.021	675.7403
539.1821	663.667
539.3432	662.8411
539.5043	649.9899
539.6655	650.1799
539.8265	644.5447
539.9876	641.0802
540.1487	649.4398
540.3098	646.797
540.4708	618.6762
540.6319	624.2006
540.793	635.7545
540.954	647.2949
541.1151	646.1058
541.2761	648.2682
541.4371	659.7177
541.5981	663.0738
541.7592	670.7355
541.9202	668.9368
542.0812	655.1847
542.2422	651.7162
542.4031	651.4617
542.5641	657.999
542.7251	660.9243
542.886	661.6035
543.0471	656.4901
543.208	654.4815
543.369	649.6874
543.5298	644.6868
543.6908	650.3007
543.8517	668.3542
544.0126	684.5759
544.1736	690.9516
544.3345	681.6193
544.4954	658.9718
544.6563	650.944
544.8171	642.6484
544.978	664.9231
545.1389	687.0247
545.2997	681.5703
545.4606	655.9958
545.6215	643.205
545.7823	667.4429
545.9432	675.2538
546.104	666.7202
546.2648	662.7593
546.4256	649.1693
546.5864	653.0583
546.7473	675.4374
546.908	677.328
547.0688	672.4507
547.2296	659.9811
547.3904	656.5807
547.5511	648.6025
547.7119	641.252
547.8727	638.8326
548.0334	644.3372
548.1942	649.5554
548.3549	655.4178
548.5156	661.2166
548.6763	667.194
548.837	665.5681
548.9977	662.3873
549.1584	664.2255
549.3192	667.1943
549.4798	660.3898
549.6405	657.0104
549.8011	657.2397
549.9619	664.5876
550.1225	664.0093
550.2831	664.6053
550.4438	652.4764
550.6044	656.389
550.765	666.7985
550.9257	664.5923
551.0863	652.2101
551.2469	649.0223
551.4075	660.2233
551.5681	663.7006
551.7287	660.8351
551.8893	678.4692
552.0498	684.7818
552.2104	671.8139
552.371	664.9481
552.5315	657.4207
552.6921	643.1998
552.8526	636.2509
553.0131	635.1036
553.1736	644.9066
553.3342	649.7736
553.4947	653.9462
553.6552	667.8414
553.8157	662.8842
553.9762	654.351
554.1367	668.4762
554.2971	659.8442
554.4576	652.7392
554.618	664.6273
554.7785	660.5629
554.939	662.5129
555.0994	666.0527
555.2598	648.3487
555.4203	642.6597
555.5807	643.8985
555.7411	643.9863
555.9015	644.183
556.0619	641.3177
556.2223	634.2416
556.3827	625.0805
556.5431	627.9641
556.7034	629.8391
556.8638	626.0529
557.0242	616.7256
557.1845	626.4166
557.3448	616.7149
557.5052	613.529
557.6655	620.7955
557.8259	636.2917
557.9861	631.6472
558.1465	637.3575
558.3068	631.9348
558.467	613.626
558.6274	604.8154
558.7877	596.5477
558.9479	585.8381
559.1082	589.6171
559.2684	589.7781
559.4287	601.1838
559.5889	609.6352
559.7491	609.6725
559.9094	602.6702
560.0696	594.8227
560.2299	580.1121
560.3901	601.0456
560.5502	612.6008
560.7104	615.6962
560.8707	631.9319
561.0308	636.7791
561.191	631.8836
561.3511	611.1169
561.5114	602.0233
561.6714	582.2344
561.8316	591.6567
561.9918	605.1837
562.1519	608.8851
562.312	602.3675
562.4722	596.5322
562.6323	584.5161
562.7924	599.8318
562.9525	609.8289
563.1125	623.4334
563.2726	614.3657
563.4327	609.05
563.5928	595.9324
563.7528	578.3076
563.9129	585.428
564.0729	589.8828
564.233	587.8793
564.393	599.499
564.553	603.8035
564.7131	607.0455
564.873	598.9313
565.0331	606.2529
565.1931	595.5102
565.353	581.642
565.5131	583.5089
565.673	573.4285
565.833	570.0339
565.9929	567.6651
566.1529	563.443
566.3129	574.1709
566.4728	582.0203
566.6328	587.4445
566.7927	583.4925
566.9526	582.404
567.1125	591.1259
567.2724	605.0479
567.4323	603.7272
567.5922	603.3203
567.7521	599.6365
567.9119	587.723
568.0718	575.16
568.2317	579.7498
568.3915	569.205
568.5514	559.8253
568.7112	568.0294
568.871	572.8232
569.0309	577.2169
569.1907	583.5726
569.3505	580.5057
569.5103	586.2792
569.6701	580.5742
569.8299	576.1541
569.9897	574.0875
570.1495	571.9728
570.3092	570.9026
570.469	572.2368
570.6287	565.2929
570.7885	550.0574
570.9482	541.0873
571.108	543.5809
571.2677	547.0474
571.4274	561.1113
571.5871	571.6989
571.7468	571.7369
571.9066	570.195
572.0662	581.4049
572.2259	586.7113
572.3856	583.8578
572.5452	586.197
572.7049	582.1814
572.8646	575.8613
573.0242	582.078
573.1838	588.1283
573.3435	576.6924
573.5031	578.0863
573.6627	582.9774
573.8223	584.0618
573.9819	571.1779
574.1415	569.3718
574.3011	575.6375
574.4607	574.5105
574.6203	574.0502
574.7798	564.1537
574.9394	568.5774
575.099	565.0314
575.2585	543.9914
575.418	551.3088
575.5776	557.745
575.7371	559.2078
575.8966	566.4008
576.0562	563.931
576.2156	552.5767
576.3751	555.2344
576.5346	554.6647
576.6941	559.8532
576.8536	568.5504
577.0131	565.8308
577.1725	568.4749
577.332	564.2079
577.4914	567.5735
577.6508	562.2592
577.8103	556.6089
577.9697	548.4908
578.1291	545.7314
578.2885	541.274
578.4479	536.0215
578.6073	541.9855
578.7667	541.5203
578.9261	532.689
579.0854	547.1456
579.2448	551.6718
579.4042	547.5944
579.5635	539.2228
579.7229	544.2437
579.8822	551.6985
580.0416	543.6679
580.2009	538.5869
580.3602	531.7921
580.5195	544.8328
580.6788	536.9255
580.8381	542.397
580.9974	549.656
581.1566	537.6569
581.3159	538.7896
581.4752	536.2588
581.6345	535.2797
581.7937	542.2963
581.9529	539.3674
582.1122	542.0778
582.2714	550.09
582.4306	542.8481
582.5898	541.1978
582.749	540.3342
582.9082	547.2362
583.0674	544.1559
583.2266	531.009
583.3857	540.6683
583.5449	533.2325
583.7041	535.9211
583.8633	531.2748
584.0224	528.6027
584.1815	529.2906
584.3407	528.4581
584.4998	525.9216
584.6589	526.7864
584.818	524.7302
584.9771	521.2524
585.1362	516.2026
585.2953	509.2855
585.4544	513.3938
585.6135	515.149
585.7725	508.8281
585.9316	505.5313
586.0906	504.3021
586.2497	512.2108
586.4087	512.9158
586.5677	511.1864
586.7267	512.1465
586.8858	505.1379
587.0448	515.2031
587.2038	518.2997
587.3628	517.9802
587.5218	516.8272
587.6807	512.5679
587.8397	501.9825
587.9987	486.1588
588.1577	489.9414
588.3166	485.7053
588.4755	480.1486
588.6345	480.574
588.7934	472.3658
588.9523	461.2346
589.1112	444.6112
589.2701	441.4275
589.429	443.8467
589.5879	440.5485
589.7468	439.7935
589.9056	447.4341
590.0645	459.6032
590.2234	466.2795
590.3822	480.1256
590.5411	485.7254
590.6999	482.9875
590.8588	483.5427
591.0176	485.481
591.1764	482.3625
591.3352	486.1467
591.494	480.157
591.6528	462.1415
591.8116	473.9955
591.9703	474.2384
592.1291	463.5761
592.2878	484.0249
592.4467	474.3786
592.6053	468.7663
592.7641	474.4556
592.9229	478.7957
593.0816	466.9148
593.2403	467.5569
593.399	470.3189
593.5577	483.9202
593.7164	480.1136
593.8751	474.4625
594.0338	471.8273
594.1924	471.6305
594.3511	463.0717
594.5098	471.0555
594.6684	465.5873
594.8271	463.9689
594.9857	465.6854
595.1443	466.4856
595.303	473.3475
595.4615	476.4721
595.6202	471.1516
595.7787	469.4968
595.9374	462.5638
596.0959	483.2098
596.2545	480.4563
596.4131	474.8493
596.5717	472.8332
596.7302	469.0126
596.8887	472.1557
597.0473	476.7145
597.2058	474.4071
597.3644	465.8553
597.5229	470.2874
597.6814	472.1967
597.8399	476.3738
597.9984	473.817
598.1569	461.9731
598.3154	463.4572
598.4738	468.9371
598.6323	459.4166
598.7908	454.3419
598.9492	462.6564
599.1076	469.8524
599.2661	465.3215
599.4245	465.8992
599.5829	472.9436
599.7413	458.0663
599.8997	456.363
600.0581	461.6222
600.2165	466.9673
600.3749	466.8344
600.5333	461.9216
600.6917	472.2018
600.85	459.1592
601.0084	451.7269
601.1667	456.1634
601.325	461.3977
601.4833	456.1627
601.6417	460.6995
601.8	458.5367
601.9583	449.6232
602.1166	444.6032
602.2749	450.3032
602.4332	449.6991
602.5914	453.2815
602.7498	462.203
602.908	457.2655
603.0662	462.1285
603.2245	464.2633
603.3828	476.4822
603.541	466.4894
603.6992	459.3878
603.8574	458.6118
604.0156	465.478
604.1738	459.2938
604.332	455.3617
604.4902	454.768
604.6484	462.0296
604.8065	461.2946
604.9647	461.476
605.1229	453.1544
605.281	452.7988
605.4391	450.5371
605.5973	461.9074
605.7554	455.0926
605.9135	451.0503
606.0717	444.0977
606.2297	457.148
606.3878	455.525
606.5459	443.8466
606.704	443.1765
606.8621	457.1509
607.0201	464.9037
607.1782	457.0042
607.3362	454.4787
607.4943	464.508
607.6523	456.0747
607.8104	455.7321
607.9684	456.3783
608.1264	449.0685
608.2844	448.6828
608.4424	443.6229
608.6003	435.195
608.7584	441.1526
608.9163	440.0125
609.0743	438.523
609.2322	433.0539
609.3902	436.3478
609.5482	450.464
609.7061	439.5103
609.864	436.3941
610.0219	432.4658
610.1798	432.8759
610.3377	427.8426
610.4956	430.8987
610.6535	428.5866
610.8114	428.1548
610.9693	441.5339
611.1271	444.3789
611.285	438.1465
611.4429	439.2712
611.6007	439.9431
611.7585	434.0848
611.9164	430.6201
612.0742	422.5784
612.232	421.9905
612.3898	426.4315
612.5476	418.2643
612.7054	413.6095
612.8632	416.4816
613.0209	433.6995
613.1787	426.9915
613.3365	416.9333
613.4942	426.3585
613.652	409.2584
613.8097	402.8265
613.9674	414.8687
614.1252	415.3114
614.2829	413.9845
614.4406	413.1915
614.5983	421.4542
614.756	426.7559
614.9136	417.5268
615.0714	410.4999
615.229	418.7495
615.3867	421.499
615.5443	414.2318
615.702	400.878
615.8596	403.3785
616.0172	406.3426
616.1748	399.5586
616.3325	395.604
616.4901	389.6808
616.6476	392.9485
616.8052	395.5875
616.9628	391.4436
617.1204	393.0397
617.278	401.9541
617.4355	403.6688
617.5931	412.0316
617.7506	407.274
617.9081	400.8889
618.0657	400.2755
618.2232	397.4839
618.3807	411.2508
618.5382	420.1389
618.6957	413.8134
618.8532	408.3731
619.0107	404.5948
619.1682	399.8353
619.3256	395.1164
619.4831	398.049
619.6406	400.5508
619.798	406.2659
619.9554	413.2554
620.1129	417.9115
620.2703	410.3508
620.4277	408.5632
620.5851	407.6432
620.7425	403.9282
620.8998	397.3242
621.0573	395.1785
621.2146	401.1748
621.372	397.095
621.5294	390.1819
621.6867	396.134
621.8441	387.1574
622.0013	394.688
622.1587	397.3128
622.316	395.0573
622.4733	395.0352
622.6306	396.4
622.7879	392.3493
622.9452	381.6058
623.1025	376.3353
623.2598	384.519
623.4171	385.1893
623.5743	389.3033
623.7316	396.2013
623.8888	392.5907
624.046	384.6368
624.2032	385.8406
624.3605	388.6877
624.5176	384.0436
624.6749	376.076
624.8321	373.1209
624.9893	377.9954
625.1464	386.6995
625.3036	381.9591
625.4608	374.0539
625.6179	372.0174
625.7751	379.266
625.9322	380.7126
626.0894	385.8255
626.2465	389.4662
626.4036	389.8664
626.5607	388.279
626.7178	387.6046
626.8749	387.1973
627.032	383.9567
627.189	386.1958
627.3461	384.1482
627.5032	383.6173
627.6602	372.4651
627.8173	361.1459
627.9743	357.2018
628.1313	363.564
628.2884	365.8192
628.4454	364.282
628.6024	373.9124
628.7594	377.6941
628.9164	372.4727
629.0734	375.2294
629.2303	371.725
629.3873	371.5313
629.5443	368.2949
629.7012	363.8991
629.8582	366.7789
630.0151	364.5499
630.172	358.8398
630.3289	365.7438
630.4858	371.3778
630.6428	369.9909
630.7996	358.5507
630.9565	361.6745
631.1134	366.278
631.2703	364.5157
631.4272	368.026
631.584	360.7059
631.7408	354.6342
631.8977	361.4891
632.0546	364.3749
632.2114	363.6751
632.3682	371.0988
632.525	374.1028
632.6818	374.0579
632.8386	364.4165
632.9954	368.1447
633.1522	371.5331
633.3089	366.7067
633.4657	364.8169
633.6224	365.4572
633.7792	362.3321
633.9359	361.0014
634.0927	357.2936
634.2494	356.6339
634.4061	363.4405
634.5628	362.5338
634.7195	360.8712
634.8762	369.689
635.0329	368.3344
635.1895	369.851
635.3462	365.5439
635.5029	363.6818
635.6595	368.9721
635.8162	360.7506
635.9728	363.0131
636.1295	364.9118
636.2861	352.0803
636.4427	353.0049
636.5992	363.7515
636.7559	355.0132
636.9124	358.3905
637.069	359.7498
637.2256	361.2502
637.3821	357.6181
637.5387	359.9334
637.6953	360.7116
637.8518	357.322
638.0084	359.2393
638.1649	370.1281
638.3214	364.5762
638.4779	354.4809
638.6344	360.0137
638.7909	351.2286
638.9474	350.619
639.1038	352.1848
639.2603	347.2462
639.4167	353.4828
639.5732	342.8483
639.7297	347.696
639.8861	348.1861
640.0425	334.3146
640.199	335.999
640.3553	350.8883
640.5118	359.6469
640.6682	353.1153
640.8245	343.906
640.981	340.335
641.1373	344.0178
641.2936	346.2994
641.45	346.8417
641.6064	338.6116
641.7627	336.2376
641.9191	339.7274
642.0754	333.2731
642.2317	337.1494
642.388	342.3571
642.5443	339.2922
642.7006	337.8209
642.8569	347.002
643.0131	339.105
643.1694	334.1232
643.3257	335.5167
643.4819	340.149
643.6382	340.1494
643.7944	331.3305
643.9506	336.1416
644.1069	339.6464
644.2631	338.2755
644.4193	336.0108
644.5754	338.2239
644.7316	332.0831
644.8878	334.7764
645.044	329.8708
645.2002	323.3281
645.3563	323.7769
645.5125	331.2338
645.6686	325.2501
645.8248	317.0735
645.9809	314.041
646.137	329.0997
646.2931	324.0358
646.4492	315.9589
646.6053	318.4096
646.7614	324.0808
646.9174	332.2792
647.0735	317.6897
647.2296	311.7961
647.3856	305.8777
647.5417	305.8406
647.6977	318.4124
647.8537	313.5425
648.0098	309.1324
648.1658	313.4317
648.3218	307.0918
648.4777	311.4476
648.6337	320.5396
648.7897	319.8193
648.9457	318.4185
649.1016	311.5125
649.2576	300.0624
649.4135	291.7992
649.5695	288.4771
649.7254	292.6385
649.8813	299.1678
650.0372	307.7297
650.1932	313.4008
650.3491	313.8549
650.5049	312.8558
650.6608	323.3217
650.8167	324.67
650.9725	317.3584
651.1284	319.0398
651.2842	316.9597
651.4401	303.003
651.5959	296.6607
651.7518	304.7745
651.9076	303.6593
652.0634	302.3878
652.2192	298.0805
652.3749	304.1044
652.5308	314.1766
652.6865	318.4804
652.8423	308.6876
652.998	305.2274
653.1538	306.6502
653.3096	302.3066
653.4653	308.1196
653.621	303.33
653.7767	311.7466
653.9324	313.9706
654.0881	316.7173
654.2438	311.6351
654.3995	309.2074
654.5552	301.4224
654.7109	304.9087
654.8665	302.071
655.0222	293.1509
655.1778	293.1154
655.3334	298.6783
655.4891	291.4324
655.6447	286.3199
655.8003	281.7215
655.9559	265.9552
656.1115	247.9151
656.2671	231.532
656.4227	235.9884
656.5782	251.5522
656.7338	264.7697
656.8893	280.4513
657.0449	280.6482
657.2004	285.5585
657.356	282.821
657.5115	284.4904
657.667	287.4139
657.8225	297.7257
657.978	295.135
658.1335	295.4495
658.289	293.6375
658.4445	296.504
658.5999	300.5135
658.7554	299.7675
658.9108	301.1786
659.0663	294.4292
659.2217	299.5107
659.3771	288.2648
659.5325	290.8768
659.6879	298.6945
659.8433	290.9958
659.9987	293.942
660.1541	299.4527
660.3095	295.8763
660.4648	299.5332
660.6202	296.4008
660.7756	292.4676
660.9309	302.8344
661.0862	305.8587
661.2416	297.2819
661.3969	292.5963
661.5522	294.933
661.7075	295.6826
661.8628	298.3238
662.0181	294.8852
662.1733	297.8539
662.3286	300.9342
662.4839	298.4149
662.6391	300.5161
662.7944	296.5588
662.9496	295.5642
663.1048	296.9388
663.26	288.8739
663.4152	282.0348
663.5704	287.2504
663.7256	291.328
663.8808	294.7026
664.036	291.6557
664.1912	294.5768
664.3463	295.5736
664.5015	301.3389
664.6566	287.814
664.8118	293.7701
664.9669	297.2477
665.122	293.3088
665.2771	291.949
665.4322	293.8793
665.5873	295.2217
665.7424	297.0276
665.8975	295.5584
666.0526	294.0241
666.2076	288.5428
666.3627	291.1573
666.5177	291.4479
666.6727	286.3728
666.8278	285.4228
666.9828	286.7784
667.1378	286.0821
667.2928	291.2281
667.4478	287.3789
667.6028	283.2829
667.7578	284.9108
667.9127	285.944
668.0677	286.2537
668.2226	287.1927
668.3776	290.4523
668.5325	289.5083
668.6874	290.6282
668.8423	293.9946
668.9973	287.5194
669.1522	290.2021
669.3071	284.6363
669.4619	288.3061
669.6168	288.9774
669.7717	286.6736
669.9265	278.3697
670.0814	286.0948
670.2362	288.3267
670.3911	284.2941
670.5459	276.5198
670.7007	278.3698
670.8555	284.4088
671.0103	273.5033
671.1651	277.0486
671.3199	270.6447
671.4747	276.2786
671.6295	279.8382
671.7842	284.4215
671.939	283.4201
672.0937	272.7598
672.2484	273.1314
672.4031	272.9577
672.5579	278.1973
672.7126	278.9351
672.8673	275.4131
673.022	276.0911
673.1767	279.8533
673.3314	275.7592
673.486	277.517
673.6407	278.7231
673.7953	272.2328
673.95	273.483
674.1046	275.3257
674.2592	273.2863
674.4138	271.0398
674.5684	269.8554
674.723	270.0924
674.8776	269.1499
675.0322	259.9978
675.1868	261.045
675.3414	269.7695
675.4959	265.1134
675.6505	271.7928
675.805	273.5374
675.9595	269.0148
676.1141	266.2551
676.2686	263.2041
676.4231	258.7284
676.5776	261.541
676.7321	266.5648
676.8866	270.2283
677.041	268.6786
677.1955	266.0063
677.35	259.4896
677.5044	260.4193
677.6589	263.5385
677.8133	255.7726
677.9677	258.2235
678.1221	260.6622
678.2766	259.2663
678.4309	254.5519
678.5853	247.5171
678.7397	259.8557
678.8941	259.4091
679.0485	259.4188
679.2028	256.8511
679.3571	251.885
679.5115	254.1282
679.6658	254.1273
679.8201	251.7499
679.9744	254.2155
680.1288	249.3721
680.2831	248.1504
680.4373	246.4588
680.5916	250.0727
680.7459	249.0181
680.9001	251.2684
681.0544	249.1362
681.2087	246.7527
681.3629	244.1397
681.5171	239.9957
681.6713	249.9279
681.8256	242.6276
681.9797	247.4517
682.134	241.7552
682.2881	241.9693
682.4423	244.1553
682.5965	239.7153
682.7507	245.1145
682.9048	242.9238
683.059	240.5513
683.2131	241.2988
683.3672	243.8167
683.5213	241.784
683.6754	239.714
683.8295	240.8029
683.9836	238.2795
684.1377	232.7794
684.2918	228.1467
684.4459	231.1764
684.5999	240.4885
684.754	235.3525
684.908	235.4717
685.062	235.5681
685.2161	226.4461
685.3701	229.8531
685.5241	231.4524
685.6781	227.2667
685.8321	224.4587
685.9861	224.4533
686.14	226.8332
686.294	225.8931
686.4479	226.0406
686.6019	217.2425
686.7559	198.3232
686.9098	183.033
687.0637	171.2122
687.2176	171.0978
687.3715	176.6753
687.5254	182.5311
687.6793	187.4135
687.8332	192.2835
687.9871	188.9281
688.1409	204.197
688.2947	209.8873
688.4486	207.1781
688.6024	204.5852
688.7563	206.3352
688.9101	201.3544
689.0639	195.9948
689.2177	197.4223
689.3715	197.8554
689.5253	195.2721
689.6791	196.1936
689.8328	196.4933
689.9866	199.9161
690.1403	202.5354
690.2941	201.528
690.4478	202.1452
690.6015	199.8053
690.7552	203.9008
690.9089	206.7284
691.0626	200.532
691.2164	200.2665
691.37	199.1263
691.5237	204.689
691.6774	206.8751
691.831	208.3316
691.9847	204.6479
692.1383	208.0223
692.2919	207.4567
692.4456	205.6183
692.5992	200.6223
692.7527	205.7513
692.9064	198.4319
693.0599	200.1895
693.2136	201.9798
693.3671	200.8793
693.5207	202.8651
693.6742	202.073
693.8278	199.9819
693.9813	196.313
694.1348	193.6236
694.2883	198.4089
694.4418	195.9135
694.5953	200.3541
694.7488	199.3218
694.9023	194.5994
695.0558	199.7807
695.2093	196.0918
695.3627	195.741
695.5162	201.2111
695.6696	198.945
695.8231	187.853
695.9764	194.6443
696.1299	198.0556
696.2833	195.2191
696.4367	200.8233
696.5901	200.8871
696.7435	204.2953
696.8968	209.5072
697.0502	199.9618
697.2036	204.4472
697.3569	209.3246
697.5102	203.1442
697.6635	201.0872
697.8168	197.8811
697.9702	192.8569
698.1235	194.8709
698.2768	194.5902
698.4301	204.1038
698.5833	198.6709
698.7366	198.2976
698.8898	188.2801
699.0431	193.2749
699.1964	197.4836
699.3495	194.0587
699.5028	193.4959
699.656	193.5117
699.8092	193.7982
699.9624	198.5859
700.1156	201.1349
700.2688	195.6411
700.4219	192.4693
700.5751	189.3976
700.7283	189.2595
700.8814	191.1307
701.0345	194.0253
701.1877	194.6991
701.3408	189.9138
701.4939	185.6972
701.647	187.5835
701.8001	184.6733
701.9532	192.2592
702.1063	188.1265
702.2593	182.1944
702.4124	187.1159
702.5654	189.4239
702.7184	185.6965
702.8715	190.3872
703.0245	188.7735
703.1776	188.5008
703.3305	188.7381
703.4835	193.9553
703.6365	188.9072
703.7895	186.0981
703.9424	189.5372
704.0954	188.0244
704.2484	195.517
704.4013	195.6751
704.5543	198.9172
704.7072	192.5515
704.8601	192.1728
705.013	192.5778
705.1659	188.5232
705.3188	192.667
705.4717	191.2991
705.6246	191.9471
705.7774	188.033
705.9303	196.4529
706.0831	190.0934
706.236	192.8535
706.3888	196.4588
706.5416	196.732
706.6944	191.9283
706.8472	186.4933
707	187.4457
707.1528	192.5976
707.3056	191.9599
707.4583	197.4753
707.6111	196.3726
707.7639	194.9942
707.9166	194.6532
708.0693	187.9313
708.222	190.3856
708.3748	187.3818
708.5275	195.7939
708.6802	193.0635
708.8328	188.1809
708.9855	191.2799
709.1382	185.7231
709.2909	185.9266
709.4435	196.9977
709.5962	185.9896
709.7488	177.4997
709.9014	182.4718
710.054	185.2346
710.2067	183.647
710.3593	184.5583
710.5118	190.367
710.6644	193.564
710.817	194.6952
710.9695	191.8686
711.1221	187.9147
711.2747	189.1141
711.4272	184.5621
711.5797	187.4466
711.7322	187.9322
711.8848	182.9833
712.0373	183.0128
712.1898	181.5285
712.3422	188.7927
712.4948	183.6338
712.6472	184.1343
712.7996	184.0662
712.9521	179.5833
713.1046	181.734
713.257	182.8442
713.4094	176.6154
713.5618	181.5747
713.7142	175.277
713.8666	179.6275
714.019	183.9982
714.1714	182.1122
714.3237	185.708
714.4761	187.6772
714.6285	181.8885
714.7808	179.9033
714.9331	177.2581
715.0854	173.1729
715.2378	175.8562
715.3901	175.1384
715.5424	175.1415
715.6947	173.8419
715.8469	176.6575
715.9992	169.448
716.1515	177.4904
716.3037	170.0306
716.456	167.5093
716.6082	168.444
716.7604	158.5644
716.9127	161.0258
717.0649	151.2624
717.2171	144.9435
717.3693	148.3408
717.5214	155.8031
717.6736	153.0329
717.8258	154.0993
717.978	146.5892
718.1301	148.1893
718.2822	146.3142
718.4344	144.504
718.5865	145.0107
718.7386	144.4728
718.8907	142.8253
719.0428	147.5852
719.1949	144.2355
719.3469	143.5706
719.499	144.3628
719.6511	145.7363
719.8031	141.0288
719.9551	143.5667
720.1072	147.0589
720.2592	138.5878
720.4112	138.5859
720.5632	138.8664
720.7152	142.9913
720.8672	149.5341
721.0192	152.7328
721.1711	154.3961
721.3231	162.606
721.475	160.6593
721.627	158.2359
721.7789	155.7187
721.9308	162.496
722.0828	161.6828
722.2347	166.0387
722.3866	167.6906
722.5385	158.4336
722.6903	155.8548
722.8422	158.0102
722.9941	161.0015
723.1459	150.3082
723.2977	146.074
723.4496	148.1137
723.6014	139.3605
723.7532	150.7239
723.905	151.7636
724.0568	143.9694
724.2086	146.2726
724.3604	140.7052
724.5121	139.533
724.6639	144.3275
724.8157	149.8701
724.9674	147.6234
725.1191	147.5826
725.2709	142.1629
725.4226	139.0458
725.5743	141.6461
725.726	145.857
725.8777	145.29
726.0294	147.0252
726.181	141.6587
726.3327	140.1946
726.4844	144.7148
726.636	147.1642
726.7877	154.3781
726.9393	152.5752
727.0909	150.1582
727.2425	144.8934
727.3941	144.5807
727.5457	133.4222
727.6973	136.1846
727.8488	139.9012
728.0004	139.5325
728.1519	146.9587
728.3035	144.0734
728.455	144.0652
728.6066	145.7296
728.7581	146.1712
728.9095	136.2684
729.0611	139.0528
729.2126	137.7945
729.364	136.9012
729.5155	144.7308
729.667	143.7299
729.8184	155.0199
729.9698	156.6325
730.1213	155.0789
730.2727	142.7329
730.4241	142.1244
730.5756	142.7234
730.7269	148.1436
730.8784	143.3439
731.0297	148.2213
731.1811	145.4519
731.3325	141.6737
731.4838	146.5873
731.6351	145.1103
731.7865	143.3844
731.9378	146.7709
732.0891	148.8378
732.2404	149.969
732.3917	152.2782
732.543	148.0014
732.6943	148.4875
732.8456	143.753
732.9968	145.742
733.1481	146.7609
733.2993	146.6902
733.4506	148.9514
733.6018	152.607
733.753	156.3679
733.9042	155.1668
734.0554	154.4172
734.2066	157.8688
734.3578	150.8944
734.509	152.5198
734.6602	151.6239
734.8113	144.8059
734.9624	146.4355
735.1136	150.0792
735.2647	154.9781
735.4158	154.3581
735.5669	155.1622
735.718	156.7736
735.8691	149.3175
736.0201	145.5843
736.1713	151.3225
736.3223	152.8357
736.4733	153.0875
736.6244	151.2331
736.7755	156.9151
736.9265	151.3936
737.0775	154.0707
737.2285	154.4099
737.3795	151.7239
737.5305	148.5031
737.6815	154.9999
737.8324	150.023
737.9834	150.2287
738.1343	147.3748
738.2853	150.7211
738.4362	150.7756
738.5871	147.8774
738.738	143.1568
738.8889	142.6483
739.0399	141.846
739.1907	145.7933
739.3416	145.1756
739.4925	141.5245
739.6433	145.6006
739.7942	144.8703
739.945	144.2266
740.0958	145.3712
740.2467	142.6138
740.3975	147.7854
740.5483	149.9112
740.6991	148.3296
740.8499	152.0094
741.0007	144.0437
741.1514	138.5694
741.3022	142.3582
741.4529	143.2349
741.6036	136.7307
741.7544	138.5137
741.9051	142.6721
742.0558	140.3023
742.2065	141.4194
742.3572	136.3766
742.5079	144.9237
742.6586	145.7423
742.8093	144.8332
742.9599	143.0516
743.1105	142.1923
743.2612	144.5779
743.4118	143.6049
743.5624	140.9245
743.7131	143.1703
743.8636	144.518
744.0142	143.3271
744.1648	138.5959
744.3154	142.4829
744.4659	137.672
744.6165	138.1781
744.767	136.5276
744.9176	138.6324
745.0681	135.8218
745.2186	132.6141
745.3691	140.2281
745.5197	139.2942
745.6702	136.2487
745.8206	138.0858
745.9711	140.816
746.1215	144.8664
746.272	145.1107
746.4224	139.2352
746.5729	138.413
746.7233	138.1007
746.8737	143.606
747.0241	142.0302
747.1745	135.9258
747.3249	135.9016
747.4753	132.6313
747.6257	136.7066
747.776	140.8873
747.9264	141.1118
748.0767	143.9721
748.2271	135.176
748.3774	137.328
748.5276	135.5345
748.678	134.0859
748.8282	128.1418
748.9786	133.8483
749.1288	132.4719
749.2791	133.0237
749.4294	135.1425
749.5796	131.1799
749.7299	133.5594
749.8801	128.803
750.0303	132.2527
750.1805	134.2504
750.3307	135.1622
750.4809	129.5675
750.6311	131.4475
750.7813	130.4639
750.9314	129.9778
751.0816	129.8613
751.2318	130.3309
751.3818	128.341
751.532	129.8299
751.6821	129.8386
751.8322	123
751.9823	127.301
752.1324	129.2648
752.2825	129.8365
752.4326	124.6128
752.5826	130.608
752.7327	129.8123
752.8827	129.9128
753.0327	126.1813
753.1827	120.6784
753.3328	120.1083
753.4828	125.1788
753.6328	125.534
753.7828	131.2721
753.9327	126.2237
754.0827	119.9905
754.2327	125.3449
754.3826	128.7433
754.5325	125.5129
754.6825	130.2435
754.8324	125.9501
754.9823	127.2027
755.1322	125.9882
755.2821	125.7065
755.432	119.9744
755.5818	117.1656
755.7318	125.0576
755.8816	125.1964
756.0314	120.0607
756.1813	123.9737
756.3311	124.7077
756.4809	125.6193
756.6307	126.7495
756.7805	120.3372
756.9303	120.7469
757.0801	118.075
757.2299	120.1161
757.3796	118.1035
757.5294	120.6193
757.6791	123.173
757.8289	111.4452
757.9786	118.3297
758.1283	118.0892
758.278	122.5551
758.4277	116.9744
758.5773	115.0022
758.7271	114.8189
758.8767	114.5867
759.0264	114.0134
759.176	113.5031
759.3256	101.7937
759.4753	86.31593
759.6249	73.47356
759.7745	66.20754
759.9241	61.51759
760.0737	58.63881
760.2233	53.14087
760.3729	47.52874
760.5224	49.35711
760.6719	46.4634
760.8215	51.12777
760.971	51.18939
761.1205	56.49477
761.2701	63.87123
761.4196	61.79848
761.5691	67.93693
761.7186	83.45869
761.868	86.05633
762.0175	91.56851
762.167	82.92712
762.3164	81.16525
762.4659	74.61035
762.6153	71.88558
762.7647	66.22049
762.9141	69.23621
763.0635	70.90904
763.2129	67.52724
763.3623	66.23106
763.5117	67.6197
763.661	73.12323
763.8104	71.73186
763.9597	71.86987
764.1091	74.03152
764.2584	74.15886
764.4077	74.90322
764.557	76.58956
764.7063	82.59645
764.8556	83.4199
765.0049	76.44038
765.1541	77.12849
765.3034	86.65478
765.4526	83.3963
765.6019	80.19894
765.7511	88.90973
765.9003	92.09541
766.0496	91.21218
766.1987	93.55255
766.348	90.2966
766.4971	92.04813
766.6463	93.05759
766.7955	95.83866
766.9446	93.77427
767.0938	99.66156
767.2429	92.63039
767.392	95.62424
767.5411	96.847
767.6902	102.0212
767.8394	96.42391
767.9884	95.93533
768.1375	101.0762
768.2866	94.12698
768.4356	99.53678
768.5847	100.8018
768.7337	97.02448
768.8828	98.82527
769.0317	100.4187
769.1808	96.1657
769.3298	103.8282
769.4788	102.5418
769.6277	100.1818
769.7767	99.03142
769.9257	98.74689
770.0746	100.1394
770.2236	96.42503
770.3725	101.1257
770.5214	101.9558
770.6703	100.4326
770.8193	96.23965
770.9681	95.12778
771.1171	97.51726
771.2659	97.34982
771.4148	97.69279
771.5637	98.66376
771.7125	98.94658
771.8613	98.80343
772.0101	98.51698
772.159	99.07737
772.3078	93.65348
772.4566	96.24016
772.6054	99.59785
772.7542	97.64874
772.903	92.12133
773.0517	94.76599
773.2004	96.58828
773.3492	94.17703
773.4979	95.62431
773.6467	94.37788
773.7953	98.68009
773.944	92.47558
774.0928	92.29561
774.2415	94.7678
774.3901	97.04478
774.5388	94.24361
774.6874	94.96599
774.8361	95.97131
774.9847	94.44833
775.1334	92.31168
775.282	92.10805
775.4305	89.30539
775.5792	88.92616
775.7277	91.30096
775.8763	94.75529
776.0249	95.25835
776.1735	99.70058
776.322	93.26647
776.4705	87.99495
776.6191	91.35024
776.7676	95.82883
776.9161	90.50868
777.0646	92.43235
777.2131	95.39035
777.3616	91.29041
777.5101	88.35415
777.6585	90.80917
777.8069	95.42543
777.9554	90.85078
778.1038	88.61458
778.2523	93.25468
778.4007	96.16099
778.5491	90.51297
778.6974	87.99284
778.8459	90.27103
778.9942	91.68204
779.1426	89.49317
779.291	86.39947
779.4393	89.86958
779.5876	91.15932
779.736	89.53662
779.8843	90.25462
780.0326	89.65063
780.1809	93.62386
780.3292	95.93407
780.4775	92.50584
780.6257	87.75858
780.774	87.244
780.9222	88.52749
781.0704	83.48134
781.2187	88.09465
781.3669	84.70262
781.5151	84.94657
781.6633	83.22033
781.8115	88.02319
781.9597	84.46162
782.1078	83.05006
782.256	84.05506
782.4042	87.59131
782.5523	90.18752
782.7004	85.86061
782.8486	87.24417
782.9967	85.82835
783.1448	86.94727
783.2929	84.22846
783.441	81.51971
783.5891	83.48291
783.7371	82.8617
783.8851	78.97144
784.0332	78.80411
784.1812	84.20023
784.3293	87.11088
784.4773	82.44871
784.6253	87.66129
784.7733	88.71391
784.9213	88.53209
785.0692	86.02174
785.2172	84.96645
785.3652	83.63445
785.5131	89.1664
785.6611	86.13984
785.809	85.53733
785.9569	80.12981
786.1048	82.60212
786.2527	74.99603
786.4006	80.74663
786.5485	81.39573
786.6964	87.99178
786.8442	86.69498
786.9921	83.42391
787.1399	85.34169
787.2877	85.12759
787.4355	77.13712
787.5833	77.54449
787.7311	77.13073
787.8789	79.71494
788.0267	80.73157
788.1745	81.88868
788.3223	77.52774
788.47	81.22763
788.6177	82.72752
788.7654	78.43072
788.9132	80.33664
789.0609	79.58434
789.2086	78.387
789.3563	85.18854
789.504	80.30116
789.6517	78.27176
789.7993	76.56503
789.947	78.26193
790.0946	77.07188
790.2422	78.93256
790.3898	81.80161
790.5375	81.92921
790.6851	79.01999
790.8326	78.26123
790.9802	81.10679
791.1278	78.8329
791.2754	78.41666
791.423	76.8563
791.5705	81.66193
791.718	83.00182
791.8655	76.01205
792.0131	84.3215
792.1606	78.521
792.308	73.40408
792.4556	72.66376
792.603	72.02483
792.7505	73.01101
792.8979	78.07809
793.0454	78.25727
793.1928	74.88874
793.3403	76.53327
793.4877	78.06889
793.6351	72.14844
793.7825	74.94682
793.9299	78.35512
794.0772	80.44674
794.2246	76.64004
794.3719	73.51766
794.5193	75.17033
794.6666	72.61612
794.814	71.89018
794.9613	71.56614
795.1086	72.58607
795.2559	73.37441
795.4032	70.89903
795.5505	75.20013
795.6978	76.34383
795.845	74.66831
795.9922	71.39859
796.1395	72.16908
796.2867	73.0838
796.4339	70.94261
796.5811	71.17139
796.7283	70.52332
796.8755	70.92807
797.0227	68.97274
797.1699	73.75043
797.317	74.769
797.4642	69.96133
797.6113	70.96403
797.7584	74.56326
797.9056	74.30312
798.0527	76.39821
798.1998	76.51682
798.3469	75.46259
798.494	73.85155
798.641	74.05972
798.7881	74.8691
798.9351	69.35988
799.0822	71.82431
799.2292	67.18046
799.3762	69.14264
799.5232	71.22851
799.6702	70.08933
799.8172	73.02665
799.9642	68.65141
800.1111	69.92667
800.2581	69.72001
800.4051	69.37082
800.552	73.13433
800.6989	69.90829
800.8458	64.75135
800.9927	65.35679
801.1396	72.19522
801.2866	73.7276
801.4334	70.09999
801.5803	67.40357
801.7272	70.01367
801.874	61.44276
802.0209	62.46292
802.1677	64.75574
802.3145	65.91856
802.4613	65.30101
802.6081	60.94321
802.7549	62.05218
802.9017	66.6533
803.0485	65.90578
803.1952	66.86768
803.342	61.94435
803.4887	68.32722
803.6354	68.06321
803.7822	66.7097
803.9289	70.2791
804.0756	66.96774
804.2223	69.11558
804.369	61.60798
804.5156	62.07497
804.6623	64.853
804.8089	60.23404
804.9556	64.95899
805.1022	65.87344
805.2488	60.32201
805.3954	63.65279
805.542	71.74992
805.6886	67.02916
805.8352	63.23898
805.9818	69.72564
806.1283	59.40938
806.2749	64.30547
806.4214	63.01997
806.5679	62.7194
806.7145	65.21841
806.861	61.05252
807.0074	66.87352
807.154	64.02238
807.3004	68.55391
807.4469	64.51647
807.5934	60.56828
807.7398	63.99667
807.8862	61.57938
808.0327	61.91171
808.1791	62.08813
808.3255	58.25862
808.4719	59.11118
808.6183	57.01136
808.7647	62.30915
808.9111	65.61657
809.0574	65.38511
809.2037	57.77725
809.3501	64.22073
809.4965	61.55342
809.6428	58.42684
809.7891	59.61322
809.9354	62.68662
810.0817	58.98228
810.2279	58.64765
810.3742	65.05704
810.5204	62.04892
810.6667	68.47095
810.8129	60.43087
810.9592	58.3817
811.1054	54.67118
811.2516	57.97706
811.3978	58.20953
811.5439	60.80961
811.6901	60.82597
811.8363	61.96523
811.9825	54.84204
812.1286	59.1804
812.2748	59.18738
812.4209	59.46666
812.567	55.18082
812.7131	50.13511
812.8592	53.53571
813.0053	48.36713
813.1514	56.0961
813.2974	52.45734
813.4435	49.82854
813.5895	50.87239
813.7356	53.35106
813.8816	52.721
814.0276	53.08422
814.1736	50.08661
814.3196	54.99094
814.4656	50.43382
814.6116	46.86756
814.7576	46.94254
814.9035	48.32264
815.0494	52.09328
815.1954	51.74911
815.3413	47.04758
815.4872	48.89509
815.6331	52.30463
815.779	53.62288
815.9249	49.85917
816.0707	49.27785
816.2166	48.40835
816.3625	43.26971
816.5083	45.77235
816.6542	45.9342
816.8	47.52514
816.9458	44.71707
817.0916	47.97046
817.2374	50.06655
817.3832	52.00254
817.5289	46.82446
817.6747	50.78056
817.8204	45.28597
817.9662	42.34549
818.1119	46.52264
818.2576	48.90858
818.4034	45.14508
818.5491	49.07034
818.6948	50.04035
818.8405	43.06896
818.9861	44.26766
819.1318	48.57261
819.2774	50.31923
819.423	48.19044
819.5687	42.93752
819.7143	46.00706
819.8599	46.06525
820.0055	49.32357
820.1511	49.46104
820.2967	49.87754
820.4422	54.84152
820.5878	48.91235
820.7333	45.27781
820.8788	47.38388
821.0244	48.78889
821.1699	54.60191
821.3154	48.26043
821.4609	48.19629
821.6064	51.66739
821.7519	55.50407
821.8973	51.97367
822.0428	44.0639
822.1882	44.86823
822.3337	44.12016
822.4791	37.59447
822.6245	40.51053
822.7699	36.44024
822.9153	36.75153
823.0607	38.94398
823.2061	41.71845
823.3514	43.73052
823.4968	38.24841
823.6422	41.09839
823.7875	48.3081
823.9328	45.56797
824.0781	44.54137
824.2234	49.20605
824.3687	40.76754
824.514	48.06029
824.6592	44.47226
824.8045	43.00105
824.9498	47.14975
825.095	52.40603
825.2402	48.37012
825.3854	45.19609
825.5306	46.91117
825.6758	49.44552
825.821	47.82657
825.9662	42.97277
826.1114	48.32598
826.2565	47.92844
826.4017	42.31684
826.5468	44.64856
826.692	48.66037
826.837	46.64537
826.9822	47.96412
827.1273	45.17356
827.2723	44.04419
827.4174	46.37245
827.5625	41.08139
827.7075	43.90371
827.8526	42.99803
827.9976	39.25431
828.1426	44.63405
828.2877	46.06032
828.4327	42.30585
828.5776	51.45398
828.7227	45.21364
828.8676	42.70995
829.0126	40.75745
829.1575	39.45168
829.3024	43.98043
829.4474	42.96494
829.5923	41.35339
829.7372	41.36712
829.8821	43.30571
830.027	40.35999
830.1719	41.453
830.3168	46.07883
830.4616	41.7639
830.6064	40.33366
830.7513	42.15761
830.8961	42.69229
831.041	40.93652
831.1857	40.98469
831.3306	45.53399
831.4753	43.90089
831.6201	43.06318
831.7649	44.77157
831.9096	44.98811
832.0544	39.48418
832.1991	41.0449
832.3438	41.62653
832.4885	40.57133
832.6332	38.90228
832.778	40.55894
832.9226	39.18703
833.0673	40.31717
833.2119	42.05732
833.3566	39.66778
833.5012	44.42167
833.6459	44.76889
833.7905	43.40998
833.9351	36.49302
834.0797	37.2516
834.2243	39.66618
834.3688	40.53999
834.5134	38.02227
834.658	42.58992
834.8026	43.97304
834.9471	43.51508
835.0916	45.28333
835.2361	45.16167
835.3806	45.85123
835.5251	45.77544
835.6696	40.33787
835.8141	40.55482
835.9586	45.08629
836.103	42.3393
836.2474	42.06893
836.3918	47.26731
836.5363	40.23602
836.6807	41.69839
836.8251	38.22558
836.9695	37.31316
837.1138	40.69501
837.2582	38.17274
837.4026	36.56459
837.5469	39.71922
837.6913	36.79573
837.8356	44.45982
837.9799	43.10929
838.1242	45.48925
838.2686	43.4941
838.4128	38.25994
838.5571	39.69364
838.7014	41.36712
838.8456	40.7402
838.9899	45.51179
839.1341	45.36217
839.2783	43.67738
839.4225	41.598
839.5667	42.69388
839.7109	39.58355
839.8551	42.05096
839.9993	37.14295
840.1434	39.14866
840.2876	38.96317
840.4317	37.07095
840.5759	38.08316
840.72	38.91274
840.8641	40.54074
841.0082	38.67907
841.1523	40.68787
841.2963	43.73402
841.4404	40.48077
841.5845	36.06083
841.7285	40.80115
841.8726	42.71616
842.0165	41.05143
842.1606	37.03138
842.3046	37.65423
842.4485	39.80906
842.5925	41.90226
842.7365	44.53387
842.8805	37.54074
843.0244	39.70433
843.1684	36.96007
843.3123	41.09268
843.4562	38.64832
843.6002	37.98961
843.744	40.30677
843.8879	39.04616
844.0318	32.98257
844.1757	35.3711
844.3195	42.5811
844.4634	42.515
844.6072	35.57154
844.751	40.01534
844.8948	40.62707
845.0386	37.08022
845.1824	39.21024
845.3262	42.37498
845.47	42.12828
845.6138	43.75707
845.7575	41.76173
845.9012	41.45284
846.045	37.96062
846.1887	43.1366
846.3324	42.16149
846.4761	41.98843
846.6198	39.70781
846.7635	40.89177
846.9071	39.79263
847.0508	36.45521
847.1944	32.7738
847.3381	38.9002
847.4817	37.17123
847.6253	40.31386
847.7689	37.7942
847.9125	43.58199
848.0561	36.3186
848.1996	38.52309
848.3432	39.59518
848.4868	40.51663
848.6303	33.94293
848.7738	38.11432
848.9174	37.97496
849.0609	40.64811
849.2043	42.03546
849.3478	35.55439
849.4913	38.08558
849.6348	32.97979
849.7782	33.83749
849.9217	32.58032
850.0651	39.93367
850.2086	40.58308
850.3519	33.43551
850.4954	36.26525
850.6387	33.83623
850.7821	34.56328
850.9255	38.43373
851.0688	33.32923
851.2122	33.85728
851.3555	34.5326
851.4988	34.64791
851.6422	38.53677
851.7855	34.12651
851.9288	34.44968
852.0721	36.45057
852.2153	37.04379
852.3586	35.43797
852.5018	35.81363
852.6451	39.30388
852.7883	40.28913
852.9315	35.96211
853.0748	39.32725
853.218	38.27829
853.3611	36.75713
853.5043	31.08691
853.6475	37.86243
853.7906	28.92771
853.9338	31.13162
854.0769	31.60071
854.22	30.07656
854.3632	32.6912
854.5063	32.15689
854.6494	29.19724
854.7924	36.76447
854.9355	38.5256
855.0786	34.39217
855.2216	38.31856
855.3647	35.46992
855.5077	35.70649
855.6507	33.52275
855.7937	33.65654
855.9367	36.93474
856.0797	37.27276
856.2227	36.05134
856.3657	37.61838
856.5086	33.91435
856.6516	35.53777
856.7945	35.10163
856.9374	34.24998
857.0803	32.53957
857.2232	37.54987
857.3661	35.89883
857.509	33.25401
857.6519	32.5247
857.7947	35.22134
857.9376	35.98907
858.0804	36.41236
858.2232	33.80494
858.366	32.3719
858.5089	32.68298
858.6516	33.45746
858.7944	32.81689
858.9372	33.29986
859.08	37.28686
859.2227	34.018
859.3654	29.45365
859.5082	31.65262
859.6509	30.28523
859.7936	31.41261
859.9363	31.34405
860.079	37.7966
860.2217	34.65396
860.3643	33.29121
860.507	33.2977
860.6496	34.58758
860.7922	33.5906
860.9349	32.24133
861.0775	32.57964
861.2201	29.28926
861.3627	32.38908
861.5052	31.31003
861.6478	33.26733
861.7904	29.6213
861.9329	31.52905
862.0755	29.98826
862.218	33.03363
862.3605	34.9189
862.503	35.02435
862.6455	31.21518
862.788	31.84331
862.9305	33.3101
863.0729	32.29721
863.2154	33.42406
863.3578	34.55361
863.5002	32.14551
863.6426	30.63915
863.7851	31.49003
863.9275	29.80237
864.0698	29.58289
864.2122	27.10422
864.3546	28.95911
864.4969	30.63244
864.6393	28.37589
864.7816	29.73907
864.924	34.32327
865.0662	32.41185
865.2086	30.88716
865.3508	29.45221
865.4931	26.37795
865.6354	26.49874
865.7776	30.58759
865.9199	28.01645
866.0621	23.06061
866.2043	27.16558
866.3466	24.77072
866.4888	25.00118
866.6309	21.18287
866.7731	26.96758
866.9153	27.27807
867.0574	30.09469
867.1996	30.64015
867.3417	31.1024
867.4839	30.03129
867.626	25.50734
867.7681	31.56418
867.9102	31.03911
868.0522	26.15059
868.1943	25.98687
868.3364	28.4914
868.4785	30.38234
868.6205	28.02871
868.7625	25.24502
868.9045	30.12321
869.0465	28.87632
869.1885	23.81785
869.3305	27.21427
869.4725	31.88746
869.6144	31.22553
869.7564	29.40324
869.8983	28.40514
870.0403	27.58387
870.1822	28.12634
870.3241	30.50657
870.466	23.82066
870.6079	27.69037
870.7498	31.01766
870.8916	28.10237
871.0335	28.0033
871.1754	27.52592
871.3171	33.13503
871.459	30.32935
871.6008	30.72719
871.7426	29.66059
871.8844	30.60382
872.0262	28.66723
872.1679	24.75661
872.3097	28.061
872.4514	29.07729
872.5931	27.75412
872.7349	29.36523
872.8766	25.55046
873.0183	29.56787
873.16	30.14256
873.3017	26.85239
873.4434	30.95752
873.585	29.76806
873.7266	30.75455
873.8683	29.5895
874.0099	29.62875
874.1516	26.17121
874.2932	23.92536
874.4348	28.78674
874.5763	25.68574
874.7179	26.99839
874.8594	27.05309
875.001	26.93314
875.1425	29.83684
875.2841	30.23007
875.4256	24.9383
875.5671	24.43309
875.7086	31.65968
875.85	26.31611
875.9915	26.25111
876.133	25.36653
876.2744	28.75805
876.4159	24.2313
876.5573	23.72703
876.6987	24.25482
876.8401	27.90563
876.9815	27.5522
877.1229	31.26567
877.2643	24.54637
877.4056	22.25189
877.547	28.31806
877.6884	23.79502
877.8297	23.28471
877.971	26.32276
878.1123	26.85194
878.2536	28.92563
878.3949	22.08944
878.5362	24.10614
878.6774	28.56433
878.8187	23.998
878.9599	27.51437
879.1011	23.29192
879.2424	26.3921
879.3836	22.97446
879.5248	28.71534
879.666	26.36182
879.8071	21.99357
879.9483	25.85619
880.0895	26.85337
880.2306	24.98783
880.3718	25.59051
880.5129	24.49808
880.654	25.96006
880.7951	19.85926
880.9362	18.20389
881.0773	21.4266
881.2183	22.63973
881.3594	22.22742
881.5004	26.22231
881.6414	23.07759
881.7825	24.75698
881.9235	29.92656
882.0645	29.23177
882.2054	23.36044
882.3464	29.06277
882.4874	28.45261
882.6284	24.22799
882.7693	21.56913
882.9103	20.16085
883.0512	24.70161
883.1921	27.20523
883.333	26.49924
883.4739	24.08967
883.6147	21.77439
883.7556	22.41785
883.8965	23.22177
884.0374	19.17342
884.1782	20.3001
884.319	23.12902
884.4598	21.88319
884.6006	23.02167
884.7414	23.05771
884.8822	23.90637
885.0229	24.52281
885.1637	24.66109
885.3044	21.52133
885.4452	25.09636
885.5859	21.95638
885.7266	17.81391
885.8673	24.58302
886.008	21.82277
886.1487	27.15705
886.2894	25.68603
886.43	26.62883
886.5707	24.94314
886.7113	17.19021
886.8519	23.20313
886.9926	19.46321
887.1331	20.78986
887.2737	23.39816
887.4143	26.1374
887.5549	18.74972
887.6954	23.12456
887.836	24.99329
887.9765	24.86618
888.1171	21.04177
888.2576	22.65282
888.3981	25.7317
888.5386	21.53572
888.679	24.24684
888.8195	23.53325
888.96	24.7442
889.1004	24.44024
889.2408	25.59126
889.3813	22.23586
889.5217	19.20315
889.6621	26.37933
889.8025	22.44283
889.9429	22.5605
890.0833	17.50826
890.2236	21.34308
890.364	21.64695
890.5043	25.99066
890.6446	19.0151
890.7849	26.48529
890.9252	24.30633
891.0655	23.85011
891.2058	22.34385
891.3461	24.37716
891.4863	24.7474
891.6266	24.41003
891.7668	23.88325
891.907	19.72839
892.0472	21.22912
892.1874	24.65909
892.3276	25.42045
892.4678	24.63158
892.608	18.13481
892.7481	22.2564
892.8883	24.17907
893.0284	23.41984
893.1685	18.14543
893.3087	20.99731
893.4487	22.83996
893.5889	23.02869
893.7289	26.14104
893.869	21.97248
894.009	17.38765
894.1491	21.55535
894.2891	24.14414
894.4291	21.91298
894.5692	22.80568
894.7092	20.04687
894.8491	21.16413
894.9891	14.60588
895.1291	21.19825
895.269	13.10183
895.409	15.30612
895.549	18.64725
895.6888	24.21121
895.8288	20.75633
895.9687	16.05779
896.1086	16.03536
896.2484	16.58669
896.3883	16.32718
896.5281	19.58651
896.668	23.97137
896.8079	22.26054
896.9476	17.46844
897.0875	17.87173
897.2272	20.9471
897.3671	18.33312
897.5068	15.1892
897.6466	15.54101
897.7864	17.82992
897.9261	21.68935
898.0658	22.07615
898.2056	16.28435
898.3453	17.67221
898.4849	18.7139
898.6246	25.3898
898.7643	17.72743
898.904	9.43025
899.0436	13.20443
899.1833	16.26224
899.3229	14.83628
899.4625	18.02891
899.6021	17.27125
899.7417	16.63016
899.8813	18.00531
900.0209	20.19555
900.1605	14.21164
900.3	15.45579
900.4395	14.35239
900.579	16.22858
900.7186	19.07249
900.8581	19.88902
900.9976	18.85728
901.1371	17.69974
901.2766	21.50703
901.416	16.46426
901.5555	17.62731
901.6949	17.81909
901.8344	15.14872
901.9738	16.9572
902.1132	21.30583
902.2526	21.42622
902.3919	17.81894
902.5313	18.20452
902.6707	21.54742
