SPECTRUM DATA FILE
SpectrumCount:	1
PixelCount:	3648
UserName:	ToughBook User
SampleName:	
LightSource:	
Comments:	
DeviceName:	Qwave
DeviceManufacturer:	Broadcom
DeviceSerialNo:	11311

Name:	last spectrum
Date:	2024-05-02T14:33:36.9142066+02:00
ExposureTime:	0.02
TemporalAvg:	1
IntensityUnit:	normalizedCounts
CCDLoadLevel:	0.1692172
Temperature:	30.95038
DiagramColor:	200
ProcessingSteps:	335

Wavelength [nm]	Intensity1
334.421	40.11504
334.5891	36.79047
334.7573	37.23552
334.9254	37.62316
335.0935	34.59047
335.2616	34.05914
335.4297	36.75928
335.5978	34.9736
335.7659	33.04364
335.934	32.67502
336.1021	33.20602
336.2701	30.2434
336.4382	30.62241
336.6063	34.93203
336.7744	33.49106
336.9424	34.32295
337.1105	35.86567
337.2785	34.47477
337.4466	40.01021
337.6146	37.82467
337.7827	38.8355
337.9507	29.26719
338.1187	35.32365
338.2867	39.83116
338.4548	33.79039
338.6228	37.09448
338.7908	32.01363
338.9588	35.80259
339.1268	42.94124
339.2948	38.88887
339.4628	32.48159
339.6308	33.67813
339.7988	37.8726
339.9667	37.56657
340.1347	39.33341
340.3027	38.74365
340.4707	40.15049
340.6386	42.16095
340.8066	39.30323
340.9745	37.22655
341.1425	33.45701
341.3104	35.90636
341.4784	39.53529
341.6463	38.68443
341.8142	41.59451
341.9821	41.06743
342.1501	39.41258
342.318	42.92112
342.4859	41.33443
342.6538	42.81091
342.8217	41.47736
342.9896	40.00688
343.1575	47.14577
343.3254	43.31833
343.4933	38.65907
343.6612	40.89939
343.829	36.00289
343.9969	37.14441
344.1648	35.52092
344.3326	32.28988
344.5005	38.64412
344.6683	39.90797
344.8362	44.20912
345.004	45.85754
345.1719	45.0799
345.3397	46.40174
345.5075	46.81893
345.6754	43.15098
345.8432	43.59952
346.011	40.32134
346.1788	40.09269
346.3466	40.61688
346.5144	40.74104
346.6822	47.80342
346.85	50.9258
347.0178	45.19376
347.1856	44.98946
347.3534	39.81723
347.5211	43.54157
347.6889	41.32869
347.8567	44.65646
348.0244	45.39876
348.1922	45.09279
348.3599	44.2781
348.5277	42.36572
348.6954	41.15142
348.8632	41.92727
349.0309	37.65583
349.1986	43.02293
349.3663	42.08012
349.5341	41.36144
349.7018	38.86594
349.8695	46.79902
350.0372	53.45371
350.2049	51.65592
350.3726	49.07958
350.5403	50.07206
350.7079	52.39874
350.8756	47.67442
351.0433	44.94245
351.211	52.13375
351.3786	42.73092
351.5463	46.53677
351.714	50.48701
351.8816	51.04166
352.0493	56.42502
352.2169	49.01296
352.3846	46.44751
352.5522	46.60874
352.7198	44.74211
352.8875	53.11489
353.0551	53.71563
353.2227	54.92421
353.3903	52.3485
353.5579	56.54835
353.7255	49.65219
353.8931	59.26344
354.0607	56.45985
354.2283	56.9006
354.3958	61.74864
354.5634	56.56048
354.731	61.76747
354.8986	56.23251
355.0661	54.69621
355.2337	58.46796
355.4012	54.63108
355.5688	49.34439
355.7363	54.98463
355.9039	55.06876
356.0714	55.71563
356.239	57.15573
356.4065	53.10622
356.574	51.51588
356.7415	49.33224
356.909	43.85217
357.0765	48.37209
357.244	48.92704
357.4115	52.4314
357.579	49.17501
357.7465	44.55848
357.914	45.58796
358.0815	45.992
358.249	41.87211
358.4164	42.80001
358.5839	44.22543
358.7513	40.99267
358.9188	48.97054
359.0862	55.29332
359.2537	59.84697
359.4211	63.40842
359.5886	67.50559
359.756	67.03421
359.9234	67.45001
360.0909	67.62796
360.2583	63.24599
360.4257	62.08381
360.5931	61.713
360.7605	55.96972
360.9279	54.39598
361.0953	53.65736
361.2627	55.57123
361.4301	65.36164
361.5974	56.29311
361.7648	55.05747
361.9322	52.12625
362.0995	54.91092
362.2669	61.10133
362.4343	65.57845
362.6016	67.15907
362.769	76.28483
362.9363	66.96265
363.1036	64.50916
363.271	53.86554
363.4383	57.90205
363.6056	64.1017
363.7729	66.09407
363.9402	69.56738
364.1075	77.44366
364.2748	71.61739
364.4421	68.2632
364.6094	67.28203
364.7767	62.91779
364.944	61.34944
365.1113	68.19663
365.2786	71.24784
365.4458	79.93373
365.6131	79.2198
365.7803	82.1073
365.9476	78.91706
366.1148	77.6022
366.2821	86.86897
366.4493	84.78365
366.6166	73.76404
366.7838	78.08383
366.951	79.31233
367.1182	73.41711
367.2855	79.20798
367.4527	83.3316
367.6199	81.07609
367.7871	74.19069
367.9543	68.57593
368.1215	74.14624
368.2886	74.9785
368.4558	77.63481
368.623	73.71032
368.7902	71.26505
368.9573	77.15327
369.1245	87.53395
369.2917	88.30236
369.4588	83.56125
369.6259	84.7037
369.7931	91.52209
369.9602	94.008
370.1274	88.98832
370.2945	86.53159
370.4616	76.56664
370.6287	77.30015
370.7958	78.16764
370.963	85.1372
371.1301	93.15688
371.2971	97.89704
371.4643	100.8836
371.6313	89.40039
371.7984	79.48675
371.9655	77.09062
372.1326	73.85009
372.2997	78.17975
372.4667	83.01141
372.6338	86.25556
372.8008	85.18359
372.9679	91.41617
373.1349	85.11913
373.3019	75.98869
373.469	69.43709
373.636	70.46171
373.803	74.35396
373.9701	81.8304
374.1371	87.19231
374.3041	84.02726
374.4711	80.59486
374.6381	67.11401
374.8051	70.26137
374.9721	75.99776
375.1391	84.67331
375.3061	95.26833
375.473	98.36977
375.64	100.3317
375.8069	95.84219
375.9739	87.28305
376.1409	92.21217
376.3078	91.42816
376.4748	91.60984
376.6417	94.8681
376.8087	92.85204
376.9756	96.15173
377.1425	103.3971
377.3094	109.0493
377.4763	108.2284
377.6432	107.7306
377.8102	113.7163
377.9771	122.268
378.144	123.8284
378.3109	117.1779
378.4777	116.4584
378.6446	108.923
378.8115	101.8793
378.9784	95.92215
379.1452	96.9637
379.3121	94.86765
379.4789	95.98113
379.6458	92.01155
379.8127	90.71779
379.9795	94.59985
380.1463	105.8522
380.3131	112.2929
380.48	116.2821
380.6468	118.1366
380.8136	115.6977
380.9804	119.0642
381.1472	115.8167
381.314	105.513
381.4808	95.79158
381.6476	95.59492
381.8144	90.97711
381.9812	92.72189
382.148	87.64739
382.3147	89.99713
382.4815	83.71957
382.6483	79.17466
382.815	76.45414
382.9818	82.80651
383.1485	81.15062
383.3153	78.00684
383.482	76.99618
383.6487	79.39152
383.8155	75.29091
383.9822	74.14931
384.1489	84.94508
384.3156	99.71996
384.4823	118.9048
384.649	124.2525
384.8157	114.6293
384.9824	116.4816
385.1491	113.7248
385.3158	120.834
385.4825	107.249
385.6491	102.7134
385.8158	98.33759
385.9825	90.9475
386.1491	101.1508
386.3157	110.5194
386.4824	114.9305
386.649	119.7831
386.8157	121.9493
386.9823	112.1702
387.1489	107.6027
387.3156	115.546
387.4821	115.6427
387.6488	124.4014
387.8154	112.2408
387.982	117.6823
388.1486	110.6777
388.3152	111.6584
388.4818	111.9469
388.6483	105.3958
388.8149	105.4622
388.9815	115.559
389.148	128.6683
389.3146	139.9941
389.4811	139.8141
389.6477	141.3714
389.8142	140.6192
389.9808	138.5448
390.1473	133.7018
390.3138	136.2492
390.4804	127.0628
390.6469	131.6007
390.8134	145.1868
390.9799	150.8546
391.1464	159.0601
391.3129	155.7502
391.4794	160.0622
391.6459	158.2986
391.8124	152.1765
391.9789	139.5636
392.1453	136.4807
392.3118	129.4447
392.4782	124.5593
392.6447	117.1765
392.8112	96.75545
392.9776	81.9297
393.144	74.42911
393.3105	61.17004
393.4769	66.61825
393.6433	74.73304
393.8098	93.19822
393.9762	108.5216
394.1426	121.8911
394.309	128.6331
394.4754	135.4009
394.6418	141.1777
394.8082	153.5469
394.9746	160.3606
395.141	168.5603
395.3073	166.6146
395.4737	165.0646
395.64	165.8459
395.8064	164.298
395.9728	149.1151
396.1391	142.6933
396.3055	125.7239
396.4718	105.2903
396.6381	85.35393
396.8045	74.21432
396.9708	76.53039
397.1371	94.06579
397.3034	112.6157
397.4697	136.5621
397.636	159.6552
397.8023	170.4158
397.9686	183.4274
398.1349	189.1362
398.3012	195.2618
398.4675	199.2915
398.6337	201.3726
398.8	204.5155
398.9662	209.5455
399.1325	217.8432
399.2988	220.9103
399.465	223.4058
399.6313	220.5034
399.7975	211.4686
399.9637	218.5704
400.1299	218.6466
400.2961	218.5254
400.4624	207.3195
400.6286	204.8757
400.7948	215.306
400.961	230.1314
401.1272	232.1136
401.2934	236.0652
401.4595	241.0473
401.6257	239.5413
401.7919	233.0869
401.9581	231.0614
402.1242	235.5721
402.2904	237.6119
402.4565	239.6955
402.6227	242.3213
402.7888	244.9998
402.955	229.622
403.1211	221.1827
403.2872	218.984
403.4533	223.81
403.6194	239.6178
403.7856	246.3921
403.9517	255.2113
404.1177	254.8966
404.2838	240.9728
404.4499	214.3026
404.616	212.552
404.7821	228.5757
404.9482	252.2435
405.1142	257.1887
405.2803	248.6618
405.4464	245.7693
405.6124	239.5661
405.7784	238.45
405.9445	239.5862
406.1105	242.4682
406.2766	224.5377
406.4426	227.7094
406.6086	233.2464
406.7746	243.2386
406.9406	252.7509
407.1066	258.5587
407.2726	247.8417
407.4386	247.9728
407.6046	258.1064
407.7706	255.6247
407.9366	252.4446
408.1025	270.9092
408.2685	269.4278
408.4344	276.2265
408.6004	279.7529
408.7664	286.0346
408.9323	296.7213
409.0983	293.9079
409.2642	292.1699
409.4301	279.5848
409.596	273.6579
409.762	268.6749
409.9279	244.492
410.0938	226.7429
410.2597	229.3997
410.4256	242.8367
410.5915	259.3672
410.7574	274.7782
410.9232	283.1588
411.0891	290.0324
411.255	286.613
411.4209	306.6231
411.5867	308.8117
411.7526	303.7971
411.9184	296.5373
412.0843	292.1443
412.2501	302.1931
412.4159	305.224
412.5818	304.2029
412.7476	291.9593
412.9134	289.3581
413.0792	285.9716
413.245	279.1136
413.4108	284.9227
413.5766	286.0989
413.7424	309.7033
413.9082	324.5773
414.074	313.5002
414.2397	292.0742
414.4055	284.8714
414.5713	298.3542
414.737	298.5145
414.9028	305.0017
415.0685	302.6757
415.2343	293.8467
415.4	293.8749
415.5658	293.727
415.7315	288.2292
415.8972	304.6832
416.0629	314.9934
416.2286	326.3127
416.3943	332.5652
416.56	319.3301
416.7257	320.4074
416.8914	317.7911
417.0571	303.834
417.2228	295.778
417.3884	291.3611
417.5541	302.4321
417.7198	304.3967
417.8854	310.2989
418.0511	316.907
418.2167	308.2913
418.3824	310.5454
418.548	311.7152
418.7136	299.9524
418.8792	311.9444
419.0449	313.5409
419.2105	325.4512
419.3761	337.5597
419.5417	326.7958
419.7073	309.5954
419.8729	305.6387
420.0385	303.8932
420.204	307.8623
420.3696	327.7705
420.5352	343.9872
420.7007	355.1795
420.8663	363.8423
421.0319	361.6277
421.1974	361.2087
421.3629	360.2116
421.5285	345.6379
421.694	340.2645
421.8595	351.2222
422.0251	365.4531
422.1906	361.7546
422.3561	343.9637
422.5216	306.5202
422.6871	289.047
422.8526	316.6402
423.0181	343.162
423.1835	365.1488
423.349	356.7422
423.5145	344.0194
423.68	328.3432
423.8454	333.5732
424.0109	356.8926
424.1763	366.4323
424.3418	372.1155
424.5072	380.7509
424.6726	368.6309
424.838	352.6064
425.0035	332.5992
425.1689	343.106
425.3343	357.3332
425.4997	355.7199
425.6651	355.256
425.8305	354.6431
425.9959	346.6396
426.1613	338.1579
426.3267	356.0213
426.492	375.9285
426.6574	380.4573
426.8228	365.0113
426.9881	339.3799
427.1534	320.4116
427.3188	304.8956
427.4841	318.4386
427.6495	351.114
427.8148	359.1798
427.9801	359.1221
428.1454	354.9711
428.3107	355.6759
428.476	366.9795
428.6414	351.3053
428.8066	336.8441
428.9719	332.3673
429.1372	341.9802
429.3025	342.1219
429.4678	341.9293
429.633	330.0451
429.7983	308.1632
429.9636	278.3001
430.1288	265.0567
430.294	262.8943
430.4593	267.8759
430.6245	269.7818
430.7897	256.3479
430.955	252.1968
431.1202	265.4867
431.2854	301.7202
431.4506	355.2459
431.6158	394.4704
431.781	430.3506
431.9462	437.5185
432.1114	420.1333
432.2766	382.0872
432.4417	345.9957
432.6069	325.8367
432.772	364.6251
432.9372	411.8545
433.1024	436.254
433.2675	432.2014
433.4326	425.7316
433.5977	405.5786
433.7629	370.5529
433.928	332.9749
434.0931	319.0653
434.2582	341.5806
434.4233	376.5199
434.5884	419.0935
434.7535	429.2583
434.9186	435.7188
435.0837	422.3673
435.2488	412.0433
435.4138	400.0353
435.5789	410.6593
435.744	432.6189
435.909	450.0042
436.0741	449.4684
436.2391	457.9711
436.4042	463.5157
436.5692	465.1778
436.7342	467.1219
436.8992	454.9679
437.0643	451.6795
437.2293	438.4854
437.3943	427.568
437.5593	426.4865
437.7243	432.1051
437.8893	447.5601
438.0542	444.6937
438.2192	401.8131
438.3842	368.5924
438.5491	375.0951
438.7141	396.4254
438.8791	424.284
439.044	436.5323
439.209	445.4163
439.3739	445.3076
439.5388	452.018
439.7037	472.5258
439.8687	466.9142
440.0336	467.5005
440.1985	451.8804
440.3634	432.3764
440.5283	425.2577
440.6932	430.6495
440.8581	460.3703
441.0229	480.1755
441.1878	494.1016
441.3527	491.369
441.5175	478.7148
441.6824	472.8001
441.8472	491.0985
442.0121	520.3857
442.1769	518.9508
442.3418	495.878
442.5066	493.4322
442.6714	502.8672
442.8362	502.73
443.001	504.8635
443.1659	499.7881
443.3307	492.1011
443.4955	477.1412
443.6602	486.224
443.825	513.1974
443.9898	521.6496
444.1546	510.8331
444.3193	498.7433
444.4841	504.6013
444.6488	508.0953
444.8136	528.1077
444.9783	529.2899
445.1431	525.5828
445.3078	505.5586
445.4725	478.2417
445.6372	474.9441
445.802	468.814
445.9667	474.5625
446.1314	485.3489
446.2961	500.7112
446.4608	527.1545
446.6255	535.4894
446.7901	527.6714
446.9548	516.8745
447.1195	532.7117
447.2841	546.4398
447.4488	562.5757
447.6134	572.7335
447.7781	572.4435
447.9427	548.4439
448.1074	517.8713
448.272	522.8434
448.4366	542.4305
448.6012	567.902
448.7658	572.3092
448.9305	557.4916
449.095	552.5465
449.2596	555.3308
449.4242	555.4796
449.5888	557.3293
449.7534	568.0486
449.9179	583.1071
450.0825	579.2344
450.2471	588.9083
450.4116	608.9164
450.5762	626.5023
450.7407	639.9677
450.9052	624.0433
451.0698	616.2661
451.2343	597.6558
451.3988	601.9949
451.5633	594.7527
451.7278	594.0447
451.8923	596.7447
452.0568	604.8214
452.2213	604.3087
452.3858	602.5129
452.5503	573.1227
452.7148	555.1738
452.8792	533.6986
453.0437	535.041
453.2081	545.1509
453.3726	543.0327
453.537	548.6807
453.7015	580.5184
453.8659	604.7427
454.0303	599.5491
454.1947	602.0931
454.3592	605.0363
454.5236	607.814
454.688	596.9006
454.8524	581.8391
455.0168	570.2473
455.1811	572.8295
455.3455	591.7733
455.5099	592.8915
455.6743	597.3163
455.8386	607.9972
456.003	623.3052
456.1673	630.2211
456.3317	612.7165
456.496	601.4805
456.6603	605.6193
456.8246	624.73
456.989	617.3747
457.1533	615.3688
457.3176	611.9205
457.4819	624.7078
457.6462	635.6717
457.8105	624.8584
457.9748	597.4525
458.1391	584.5172
458.3033	574.1184
458.4676	587.7478
458.6319	594.5107
458.7961	609.3055
458.9604	616.2023
459.1246	618.66
459.2888	616.614
459.4531	588.6132
459.6173	602.4961
459.7815	588.5173
459.9457	591.2302
460.11	600.5663
460.2741	604.6073
460.4384	611.787
460.6025	615.0878
460.7667	634.3409
460.9309	644.2085
461.0951	638.2101
461.2592	627.6548
461.4234	619.0082
461.5876	622.2781
461.7517	636.8849
461.9159	623.4995
462.08	628.3423
462.2441	631.8755
462.4082	630.4872
462.5724	640.9412
462.7365	638.0669
462.9006	638.7529
463.0647	637.0216
463.2288	645.6511
463.3929	642.1268
463.557	638.4169
463.721	631.8894
463.8851	632.3588
464.0492	634.6682
464.2132	631.5048
464.3773	630.8996
464.5414	625.3286
464.7054	618.1887
464.8694	620.3738
465.0334	629.3801
465.1975	644.264
465.3615	640.3466
465.5255	639.3056
465.6895	642.7033
465.8535	664.793
466.0175	670.8708
466.1815	668.0154
466.3455	644.0197
466.5095	622.8476
466.6734	600.326
466.8374	592.9321
467.0014	613.0753
467.1653	643.7825
467.3293	661.7756
467.4932	656.9155
467.6571	664.5911
467.8211	655.3999
467.985	649.2621
468.1489	647.7717
468.3128	651.6966
468.4767	671.0445
468.6406	674.2801
468.8045	660.2791
468.9684	661.8848
469.1323	667.899
469.2962	670.7776
469.46	669.3417
469.6239	667.2255
469.7878	655.8647
469.9516	642.3482
470.1154	635.9858
470.2793	619.948
470.4431	625.4478
470.607	643.1892
470.7708	625.4185
470.9346	637.738
471.0984	653.7118
471.2622	660.5085
471.426	664.4704
471.5898	657.9968
471.7536	676.4459
471.9174	700.6394
472.0811	699.8633
472.2449	690.9966
472.4087	693.3342
472.5724	694.7394
472.7362	668.9547
472.8999	642.1681
473.0637	643.7131
473.2274	657.5546
473.3911	682.5546
473.5548	679.0941
473.7185	659.4952
473.8822	669.932
474.0459	667.3433
474.2096	673.9777
474.3733	687.0118
474.537	693.7874
474.7007	690.0194
474.8643	691.735
475.028	693.4584
475.1917	687.3763
475.3553	676.4203
475.519	671.9479
475.6826	671.9476
475.8463	682.5671
476.0099	680.8176
476.1735	670.0058
476.3371	665.1535
476.5007	642.4169
476.6643	646.9177
476.8279	654.5657
476.9915	667.5384
477.1551	686.7385
477.3187	677.2034
477.4823	679.7124
477.6458	697.9413
477.8094	706.8816
477.9729	704.2413
478.1365	706.6166
478.3	688.307
478.4636	668.1971
478.6271	667.0443
478.7906	668.7785
478.9541	669.4093
479.1176	668.854
479.2812	681.2767
479.4447	704.2031
479.6082	717.7545
479.7716	703.2808
479.9351	688.936
480.0986	692.981
480.2621	696.4799
480.4255	696.0627
480.589	692.428
480.7524	687.8051
480.9159	676.6229
481.0793	674.8781
481.2428	686.1772
481.4062	693.256
481.5696	708.3918
481.733	708.6585
481.8964	713.4952
482.0598	709.562
482.2232	706.306
482.3866	680.756
482.55	687.6271
482.7134	701.5856
482.8768	702.5974
483.0401	701.5273
483.2035	696.9468
483.3668	697.6153
483.5302	693.5221
483.6935	683.977
483.8568	685.1882
484.0202	675.4199
484.1835	671.3787
484.3468	676.2162
484.5101	687.5701
484.6734	681.5146
484.8367	682.6052
485	689.5178
485.1633	689.4072
485.3266	684.243
485.4899	665.792
485.6531	632.5643
485.8164	602.1592
485.9796	559.8845
486.1429	514.9512
486.3061	521.9286
486.4694	567.7358
486.6326	623.0811
486.7958	648.0306
486.959	639.1207
487.1223	634.2609
487.2855	623.2694
487.4486	641.4931
487.6118	655.1387
487.775	680.504
487.9382	694.1243
488.1014	699.9058
488.2646	701.9614
488.4277	682.3964
488.5909	659.7914
488.754	656.7455
488.9171	642.3124
489.0803	639.4287
489.2434	651.9645
489.4066	695.7048
489.5697	729.1883
489.7328	736.5044
489.8959	731.7406
490.059	721.6407
490.2221	711.7644
490.3852	712.6366
490.5482	723.8546
490.7113	710.3654
490.8744	710.8824
491.0374	686.2809
491.2005	675.2883
491.3636	687.4176
491.5266	704.8123
491.6896	692.526
491.8527	656.009
492.0157	623.8961
492.1787	628.1526
492.3417	648.4825
492.5047	670.2759
492.6677	685.4365
492.8307	701.5585
492.9937	716.0156
493.1567	715.5402
493.3196	705.8036
493.4826	678.6412
493.6456	672.2783
493.8085	671.1986
493.9715	668.0056
494.1344	691.0627
494.2974	715.4086
494.4603	720.9713
494.6232	718.3162
494.7861	719.0287
494.949	720.6985
495.1119	731.7936
495.2748	724.447
495.4377	723.2268
495.6006	699.0283
495.7635	674.4634
495.9264	680.7676
496.0892	697.503
496.2521	724.6212
496.4149	732.804
496.5778	723.1007
496.7407	708.2197
496.9035	711.9595
497.0663	714.6165
497.2291	727.3524
497.3919	731.1418
497.5547	735.1152
497.7176	730.3756
497.8804	714.5447
498.0432	691.5086
498.2059	673.9043
498.3687	652.9551
498.5315	650.8141
498.6942	694.9786
498.857	716.4247
499.0198	717.0435
499.1825	714.7756
499.3452	722.5948
499.508	731.6649
499.6707	738.6194
499.8334	729.4379
499.9962	710.1614
500.1589	700.0862
500.3216	700.3494
500.4843	685.9278
500.6469	676.6525
500.8096	683.3836
500.9723	710.7698
501.135	710.6391
501.2976	687.7365
501.4603	675.3373
501.623	670.2617
501.7856	673.6808
501.9482	679.8112
502.1109	697.5474
502.2735	709.2595
502.4361	701.6526
502.5987	711.2732
502.7614	707.7615
502.924	719.2557
503.0865	740.892
503.2491	756.0369
503.4117	748.7222
503.5743	725.7261
503.7368	709.9368
503.8994	685.222
504.062	659.8904
504.2245	673.2577
504.3871	705.1337
504.5496	747.1296
504.7121	745.0829
504.8746	721.5033
505.0372	714.5407
505.1997	727.7534
505.3622	752.6805
505.5247	766.5679
505.6872	766.6725
505.8497	767.7828
506.0121	780.853
506.1746	787.3706
506.3371	765.2238
506.4995	745.2686
506.662	733.3282
506.8244	731.5879
506.9869	743.2548
507.1493	738.171
507.3117	735.9015
507.4742	738.5617
507.6366	734.2263
507.799	724.4293
507.9614	704.9097
508.1238	696.0739
508.2862	702.1788
508.4485	716.7885
508.6109	747.3785
508.7733	760.9886
508.9357	762.3137
509.098	749.3934
509.2604	747.9619
509.4227	755.7168
509.5851	744.1198
509.7474	717.2866
509.9097	694.4557
510.072	711.7574
510.2343	733.698
510.3966	740.0245
510.5589	732.3103
510.7212	725.4583
510.8835	717.0809
511.0458	711.7643
511.2081	736.1833
511.3703	742.014
511.5326	752.7709
511.6949	749.6057
511.8571	755.2847
512.0193	752.7749
512.1816	734.1655
512.3438	718.0936
512.506	697.6533
512.6682	696.6298
512.8304	696.5657
512.9926	706.0379
513.1548	702.7581
513.317	718.1863
513.4792	720.0504
513.6414	713.6424
513.8035	682.7427
513.9657	676.4265
514.1279	682.9
514.29	691.1951
514.4521	694.0681
514.6143	685.2653
514.7764	695.2074
514.9385	702.3954
515.1006	702.1988
515.2628	700.7808
515.4249	707.8456
515.587	700.4064
515.7491	712.1861
515.9111	723.4851
516.0732	711.5524
516.2353	695.7198
516.3973	672.6644
516.5594	622.7817
516.7214	589.1961
516.8835	568.5127
517.0455	563.7502
517.2076	571.0292
517.3696	575.6545
517.5316	617.4332
517.6937	678.5803
517.8557	708.0464
518.0176	695.8104
518.1796	640.901
518.3416	581.5594
518.5036	576.9215
518.6656	629.4316
518.8275	679.0424
518.9895	686.3941
519.1514	680.6068
519.3134	673.3203
519.4753	678.5734
519.6373	689.0233
519.7992	706.449
519.9611	703.7975
520.123	703.4887
520.2849	716.8002
520.4468	700.0779
520.6087	671.5765
520.7706	666.5229
520.9325	678.9439
521.0944	692.0126
521.2562	713.7684
521.4181	722.3923
521.58	720.5369
521.7418	708.2741
521.9036	722.3359
522.0655	743.4319
522.2273	739.3433
522.3891	726.0437
522.551	684.7172
522.7128	661.1071
522.8746	677.0084
523.0363	704.5087
523.1981	716.977
523.3599	707.5673
523.5217	699.6615
523.6835	722.4048
523.8452	737.6891
524.007	753.0237
524.1687	755.105
524.3304	750.5187
524.4922	748.0599
524.6539	751.3934
524.8157	746.7902
524.9774	731.0172
525.1391	730.704
525.3008	733.4771
525.4625	725.4839
525.6241	742.0899
525.7858	757.4658
525.9475	760.918
526.1092	749.1301
526.2709	712.2183
526.4325	666.2411
526.5942	653.1838
526.7558	648.4234
526.9174	643.8887
527.079	649.4605
527.2407	663.8795
527.4023	689.7209
527.5639	706.2493
527.7255	736.7894
527.8871	756.5702
528.0487	742.9391
528.2103	724.8346
528.3718	720.0538
528.5334	733.5066
528.695	755.9399
528.8565	769.7598
529.0181	768.3299
529.1796	780.1428
529.3412	773.1781
529.5027	766.9225
529.6642	730.4791
529.8257	720.2726
529.9872	724.8172
530.1487	729.4842
530.3102	756.7525
530.4717	755.1212
530.6332	760.8932
530.7947	769.0038
530.9562	765.1793
531.1176	773.9778
531.2791	771.1219
531.4405	760.681
531.6019	750.2659
531.7634	746.3636
531.9248	748.4887
532.0862	746.4271
532.2477	734.3914
532.4091	710.9024
532.5704	695.8453
532.7319	677.3735
532.8932	668.872
533.0546	683.1557
533.216	705.2388
533.3774	723.8655
533.5388	744.9038
533.7001	742.0214
533.8615	721.1649
534.0228	701.6703
534.1841	699.7255
534.3455	716.1138
534.5068	731.1408
534.6681	715.3342
534.8293	720.5178
534.9907	718.5547
535.152	720.0251
535.3132	724.726
535.4745	739.1801
535.6358	759.5807
535.7971	760.7593
535.9583	746.3401
536.1196	744.471
536.2808	721.1854
536.4421	714.3426
536.6033	706.6964
536.7645	691.687
536.9258	681.2869
537.087	676.8694
537.2482	681.928
537.4094	697.4012
537.5706	715.399
537.7318	726.9594
537.8929	726.7487
538.0541	712.207
538.2153	701.0773
538.3764	706.2739
538.5376	711.4426
538.6987	719.9136
538.8599	715.3661
539.021	709.115
539.1821	699.6946
539.3432	698.5637
539.5043	681.1596
539.6655	675.3636
539.8265	683.74
539.9876	683.2777
540.1487	688.0231
540.3098	678.7678
540.4708	646.5632
540.6319	641.211
540.793	655.7384
540.954	671.6944
541.1151	678.2913
541.2761	678.2474
541.4371	682.3467
541.5981	694.6708
541.7592	699.8502
541.9202	705.5365
542.0812	700.4066
542.2422	692.2454
542.4031	679.8459
542.5641	679.0766
542.7251	690.9183
542.886	681.5846
543.0471	672.8249
543.208	685.9643
543.369	675.6354
543.5298	672.6958
543.6908	682.1669
543.8517	698.1404
544.0126	711.0591
544.1736	714.2927
544.3345	697.7805
544.4954	688.4192
544.6563	667.7533
544.8171	671.1769
544.978	693.235
545.1389	718.9528
545.2997	710.9609
545.4606	683.8646
545.6215	681.4707
545.7823	685.0279
545.9432	706.3337
546.104	700.4458
546.2648	689.7908
546.4256	688.1819
546.5864	689.548
546.7473	701.2619
546.908	705.1443
547.0688	704.5801
547.2296	696.3312
547.3904	691.0815
547.5511	677.4843
547.7119	653.9744
547.8727	664.0482
548.0334	686.8865
548.1942	688.8589
548.3549	690.6938
548.5156	706.1935
548.6763	689.6074
548.837	691.8283
548.9977	698.9368
549.1584	712.9864
549.3192	706.9905
549.4798	708.5058
549.6405	697.4631
549.8011	696.0211
549.9619	697.6949
550.1225	687.8135
550.2831	688.2361
550.4438	695.6055
550.6044	699.0452
550.765	686.0171
550.9257	684.8769
551.0863	683.689
551.2469	677.6561
551.4075	678.0059
551.5681	686.9868
551.7287	692.9311
551.8893	698.1589
552.0498	698.0108
552.2104	698.2556
552.371	706.8603
552.5315	698.0493
552.6921	680.7685
552.8526	663.9966
553.0131	681.1066
553.1736	680.0986
553.3342	672.6948
553.4947	683.3537
553.6552	685.1439
553.8157	679.457
553.9762	690.3577
554.1367	691.7198
554.2971	697.9005
554.4576	698.263
554.618	686.4963
554.7785	689.3661
554.939	699.3137
555.0994	693.9465
555.2598	684.6075
555.4203	686.4241
555.5807	690.5554
555.7411	692.2059
555.9015	680.7994
556.0619	674.9194
556.2223	663.9207
556.3827	659.3374
556.5431	653.7442
556.7034	654.5021
556.8638	657.1228
557.0242	652.5925
557.1845	651.6132
557.3448	647.4623
557.5052	651.0419
557.6655	654.9199
557.8259	655.1228
557.9861	654.5799
558.1465	653.1838
558.3068	657.4351
558.467	660.8861
558.6274	636.1917
558.7877	617.9481
558.9479	612.8905
559.1082	615.3728
559.2684	630.9849
559.4287	638.8971
559.5889	640.8337
559.7491	639.4067
559.9094	626.9226
560.0696	622.4201
560.2299	619.7218
560.3901	624.0431
560.5502	634.6846
560.7104	650.1747
560.8707	666.6172
561.0308	671.074
561.191	660.7429
561.3511	651.6334
561.5114	615.8594
561.6714	607.2253
561.8316	621.2299
561.9918	631.3532
562.1519	638.8461
562.312	637.1097
562.4722	627.1687
562.6323	617.768
562.7924	635.444
562.9525	637.5302
563.1125	637.6667
563.2726	653.2308
563.4327	648.4719
563.5928	643.011
563.7528	629.2792
563.9129	629.9997
564.0729	616.5813
564.233	626.2992
564.393	627.396
564.553	622.2137
564.7131	635.0784
564.873	640.5087
565.0331	629.34
565.1931	629.9814
565.353	616.0917
565.5131	609.0082
565.673	601.5159
565.833	603.2505
565.9929	602.0983
566.1529	602.7966
566.3129	614.5113
566.4728	608.7779
566.6328	611.6209
566.7927	615.5769
566.9526	619.8356
567.1125	626.7765
567.2724	620.2315
567.4323	629.0754
567.5922	627.715
567.7521	623.9299
567.9119	620.1648
568.0718	615.3716
568.2317	603.3306
568.3915	608.3892
568.5514	604.9357
568.7112	597.8109
568.871	600.3167
569.0309	599.9774
569.1907	607.8327
569.3505	614.5677
569.5103	612.7394
569.6701	610.4892
569.8299	616.2043
569.9897	616.2583
570.1495	609.0934
570.3092	606.3251
570.469	601.799
570.6287	595.8103
570.7885	588.8092
570.9482	581.27
571.108	564.022
571.2677	581.9084
571.4274	597.9615
571.5871	608.9158
571.7468	600.9005
571.9066	605.7373
572.0662	614.6024
572.2259	619.8978
572.3856	620.9755
572.5452	622.9424
572.7049	628.9327
572.8646	626.2761
573.0242	604.4108
573.1838	609.3032
573.3435	609.7728
573.5031	618.0813
573.6627	622.8141
573.8223	613.9205
573.9819	605.4021
574.1415	617.4453
574.3011	618.4133
574.4607	616.0942
574.6203	609.5505
574.7798	605.6343
574.9394	598.0997
575.099	594.0647
575.2585	598.8674
575.418	587.0056
575.5776	586.1248
575.7371	583.4803
575.8966	592.7552
576.0562	595.9547
576.2156	590.5516
576.3751	592.9725
576.5346	595.0703
576.6941	601.4319
576.8536	597.8592
577.0131	604.6622
577.1725	595.2108
577.332	593.7456
577.4914	598.4993
577.6508	593.2894
577.8103	573.9052
577.9697	574.0652
578.1291	576.8472
578.2885	579.1901
578.4479	571.866
578.6073	574.121
578.7667	574.4343
578.9261	578.4028
579.0854	576.9756
579.2448	582.8919
579.4042	587.8093
579.5635	589.6541
579.7229	578.5616
579.8822	574.5583
580.0416	571.4423
580.2009	577.908
580.3602	572.0502
580.5195	569.2293
580.6788	572.0154
580.8381	567.5829
580.9974	569.5514
581.1566	571.5665
581.3159	567.5914
581.4752	568.5891
581.6345	568.6173
581.7937	566.3494
581.9529	572.0083
582.1122	566.6482
582.2714	571.461
582.4306	572.3632
582.5898	570.1604
582.749	566.1697
582.9082	561.6147
583.0674	564.7083
583.2266	564.2417
583.3857	559.1517
583.5449	559.1556
583.7041	571.9551
583.8633	559.0363
584.0224	560.2483
584.1815	568.383
584.3407	567.1647
584.4998	557.9798
584.6589	548.7701
584.818	553.1039
584.9771	559.4488
585.1362	554.8137
585.2953	555.2488
585.4544	539.1882
585.6135	534.6163
585.7725	527.007
585.9316	534.2227
586.0906	539.3677
586.2497	538.327
586.4087	540.2172
586.5677	537.5169
586.7267	546.0143
586.8858	544.2532
587.0448	533.7559
587.2038	535.1551
587.3628	542.9847
587.5218	542.0361
587.6807	541.9314
587.8397	522.45
587.9987	519.9138
588.1577	529.8456
588.3166	521.0181
588.4755	511.281
588.6345	505.0787
588.7934	491.3895
588.9523	478.1272
589.1112	467.4161
589.2701	462.2261
589.429	472.2192
589.5879	476.7155
589.7468	482.8676
589.9056	491.3768
590.0645	493.7565
590.2234	494.0551
590.3822	505.6341
590.5411	510.7192
590.6999	512.0068
590.8588	510.658
591.0176	510.0942
591.1764	508.6685
591.3352	512.6254
591.494	509.5974
591.6528	506.4508
591.8116	502.8169
591.9703	498.6405
592.1291	491.2777
592.2878	495.2341
592.4467	501.8901
592.6053	496.7554
592.7641	497.3737
592.9229	508.0449
593.0816	507.1524
593.2403	496.3834
593.399	496.8105
593.5577	502.6604
593.7164	509.1758
593.8751	515.2695
594.0338	499.1151
594.1924	492.3165
594.3511	506.4643
594.5098	490.6635
594.6684	484.8961
594.8271	487.2321
594.9857	488.9438
595.1443	495.4356
595.303	495.3933
595.4615	491.627
595.6202	497.1978
595.7787	501.3112
595.9374	505.7704
596.0959	505.9751
596.2545	497.8187
596.4131	506.7336
596.5717	512.7591
596.7302	513.3503
596.8887	510.6632
597.0473	504.3769
597.2058	497.3409
597.3644	500.8798
597.5229	496.987
597.6814	491.3184
597.8399	493.2228
597.9984	497.7655
598.1569	499.8867
598.3154	495.8715
598.4738	499.7099
598.6323	497.3715
598.7908	491.4114
598.9492	502.7698
599.1076	502.3488
599.2661	498.4121
599.4245	499.0336
599.5829	497.7576
599.7413	493.7084
599.8997	496.7863
600.0581	501.8291
600.2165	488.7542
600.3749	491.6233
600.5333	500.0205
600.6917	494.1903
600.85	486.3824
601.0084	490.4319
601.1667	489.0511
601.325	493.6657
601.4833	491.3999
601.6417	493.3179
601.8	496.5873
601.9583	482.334
602.1166	483.7938
602.2749	481.9367
602.4332	479.7234
602.5914	483.6449
602.7498	492.7299
602.908	499.0445
603.0662	498.7971
603.2245	495.6858
603.3828	495.1925
603.541	496.8558
603.6992	497.0001
603.8574	497.0679
604.0156	496.8899
604.1738	490.53
604.332	485.8376
604.4902	491.6274
604.6484	493.536
604.8065	494.3981
604.9647	502.2297
605.1229	496.3424
605.281	486.8112
605.4391	481.4365
605.5973	485.363
605.7554	492.0728
605.9135	495.7784
606.0717	486.5808
606.2297	482.9359
606.3878	485.1065
606.5459	477.9664
606.704	483.0679
606.8621	484.6899
607.0201	486.4568
607.1782	496.6197
607.3362	497.1119
607.4943	497.3549
607.6523	487.8731
607.8104	479.9124
607.9684	484.1674
608.1264	483.733
608.2844	483.5125
608.4424	474.1665
608.6003	473.3151
608.7584	477.3342
608.9163	468.0056
609.0743	464.4836
609.2322	464.6706
609.3902	469.7081
609.5482	469.7655
609.7061	470.2893
609.864	461.3756
610.0219	474.0672
610.1798	461.4015
610.3377	445.6938
610.4956	459.9637
610.6535	468.0181
610.8114	455.7439
610.9693	468.3997
611.1271	457.7372
611.285	460.5224
611.4429	472.954
611.6007	471.886
611.7585	459.6516
611.9164	461.6698
612.0742	456.1768
612.232	441.1843
612.3898	434.8636
612.5476	439.298
612.7054	452.6889
612.8632	452.4246
613.0209	460.9854
613.1787	460.2486
613.3365	445.8123
613.4942	444.0122
613.652	436.0311
613.8097	424.5767
613.9674	436.8409
614.1252	441.2314
614.2829	438.4134
614.4406	448.1342
614.5983	448.5571
614.756	451.4886
614.9136	446.3972
615.0714	448.5125
615.229	444.4511
615.3867	439.613
615.5443	445.5646
615.702	439.977
615.8596	427.7339
616.0172	431.5103
616.1748	425.0976
616.3325	412.4249
616.4901	416.4784
616.6476	427.7198
616.8052	425.9294
616.9628	431.6769
617.1204	420.2643
617.278	426.666
617.4355	430.6715
617.5931	435.4482
617.7506	433.5992
617.9081	436.6139
618.0657	433.9728
618.2232	435.5993
618.3807	434.0278
618.5382	432.1803
618.6957	432.1716
618.8532	432.0652
619.0107	425.8154
619.1682	419.185
619.3256	423.4827
619.4831	435.9239
619.6406	433.1741
619.798	425.3103
619.9554	427.9949
620.1129	435.8677
620.2703	428.4564
620.4277	429.7944
620.5851	421.5957
620.7425	426.9499
620.8998	427.3691
621.0573	428.9709
621.2146	422.6264
621.372	414.717
621.5294	418.6389
621.6867	425.2477
621.8441	421.9759
622.0013	412.5852
622.1587	419.234
622.316	417.5935
622.4733	420.5895
622.6306	415.7425
622.7879	414.8999
622.9452	418.3611
623.1025	401.7912
623.2598	403.3915
623.4171	411.3441
623.5743	413.6339
623.7316	410.468
623.8888	412.0158
624.046	404.3747
624.2032	410.1991
624.3605	412.8838
624.5176	401.3684
624.6749	404.0303
624.8321	404.2367
624.9893	404.1382
625.1464	404.8897
625.3036	406.4459
625.4608	396.5759
625.6179	397.7832
625.7751	395.1118
625.9322	397.9083
626.0894	408.7963
626.2465	408.8839
626.4036	405.8677
626.5607	407.9992
626.7178	405.7896
626.8749	414.4078
627.032	412.2662
627.189	411.9886
627.3461	412.8757
627.5032	405.8061
627.6602	392.5544
627.8173	384.5001
627.9743	378.8065
628.1313	386.5355
628.2884	387.5389
628.4454	393.0235
628.6024	392.4386
628.7594	397.8204
628.9164	400.9136
629.0734	402.7365
629.2303	392.7382
629.3873	391.8801
629.5443	393.4143
629.7012	386.0163
629.8582	390.2678
630.0151	395.4173
630.172	376.0186
630.3289	385.3583
630.4858	393.3134
630.6428	393.87
630.7996	395.3016
630.9565	393.8498
631.1134	391.3584
631.2703	389.2769
631.4272	387.92
631.584	379.2544
631.7408	376.3199
631.8977	390.2784
632.0546	382.1204
632.2114	377.185
632.3682	386.1961
632.525	399.09
632.6818	392.3135
632.8386	394.398
632.9954	397.1802
633.1522	388.9378
633.3089	392.6567
633.4657	387.919
633.6224	384.2691
633.7792	385.7888
633.9359	384.0951
634.0927	382.9348
634.2494	377.3017
634.4061	386.6194
634.5628	385.639
634.7195	388.4791
634.8762	387.0356
635.0329	393.3626
635.1895	387.9309
635.3462	385.0413
635.5029	382.5299
635.6595	385.1667
635.8162	383.3146
635.9728	380.8138
636.1295	377.0423
636.2861	373.6512
636.4427	371.6843
636.5992	378.4577
636.7559	386.9778
636.9124	389.9247
637.069	394.5574
637.2256	387.0468
637.3821	386.4266
637.5387	383.9938
637.6953	377.7386
637.8518	374.3504
638.0084	372.8908
638.1649	383.0124
638.3214	381.7944
638.4779	380.1992
638.6344	377.1492
638.7909	377.0297
638.9474	385.3447
639.1038	380.1071
639.2603	374.8163
639.4167	372.2066
639.5732	372.6913
639.7297	364.2799
639.8861	360.3841
640.0425	358.2914
640.199	371.2549
640.3553	373.9666
640.5118	369.5778
640.6682	369.1826
640.8245	362.5616
640.981	354.5328
641.1373	360.6548
641.2936	362.1735
641.45	365.6925
641.6064	355.4882
641.7627	361.0343
641.9191	358.8595
642.0754	355.7696
642.2317	345.651
642.388	356.311
642.5443	357.9716
642.7006	356.2269
642.8569	364.7323
643.0131	357.5565
643.1694	356.2937
643.3257	356.2157
643.4819	359.1868
643.6382	362.7899
643.7944	346.9038
643.9506	349.5871
644.1069	355.5671
644.2631	358.7823
644.4193	367.17
644.5754	357.8756
644.7316	352.6626
644.8878	351.9571
645.044	350.7409
645.2002	350.42
645.3563	352.4553
645.5125	350.3733
645.6686	349.7674
645.8248	340.432
645.9809	343.9484
646.137	343.1196
646.2931	344.3204
646.4492	339.0371
646.6053	336.7892
646.7614	346.4194
646.9174	337.4456
647.0735	338.1876
647.2296	337.4168
647.3856	339.9792
647.5417	333.4061
647.6977	328.206
647.8537	330.7709
648.0098	340.3434
648.1658	339.4896
648.3218	325.4627
648.4777	332.6732
648.6337	329.2351
648.7897	329.745
648.9457	334.6134
649.1016	333.1632
649.2576	323.8736
649.4135	314.7895
649.5695	307.5957
649.7254	308.3217
649.8813	322.3476
650.0372	324.6039
650.1932	336.143
650.3491	345.8655
650.5049	337.996
650.6608	335.6411
650.8167	334.2281
650.9725	331.2795
651.1284	326.6657
651.2842	329.2623
651.4401	328.2409
651.5959	322.3388
651.7518	316.4784
651.9076	313.4481
652.0634	318.1528
652.2192	327.13
652.3749	328.1878
652.5308	328.9277
652.6865	332.6659
652.8423	322.8585
652.998	322.0149
653.1538	324.8423
653.3096	318.5953
653.4653	320.5961
653.621	327.5331
653.7767	325.8001
653.9324	317.5562
654.0881	317.8054
654.2438	321.4693
654.3995	321.8885
654.5552	320.4761
654.7109	313.1167
654.8665	312.8406
655.0222	313.1228
655.1778	312.1746
655.3334	301.1565
655.4891	306.4884
655.6447	301.321
655.8003	293.1503
655.9559	281.8866
656.1115	267.6166
656.2671	246.4582
656.4227	250.8264
656.5782	263.096
656.7338	280.5688
656.8893	292.8754
657.0449	300.2702
657.2004	298.5011
657.356	299.9705
657.5115	309.2852
657.667	309.155
657.8225	309.175
657.978	311.3489
658.1335	317.6447
658.289	312.4673
658.4445	313.1703
658.5999	315.9968
658.7554	315.5317
658.9108	318.6166
659.0663	315.9356
659.2217	320.7396
659.3771	316.4846
659.5325	318.2783
659.6879	309.8433
659.8433	310.5166
659.9987	312.7018
660.1541	313.8832
660.3095	315.9662
660.4648	318.9593
660.6202	318.7287
660.7756	320.1318
660.9309	320.3571
661.0862	320.5964
661.2416	316.6563
661.3969	316.5817
661.5522	318.8281
661.7075	314.7356
661.8628	307.2126
662.0181	322.2253
662.1733	314.9796
662.3286	315.9236
662.4839	319.4964
662.6391	312.6812
662.7944	312.3054
662.9496	315.9635
663.1048	315.4947
663.26	311.7339
663.4152	310.1363
663.5704	316.3976
663.7256	317.5164
663.8808	312.304
664.036	310.4288
664.1912	314.7275
664.3463	312.6699
664.5015	312.1548
664.6566	311.1371
664.8118	314.9434
664.9669	313.9314
665.122	317.6529
665.2771	317.6685
665.4322	316.6846
665.5873	314.3326
665.7424	314.098
665.8975	312.649
666.0526	314.9956
666.2076	311.1552
666.3627	305.2529
666.5177	302.2943
666.6727	308.5506
666.8278	310.6117
666.9828	310.2401
667.1378	307.7136
667.2928	312.0708
667.4478	310.1369
667.6028	312.4065
667.7578	305.7429
667.9127	310.7049
668.0677	312.9931
668.2226	304.478
668.3776	305.9733
668.5325	307.7755
668.6874	303.7845
668.8423	306.3297
668.9973	308.2517
669.1522	306.783
669.3071	301.4151
669.4619	308.3057
669.6168	302.4821
669.7717	298.0082
669.9265	304.5791
670.0814	301.7333
670.2362	302.895
670.3911	304.0133
670.5459	307.477
670.7007	297.8171
670.8555	298.4146
671.0103	303.2208
671.1651	302.7602
671.3199	297.2643
671.4747	296.6687
671.6295	296.853
671.7842	295.8409
671.939	302.691
672.0937	293.334
672.2484	292.1285
672.4031	294.8291
672.5579	293.4214
672.7126	290.017
672.8673	298.9494
673.022	300.1967
673.1767	290.7087
673.3314	288.5848
673.486	296.4877
673.6407	301.6641
673.7953	295.4004
673.95	289.9282
674.1046	286.9765
674.2592	288.8921
674.4138	288.7089
674.5684	286.6214
674.723	286.3809
674.8776	281.1884
675.0322	290.1009
675.1868	286.344
675.3414	284.9405
675.4959	284.888
675.6505	285.6042
675.805	283.9462
675.9595	285.476
676.1141	286.3032
676.2686	284.1121
676.4231	286.5982
676.5776	283.642
676.7321	276.2881
676.8866	282.4164
677.041	282.8852
677.1955	278.8895
677.35	279.6044
677.5044	278.8994
677.6589	272.3103
677.8133	276.8339
677.9677	277.3587
678.1221	273.243
678.2766	276.943
678.4309	283.3773
678.5853	272.5204
678.7397	270.9769
678.8941	263.4169
679.0485	270.025
679.2028	270.3876
679.3571	267.5143
679.5115	273.7903
679.6658	272.3471
679.8201	268.2796
679.9744	264.5898
680.1288	262.8635
680.2831	264.1337
680.4373	271.1521
680.5916	270.6923
680.7459	263.3095
680.9001	266.911
681.0544	267.7058
681.2087	262.169
681.3629	261.8297
681.5171	267.8758
681.6713	258.9251
681.8256	252.6181
681.9797	258.3264
682.134	261.2195
682.2881	260.8095
682.4423	257.6911
682.5965	257.4189
682.7507	252.8708
682.9048	255.5223
683.059	255.1689
683.2131	253.9112
683.3672	259.922
683.5213	255.4204
683.6754	256.2923
683.8295	256.6646
683.9836	249.3953
684.1377	240.533
684.2918	239.7816
684.4459	246.2371
684.5999	253.5108
684.754	258.0499
684.908	252.9086
685.062	249.4233
685.2161	245.2609
685.3701	238.7055
685.5241	242.3227
685.6781	244.8458
685.8321	240.3679
685.9861	242.8622
686.14	241.6494
686.294	236.2033
686.4479	238.5846
686.6019	230.1833
686.7559	207.6355
686.9098	191.5717
687.0637	181.1847
687.2176	177.7646
687.3715	182.2003
687.5254	187.7753
687.6793	192.7316
687.8332	202.5156
687.9871	211.3298
688.1409	218.3288
688.2947	211.297
688.4486	215.3233
688.6024	216.0619
688.7563	213.0574
688.9101	218.2597
689.0639	204.2613
689.2177	206.1734
689.3715	208.4835
689.5253	201.8713
689.6791	204.5196
689.8328	201.6401
689.9866	207.7139
690.1403	210.0292
690.2941	212.0355
690.4478	207.2822
690.6015	206.6315
690.7552	216.924
690.9089	213.0773
691.0626	214.6583
691.2164	215.8312
691.37	217.3616
691.5237	223.0565
691.6774	220.4286
691.831	214.5572
691.9847	224.4057
692.1383	219.7945
692.2919	220.6782
692.4456	214.367
692.5992	217.9263
692.7527	215.7383
692.9064	215.8957
693.0599	215.157
693.2136	213.7689
693.3671	213.2492
693.5207	207.8853
693.6742	212.6306
693.8278	213.7231
693.9813	211.2599
694.1348	212.1284
694.2883	209.5724
694.4418	213.4734
694.5953	210.1586
694.7488	206.2804
694.9023	210.4881
695.0558	209.504
695.2093	211.0512
695.3627	214.1105
695.5162	204.717
695.6696	209.3325
695.8231	211.9443
695.9764	206.8328
696.1299	205.2869
696.2833	207.5842
696.4367	216.3337
696.5901	217.9772
696.7435	220.3921
696.8968	223.0794
697.0502	219.7334
697.2036	214.7203
697.3569	213.8822
697.5102	212.8538
697.6635	208.7948
697.8168	208.7777
697.9702	206.5111
698.1235	204.9828
698.2768	212.6878
698.4301	219.5961
698.5833	219.231
698.7366	205.1454
698.8898	200.247
699.0431	200.4323
699.1964	204.0406
699.3495	211.2586
699.5028	215.8132
699.656	216.5548
699.8092	215.4205
699.9624	204.9073
700.1156	205.9647
700.2688	209.086
700.4219	206.6493
700.5751	212.0218
700.7283	200.1248
700.8814	202.1324
701.0345	205.3114
701.1877	202.3354
701.3408	207.4763
701.4939	206.5086
701.647	201.1408
701.8001	204.3823
701.9532	199.0205
702.1063	205.5633
702.2593	201.2823
702.4124	205.6061
702.5654	200.2435
702.7184	189.8015
702.8715	193.8956
703.0245	204.5963
703.1776	205.9473
703.3305	203.0765
703.4835	205.4607
703.6365	204.753
703.7895	193.556
703.9424	202.3531
704.0954	205.5664
704.2484	205.3304
704.4013	207.0894
704.5543	204.7911
704.7072	203.0132
704.8601	208.0073
705.013	209.1213
705.1659	208.0749
705.3188	197.3797
705.4717	201.3964
705.6246	202.2206
705.7774	201.7978
705.9303	203.8739
706.0831	205.9937
706.236	206.6541
706.3888	202.8266
706.5416	198.5811
706.6944	201.1772
706.8472	201.6393
707	204.988
707.1528	208.6405
707.3056	204.4122
707.4583	209.3843
707.6111	205.7577
707.7639	205.6317
707.9166	201.9948
708.0693	202.3609
708.222	203.669
708.3748	199.1016
708.5275	204.7773
708.6802	203.2736
708.8328	202.9559
708.9855	199.3352
709.1382	203.0881
709.2909	199.5276
709.4435	202.6103
709.5962	197.7601
709.7488	199.7424
709.9014	199.041
710.054	195.7326
710.2067	196.4496
710.3593	192.1782
710.5118	197.2063
710.6644	200.1996
710.817	201.1189
710.9695	194.4075
711.1221	193.2013
711.2747	188.9579
711.4272	196.0158
711.5797	192.3218
711.7322	199.7682
711.8848	198.957
712.0373	200.2832
712.1898	199.3034
712.3422	191.0685
712.4948	193.2722
712.6472	196.6879
712.7996	195.3565
712.9521	196.8017
713.1046	194.5872
713.257	185.9186
713.4094	189.1398
713.5618	189.5548
713.7142	192.4825
713.8666	193.2716
714.019	193.4101
714.1714	190.9696
714.3237	194.6032
714.4761	188.5023
714.6285	192.0629
714.7808	184.953
714.9331	185.5914
715.0854	187.6873
715.2378	180.9779
715.3901	187.4159
715.5424	188.6006
715.6947	186.3238
715.8469	183.6254
715.9992	188.477
716.1515	174.3044
716.3037	176.8626
716.456	182.6434
716.6082	174.0725
716.7604	163.3289
716.9127	166.6704
717.0649	168.2719
717.2171	170.8146
717.3693	156.8165
717.5214	151.7683
717.6736	156.7323
717.8258	158.0781
717.978	159.3795
718.1301	161.4194
718.2822	159.4245
718.4344	152.1896
718.5865	142.1567
718.7386	141.4872
718.8907	150.002
719.0428	154.7958
719.1949	152.5507
719.3469	148.8516
719.499	146.2232
719.6511	149.9194
719.8031	144.1814
719.9551	151.0902
720.1072	146.8973
720.2592	146.3412
720.4112	151.8391
720.5632	150.1916
720.7152	155.3802
720.8672	154.8488
721.0192	155.7716
721.1711	169.8443
721.3231	167.9094
721.475	170.0547
721.627	174.8719
721.7789	170.1184
721.9308	174.8114
722.0828	176.8646
722.2347	169.7555
722.3866	165.5514
722.5385	164.0379
722.6903	162.9393
722.8422	169.6621
722.9941	167.2884
723.1459	161.5426
723.2977	155.695
723.4496	152.3481
723.6014	144.8501
723.7532	147.582
723.905	151.8124
724.0568	149.347
724.2086	151.5155
724.3604	150.4018
724.5121	149.2299
724.6639	145.9693
724.8157	153.4527
724.9674	158.208
725.1191	152.8908
725.2709	147.0114
725.4226	144.5722
725.5743	145.6912
725.726	151.1871
725.8777	151.6098
726.0294	152.3511
726.181	157.6133
726.3327	150.6577
726.4844	146.3292
726.636	148.4848
726.7877	148.078
726.9393	156.0519
727.0909	153.0534
727.2425	156.2709
727.3941	148.0324
727.5457	142.1756
727.6973	135.5371
727.8488	137.7634
728.0004	146.6017
728.1519	156.7523
728.3035	162.4022
728.455	158.6382
728.6066	162.4794
728.7581	158.639
728.9095	147.3545
729.0611	140.5163
729.2126	145.8585
729.364	145.0585
729.5155	152.9805
729.667	156.4552
729.8184	157.6193
729.9698	158.2635
730.1213	157.7428
730.2727	156.6211
730.4241	148.2023
730.5756	143.3462
730.7269	152.3654
730.8784	147.8052
731.0297	146.9947
731.1811	146.8497
731.3325	152.3451
731.4838	156.0129
731.6351	156.7983
731.7865	155.3969
731.9378	155.1495
732.0891	153.0583
732.2404	159.6501
732.3917	159.1598
732.543	157.0755
732.6943	152.8865
732.8456	155.0467
732.9968	163.848
733.1481	160.9808
733.2993	152.4932
733.4506	155.0467
733.6018	153.7208
733.753	161.8623
733.9042	170.0482
734.0554	167.1909
734.2066	159.1898
734.3578	166.3062
734.509	162.3926
734.6602	154.3311
734.8113	159.5122
734.9624	161.0886
735.1136	157.3559
735.2647	161.4456
735.4158	162.0152
735.5669	161.4309
735.718	153.5732
735.8691	156.6751
736.0201	159.1154
736.1713	157.8324
736.3223	156.5489
736.4733	163.1709
736.6244	159.9016
736.7755	152.9821
736.9265	155.231
737.0775	156.8211
737.2285	152.8876
737.3795	155.305
737.5305	154.3032
737.6815	157.1616
737.8324	157.6813
737.9834	157.4234
738.1343	155.0275
738.2853	159.8275
738.4362	155.0811
738.5871	153.582
738.738	151.7341
738.8889	150.363
739.0399	146.287
739.1907	147.8925
739.3416	152.3156
739.4925	152.4503
739.6433	158.0114
739.7942	161.3897
739.945	158.5137
740.0958	159.4346
740.2467	161.6897
740.3975	153.0624
740.5483	148.6403
740.6991	146.1056
740.8499	147.3506
741.0007	149.7944
741.1514	153.2551
741.3022	146.0821
741.4529	147.1739
741.6036	155.9478
741.7544	148.5547
741.9051	151.626
742.0558	150.0066
742.2065	155.6413
742.3572	154.3425
742.5079	152.3462
742.6586	153.696
742.8093	153.6769
742.9599	158.726
743.1105	150.6272
743.2612	152.312
743.4118	157.1143
743.5624	152.7574
743.7131	144.8356
743.8636	147.0268
744.0142	151.21
744.1648	150.1267
744.3154	146.9139
744.4659	148.5143
744.6165	146.4958
744.767	146.5556
744.9176	144.624
745.0681	148.0929
745.2186	150.503
745.3691	150.9389
745.5197	150.4872
745.6702	146.3701
745.8206	150.3059
745.9711	149.1444
746.1215	151.7674
746.272	147.5951
746.4224	147.5939
746.5729	140.5832
746.7233	147.5455
746.8737	152.7249
747.0241	147.0121
747.1745	144.7118
747.3249	141.3822
747.4753	141.593
747.6257	148.0061
747.776	143.468
747.9264	152.2469
748.0767	148.3805
748.2271	143.633
748.3774	145.9432
748.5276	146.6387
748.678	146.0562
748.8282	142.1771
748.9786	146.6633
749.1288	145.3644
749.2791	139.8744
749.4294	138.7312
749.5796	143.0066
749.7299	137.8377
749.8801	140.985
750.0303	136.1452
750.1805	138.814
750.3307	139.843
750.4809	139.086
750.6311	144.8348
750.7813	142.4498
750.9314	140.2882
751.0816	132.4871
751.2318	128.9688
751.3818	136.5233
751.532	141.1799
751.6821	139.7998
751.8322	137.3912
751.9823	139.7856
752.1324	143.1856
752.2825	135.3181
752.4326	136.7952
752.5826	135.388
752.7327	133.015
752.8827	133.1188
753.0327	131.4214
753.1827	130.1606
753.3328	136.0353
753.4828	137.2941
753.6328	131.8067
753.7828	137.1338
753.9327	134.2862
754.0827	131.3935
754.2327	131.4096
754.3826	138.1359
754.5325	136.3381
754.6825	130.003
754.8324	124.0267
754.9823	131.2105
755.1322	138.5645
755.2821	133.7168
755.432	129.8767
755.5818	133.3748
755.7318	129.9519
755.8816	135.3021
756.0314	127.8758
756.1813	126.8805
756.3311	123.4674
756.4809	124.0942
756.6307	128.0672
756.7805	128.551
756.9303	126.4808
757.0801	126.6451
757.2299	124.7795
757.3796	123.8189
757.5294	125.3998
757.6791	130.0937
757.8289	127.7203
757.9786	119.6215
758.1283	122.7848
758.278	123.1121
758.4277	121.8254
758.5773	120.4437
758.7271	125.0291
758.8767	121.0962
759.0264	119.4391
759.176	113.7025
759.3256	105.209
759.4753	93.22276
759.6249	77.59174
759.7745	67.51546
759.9241	64.12035
760.0737	62.45573
760.2233	50.10369
760.3729	46.69463
760.5224	49.50038
760.6719	46.69469
760.8215	47.03415
760.971	48.59226
761.1205	56.49249
761.2701	63.79918
761.4196	65.29427
761.5691	71.71992
761.7186	76.85104
761.868	91.86118
762.0175	95.29003
762.167	92.14766
762.3164	80.79189
762.4659	73.89626
762.6153	72.35679
762.7647	64.29911
762.9141	75.22072
763.0635	67.30513
763.2129	67.49409
763.3623	70.8381
763.5117	71.85625
763.661	66.87363
763.8104	67.95484
763.9597	71.72816
764.1091	76.03159
764.2584	75.8009
764.4077	74.43233
764.557	80.00178
764.7063	80.95046
764.8556	87.00151
765.0049	83.13357
765.1541	90.95692
765.3034	83.64536
765.4526	84.64821
765.6019	88.17472
765.7511	87.35995
765.9003	91.32961
766.0496	92.15736
766.1987	95.09673
766.348	99.96758
766.4971	96.87938
766.6463	96.06879
766.7955	105.3926
766.9446	99.04427
767.0938	103.9364
767.2429	100.4669
767.392	102.2901
767.5411	101.1495
767.6902	104.984
767.8394	106.9774
767.9884	98.93491
768.1375	97.26126
768.2866	100.2559
768.4356	107.2012
768.5847	105.7918
768.7337	99.11519
768.8828	102.7479
769.0317	97.88613
769.1808	101.582
769.3298	103.6475
769.4788	111.2769
769.6277	104.6978
769.7767	101.6612
769.9257	101.6823
770.0746	102.2877
770.2236	103.5437
770.3725	109.216
770.5214	104.5981
770.6703	106.6981
770.8193	106.155
770.9681	102.5152
771.1171	106.822
771.2659	107.6833
771.4148	99.55221
771.5637	101.474
771.7125	106.0475
771.8613	105.8156
772.0101	105.0306
772.159	99.00813
772.3078	98.35541
772.4566	104.5324
772.6054	104.2023
772.7542	107.2149
772.903	100.1927
773.0517	97.98151
773.2004	97.8267
773.3492	98.44038
773.4979	97.16918
773.6467	99.47919
773.7953	102.6878
773.944	99.51057
774.0928	99.33501
774.2415	102.2879
774.3901	103.5262
774.5388	98.60861
774.6874	96.2662
774.8361	95.53528
774.9847	96.66204
775.1334	98.84481
775.282	102.1023
775.4305	95.61644
775.5792	95.29513
775.7277	97.43844
775.8763	96.35237
776.0249	101.3321
776.1735	99.55857
776.322	96.7788
776.4705	94.78371
776.6191	93.65562
776.7676	91.72819
776.9161	97.7661
777.0646	97.72462
777.2131	98.5974
777.3616	99.13776
777.5101	95.23566
777.6585	94.24966
777.8069	96.66756
777.9554	96.85472
778.1038	92.1079
778.2523	86.06783
778.4007	94.63284
778.5491	92.8483
778.6974	92.97928
778.8459	97.42853
778.9942	97.64127
779.1426	99.31763
779.291	96.52901
779.4393	98.59068
779.5876	95.3547
779.736	91.93363
779.8843	91.27716
780.0326	88.36626
780.1809	94.03101
780.3292	94.79167
780.4775	91.54824
780.6257	90.38676
780.774	89.18586
780.9222	87.96273
781.0704	92.85934
781.2187	95.59758
781.3669	96.73194
781.5151	94.49644
781.6633	92.95636
781.8115	94.89603
781.9597	90.95507
782.1078	94.48364
782.256	90.47005
782.4042	89.82791
782.5523	94.87105
782.7004	96.01321
782.8486	94.40303
782.9967	92.57273
783.1448	88.75478
783.2929	93.36742
783.441	92.05197
783.5891	89.84503
783.7371	89.35406
783.8851	83.67413
784.0332	85.75894
784.1812	90.14626
784.3293	95.12468
784.4773	93.2484
784.6253	85.04562
784.7733	85.76885
784.9213	85.52786
785.0692	85.35324
785.2172	85.30461
785.3652	87.69995
785.5131	91.6666
785.6611	87.46597
785.809	89.99261
785.9569	89.3534
786.1048	90.39705
786.2527	87.58524
786.4006	86.49202
786.5485	82.0554
786.6964	79.69773
786.8442	80.54513
786.9921	79.64767
787.1399	82.90602
787.2877	88.09511
787.4355	82.96643
787.5833	85.24067
787.7311	86.09753
787.8789	84.77731
788.0267	82.86874
788.1745	84.37454
788.3223	87.37775
788.47	82.46133
788.6177	84.52401
788.7654	88.01592
788.9132	86.68452
789.0609	84.37962
789.2086	82.88423
789.3563	82.30194
789.504	78.86759
789.6517	78.76676
789.7993	81.0068
789.947	84.78014
790.0946	78.41808
790.2422	82.69877
790.3898	85.82994
790.5375	82.33297
790.6851	80.82864
790.8326	81.39216
790.9802	77.53178
791.1278	73.87881
791.2754	81.78121
791.423	74.54075
791.5705	77.16875
791.718	76.45985
791.8655	77.91886
792.0131	80.34708
792.1606	84.15058
792.308	79.61967
792.4556	76.12238
792.603	81.16914
792.7505	82.25948
792.8979	75.87087
793.0454	74.54173
793.1928	81.63037
793.3403	80.59734
793.4877	73.58665
793.6351	80.84172
793.7825	76.39577
793.9299	76.51734
794.0772	76.58405
794.2246	74.9351
794.3719	77.91464
794.5193	75.53419
794.6666	75.92819
794.814	79.01193
794.9613	78.97413
795.1086	77.07665
795.2559	72.85308
795.4032	74.6141
795.5505	75.38371
795.6978	79.7199
795.845	79.31499
795.9922	68.9945
796.1395	72.28902
796.2867	75.2942
796.4339	77.04523
796.5811	78.94119
796.7283	73.39284
796.8755	69.59914
797.0227	76.26938
797.1699	70.1541
797.317	76.05281
797.4642	81.67705
797.6113	73.37036
797.7584	73.7595
797.9056	79.03484
798.0527	75.66561
798.1998	74.5014
798.3469	76.48169
798.494	69.02499
798.641	70.72799
798.7881	71.81364
798.9351	75.55047
799.0822	75.90736
799.2292	78.10076
799.3762	75.19732
799.5232	66.8575
799.6702	76.52986
799.8172	74.37409
799.9642	69.01312
800.1111	67.39981
800.2581	71.82427
800.4051	76.71861
800.552	74.08064
800.6989	69.55723
800.8458	67.03455
800.9927	70.36731
801.1396	74.18402
801.2866	73.08037
801.4334	71.79635
801.5803	73.71957
801.7272	76.54123
801.874	75.63438
802.0209	74.94244
802.1677	66.08115
802.3145	68.81039
802.4613	72.31955
802.6081	69.23696
802.7549	64.4543
802.9017	72.32998
803.0485	71.669
803.1952	70.95202
803.342	73.48391
803.4887	70.41372
803.6354	66.93645
803.7822	69.63194
803.9289	69.604
804.0756	68.40135
804.2223	67.27966
804.369	70.47564
804.5156	67.82405
804.6623	66.07312
804.8089	68.25455
804.9556	67.94592
805.1022	69.63635
805.2488	64.87414
805.3954	66.52473
805.542	66.4132
805.6886	64.2532
805.8352	64.68032
805.9818	61.92855
806.1283	63.90172
806.2749	71.12283
806.4214	66.70794
806.5679	65.53426
806.7145	62.43248
806.861	66.35755
807.0074	69.71547
807.154	68.62592
807.3004	73.82932
807.4469	68.60329
807.5934	62.90314
807.7398	68.18279
807.8862	67.83899
808.0327	65.8743
808.1791	68.31991
808.3255	64.92429
808.4719	65.1065
808.6183	60.43942
808.7647	63.54586
808.9111	62.89137
809.0574	60.61868
809.2037	60.82249
809.3501	66.55102
809.4965	63.48563
809.6428	62.8134
809.7891	64.31884
809.9354	64.36706
810.0817	65.66578
810.2279	56.12429
810.3742	59.83001
810.5204	61.3737
810.6667	65.03878
810.8129	54.97614
810.9592	55.43202
811.1054	57.62144
811.2516	59.37968
811.3978	59.34483
811.5439	61.75832
811.6901	62.84187
811.8363	57.17236
811.9825	54.52317
812.1286	60.08215
812.2748	64.00814
812.4209	58.64835
812.567	62.81915
812.7131	61.79627
812.8592	55.04139
813.0053	55.93448
813.1514	59.91517
813.2974	60.20532
813.4435	57.1781
813.5895	54.81187
813.7356	57.67183
813.8816	57.31358
814.0276	59.83464
814.1736	56.64413
814.3196	50.56756
814.4656	52.7041
814.6116	54.751
814.7576	47.41924
814.9035	48.57899
815.0494	49.63784
815.1954	46.26798
815.3413	48.86562
815.4872	52.78994
815.6331	55.21741
815.779	57.14593
815.9249	53.74096
816.0707	51.96974
816.2166	46.88611
816.3625	43.45726
816.5083	44.35591
816.6542	52.61352
816.8	50.51854
816.9458	51.30732
817.0916	53.06643
817.2374	50.83655
817.3832	47.38647
817.5289	45.48303
817.6747	46.87785
817.8204	44.35551
817.9662	50.91405
818.1119	47.55054
818.2576	49.45482
818.4034	51.4711
818.5491	52.30242
818.6948	48.31338
818.8405	44.35534
818.9861	50.22194
819.1318	51.41515
819.2774	49.32503
819.423	46.48261
819.5687	40.92629
819.7143	44.45153
819.8599	49.49317
820.0055	48.08253
820.1511	47.7221
820.2967	52.47863
820.4422	60.04019
820.5878	57.79087
820.7333	54.8219
820.8788	55.90917
821.0244	53.11759
821.1699	52.61622
821.3154	53.21469
821.4609	47.18596
821.6064	43.12876
821.7519	48.24241
821.8973	49.41732
822.0428	45.81765
822.1882	47.21195
822.3337	45.13568
822.4791	44.15212
822.6245	35.83105
822.7699	35.60653
822.9153	35.63234
823.0607	41.1521
823.2061	39.00286
823.3514	41.82243
823.4968	45.52102
823.6422	45.98266
823.7875	42.63081
823.9328	47.10658
824.0781	48.52121
824.2234	52.24725
824.3687	47.77746
824.514	43.08965
824.6592	45.32877
824.8045	49.21776
824.9498	43.21035
825.095	40.46394
825.2402	48.7944
825.3854	48.42165
825.5306	46.44201
825.6758	47.15254
825.821	47.61813
825.9662	49.1211
826.1114	47.28874
826.2565	46.0292
826.4017	44.45934
826.5468	50.88092
826.692	47.41222
826.837	47.41672
826.9822	47.21155
827.1273	52.94615
827.2723	50.55092
827.4174	47.03421
827.5625	46.30315
827.7075	43.25843
827.8526	45.48522
827.9976	42.57889
828.1426	48.05418
828.2877	43.26179
828.4327	43.96193
828.5776	50.02849
828.7227	49.39652
828.8676	42.54413
829.0126	43.57143
829.1575	43.16378
829.3024	39.6629
829.4474	41.14727
829.5923	49.11556
829.7372	42.6832
829.8821	41.96028
830.027	43.79998
830.1719	45.68767
830.3168	42.4593
830.4616	43.12169
830.6064	42.13788
830.7513	41.50481
830.8961	47.19232
831.041	42.37366
831.1857	44.4927
831.3306	45.00471
831.4753	45.11943
831.6201	42.21348
831.7649	41.19415
831.9096	43.96288
832.0544	46.24437
832.1991	42.87723
832.3438	44.12543
832.4885	46.22438
832.6332	41.63161
832.778	40.30446
832.9226	41.10188
833.0673	38.61575
833.2119	44.27245
833.3566	39.81838
833.5012	42.61834
833.6459	44.81981
833.7905	47.59168
833.9351	48.37485
834.0797	45.90787
834.2243	42.96308
834.3688	45.73053
834.5134	43.60297
834.658	41.04192
834.8026	41.47655
834.9471	45.57315
835.0916	37.86419
835.2361	42.45045
835.3806	40.79953
835.5251	45.1532
835.6696	41.08893
835.8141	45.45839
835.9586	42.58175
836.103	42.36843
836.2474	42.80573
836.3918	46.41399
836.5363	42.1327
836.6807	45.51115
836.8251	46.60152
836.9695	46.07207
837.1138	50.73563
837.2582	48.01201
837.4026	46.28666
837.5469	44.12508
837.6913	43.38931
837.8356	47.28204
837.9799	43.58007
838.1242	41.81065
838.2686	41.88834
838.4128	44.10641
838.5571	44.43801
838.7014	41.6517
838.8456	40.9968
838.9899	45.3874
839.1341	43.81055
839.2783	45.00163
839.4225	42.96045
839.5667	43.65977
839.7109	42.04384
839.8551	43.70859
839.9993	40.2644
840.1434	40.67939
840.2876	42.3566
840.4317	40.44776
840.5759	45.53075
840.72	39.94118
840.8641	38.62292
841.0082	41.81729
841.1523	40.47225
841.2963	41.11864
841.4404	39.74397
841.5845	40.16832
841.7285	42.60739
841.8726	40.34067
842.0165	42.86213
842.1606	49.84522
842.3046	42.61124
842.4485	44.68273
842.5925	42.57755
842.7365	42.24317
842.8805	42.69946
843.0244	40.80371
843.1684	41.37013
843.3123	39.2867
843.4562	37.34978
843.6002	41.22271
843.744	42.00962
843.8879	45.55571
844.0318	47.77429
844.1757	44.51085
844.3195	41.64997
844.4634	42.88116
844.6072	38.43457
844.751	42.40393
844.8948	38.51131
845.0386	38.98451
845.1824	36.54282
845.3262	40.97338
845.47	41.29754
845.6138	41.46446
845.7575	42.09973
845.9012	39.74737
846.045	41.77225
846.1887	40.94719
846.3324	41.25019
846.4761	38.9387
846.6198	39.94098
846.7635	39.79222
846.9071	38.48975
847.0508	44.10128
847.1944	45.34038
847.3381	39.33477
847.4817	42.87594
847.6253	39.86168
847.7689	42.08489
847.9125	45.78142
848.0561	42.27258
848.1996	36.63298
848.3432	36.59977
848.4868	38.30915
848.6303	36.86704
848.7738	38.21448
848.9174	42.38309
849.0609	37.24466
849.2043	39.16046
849.3478	38.99923
849.4913	36.10074
849.6348	36.39248
849.7782	37.21152
849.9217	37.45934
850.0651	34.26054
850.2086	35.84178
850.3519	35.66824
850.4954	37.70153
850.6387	37.32362
850.7821	36.08938
850.9255	35.17792
851.0688	38.09238
851.2122	40.75401
851.3555	37.20842
851.4988	32.92713
851.6422	36.06565
851.7855	39.68066
851.9288	40.95315
852.0721	45.19124
852.2153	46.01106
852.3586	42.75466
852.5018	37.99801
852.6451	34.36777
852.7883	37.03678
852.9315	36.92779
853.0748	38.21288
853.218	36.56873
853.3611	35.8026
853.5043	33.01759
853.6475	37.02953
853.7906	31.52149
853.9338	27.50698
854.0769	33.43836
854.22	25.225
854.3632	26.43063
854.5063	30.94334
854.6494	32.68493
854.7924	34.55546
854.9355	33.93774
855.0786	36.87281
855.2216	35.10056
855.3647	37.60794
855.5077	35.5286
855.6507	38.00409
855.7937	34.30865
855.9367	39.45275
856.0797	39.29839
856.2227	39.75555
856.3657	33.44756
856.5086	33.37039
856.6516	36.57162
856.7945	32.78494
856.9374	29.31988
857.0803	28.09357
857.2232	35.55077
857.3661	33.81189
857.509	35.84232
857.6519	36.22995
857.7947	32.14643
857.9376	41.18116
858.0804	41.77185
858.2232	37.41321
858.366	36.09501
858.5089	39.47528
858.6516	38.85334
858.7944	39.26942
858.9372	32.63208
859.08	33.79668
859.2227	38.37833
859.3654	38.3368
859.5082	32.48895
859.6509	30.37868
859.7936	35.03824
859.9363	37.02353
860.079	34.34809
860.2217	35.5993
860.3643	30.39559
860.507	33.13824
860.6496	30.18539
860.7922	35.30674
860.9349	37.60232
861.0775	33.19677
861.2201	32.10246
861.3627	32.17281
861.5052	34.24669
861.6478	32.36153
861.7904	29.58861
861.9329	27.55401
862.0755	35.47241
862.218	32.32538
862.3605	35.7484
862.503	32.83038
862.6455	32.62445
862.788	32.7487
862.9305	34.13654
863.0729	35.89153
863.2154	37.01917
863.3578	37.0831
863.5002	30.26916
863.6426	28.11989
863.7851	31.57494
863.9275	31.15464
864.0698	33.61595
864.2122	34.86878
864.3546	36.68343
864.4969	33.32483
864.6393	28.61558
864.7816	30.87579
864.924	35.76494
865.0662	34.21875
865.2086	29.59243
865.3508	30.22561
865.4931	29.39905
865.6354	32.07491
865.7776	30.83019
865.9199	28.28426
866.0621	25.77334
866.2043	25.85359
866.3466	26.3251
866.4888	23.90981
866.6309	27.82616
866.7731	26.04741
866.9153	29.99891
867.0574	31.12583
867.1996	31.93438
867.3417	32.73247
867.4839	28.53486
867.626	27.46709
867.7681	32.09223
867.9102	33.96656
868.0522	27.18475
868.1943	26.87391
868.3364	30.43788
868.4785	32.91236
868.6205	32.338
868.7625	25.70835
868.9045	28.56866
869.0465	30.3343
869.1885	28.39885
869.3305	29.63813
869.4725	26.79941
869.6144	25.89368
869.7564	31.67538
869.8983	36.40877
870.0403	29.73175
870.1822	28.25795
870.3241	30.87289
870.466	29.35968
870.6079	31.91035
870.7498	30.45274
870.8916	26.7617
871.0335	31.01397
871.1754	26.00797
871.3171	27.82421
871.459	29.68078
871.6008	28.70989
871.7426	30.87922
871.8844	27.19453
872.0262	27.05734
872.1679	30.17469
872.3097	27.32972
872.4514	27.37774
872.5931	32.41805
872.7349	31.26956
872.8766	32.67048
873.0183	25.16587
873.16	24.57262
873.3017	24.85493
873.4434	32.99319
873.585	30.20909
873.7266	24.64218
873.8683	25.39292
874.0099	24.74769
874.1516	28.0438
874.2932	25.65161
874.4348	25.68434
874.5763	28.50373
874.7179	23.72562
874.8594	24.75597
875.001	25.79808
875.1425	27.42829
875.2841	26.88526
875.4256	25.5656
875.5671	27.46128
875.7086	29.07463
875.85	26.89011
875.9915	25.53034
876.133	31.75294
876.2744	31.5468
876.4159	26.94446
876.5573	23.38812
876.6987	31.42175
876.8401	30.56669
876.9815	27.90155
877.1229	27.73821
877.2643	25.62626
877.4056	21.33421
877.547	26.79892
877.6884	27.13178
877.8297	28.7016
877.971	26.71073
878.1123	28.86928
878.2536	31.85028
878.3949	25.10901
878.5362	29.39902
878.6774	29.54642
878.8187	26.85674
878.9599	24.75602
879.1011	26.89463
879.2424	25.36317
879.3836	28.93142
879.5248	25.80773
879.666	25.39802
879.8071	29.12671
879.9483	28.98322
880.0895	25.65595
880.2306	25.91705
880.3718	25.27358
880.5129	26.96257
880.654	27.67582
880.7951	26.86585
880.9362	25.00851
881.0773	23.26196
881.2183	28.81049
881.3594	32.342
881.5004	25.09914
881.6414	20.62538
881.7825	24.53592
881.9235	25.02062
882.0645	26.33391
882.2054	26.78632
882.3464	23.29519
882.4874	27.23241
882.6284	30.58036
882.7693	28.25031
882.9103	28.02826
883.0512	27.14123
883.1921	27.37555
883.333	28.90617
883.4739	28.40652
883.6147	25.79718
883.7556	27.82959
883.8965	27.6438
884.0374	26.91447
884.1782	26.48809
884.319	22.24459
884.4598	21.27705
884.6006	26.22459
884.7414	19.95197
884.8822	22.49668
885.0229	25.09784
885.1637	28.38046
885.3044	27.29964
885.4452	25.06486
885.5859	24.07773
885.7266	22.67892
885.8673	25.33045
886.008	25.51602
886.1487	22.36607
886.2894	24.3594
886.43	23.14362
886.5707	25.42878
886.7113	24.25005
886.8519	25.85439
886.9926	28.20268
887.1331	22.80952
887.2737	20.30515
887.4143	17.37068
887.5549	26.42473
887.6954	25.46074
887.836	17.74792
887.9765	22.96024
888.1171	26.52492
888.2576	30.93394
888.3981	29.48792
888.5386	25.65589
888.679	25.86983
888.8195	22.33502
888.96	22.17109
889.1004	26.4707
889.2408	22.96889
889.3813	24.17243
889.5217	24.82566
889.6621	25.77274
889.8025	23.40028
889.9429	21.22559
890.0833	23.38317
890.2236	20.34996
890.364	17.88845
890.5043	24.09846
890.6446	25.10471
890.7849	25.35035
890.9252	25.33849
891.0655	21.55125
891.2058	21.79395
891.3461	25.92096
891.4863	21.05355
891.6266	22.8598
891.7668	25.10468
891.907	22.9613
892.0472	20.29392
892.1874	23.75272
892.3276	20.62679
892.4678	23.52394
892.608	19.99399
892.7481	21.52355
892.8883	20.6202
893.0284	21.18992
893.1685	19.94976
893.3087	20.88794
893.4487	17.18439
893.5889	22.6958
893.7289	21.61183
893.869	19.32225
894.009	25.66719
894.1491	22.80205
894.2891	21.63555
894.4291	18.016
894.5692	21.51265
894.7092	24.76892
894.8491	20.64786
894.9891	19.2253
895.1291	19.45607
895.269	22.40113
895.409	24.1602
895.549	21.25657
895.6888	17.17869
895.8288	19.92073
895.9687	23.49281
896.1086	23.20447
896.2484	19.8097
896.3883	22.09325
896.5281	18.89409
896.668	20.31282
896.8079	13.73251
896.9476	16.46288
897.0875	17.06309
897.2272	20.4268
897.3671	17.38078
897.5068	20.36745
897.6466	20.72798
897.7864	20.08152
897.9261	23.54395
898.0658	15.89575
898.2056	21.08402
898.3453	19.98743
898.4849	19.16015
898.6246	21.70961
898.7643	20.90611
898.904	13.82789
899.0436	15.21684
899.1833	16.98716
899.3229	16.0797
899.4625	20.67864
899.6021	24.5857
899.7417	24.33322
899.8813	21.12651
900.0209	23.039
900.1605	19.95469
900.3	15.74464
900.4395	18.11302
900.579	13.68903
900.7186	18.92282
900.8581	23.0391
900.9976	20.72911
901.1371	18.08657
901.2766	16.90722
901.416	18.14229
901.5555	15.81586
901.6949	16.00726
901.8344	17.60572
901.9738	18.44064
902.1132	16.11732
902.2526	18.50393
902.3919	16.60946
902.5313	19.91788
902.6707	19.84823
