SPECTRUM DATA FILE
SpectrumCount:	1
PixelCount:	3648
UserName:	ToughBook User
SampleName:	
LightSource:	
Comments:	
DeviceName:	Qwave
DeviceManufacturer:	Broadcom
DeviceSerialNo:	11311

Name:	last spectrum
Date:	2024-05-02T14:35:26.0312825+02:00
ExposureTime:	0.02
TemporalAvg:	1
IntensityUnit:	normalizedCounts
CCDLoadLevel:	0.1515707
Temperature:	31.93027
DiagramColor:	200
ProcessingSteps:	335

Wavelength [nm]	Intensity1
334.421	38.59077
334.5891	39.38396
334.7573	37.35779
334.9254	45.65466
335.0935	40.68163
335.2616	36.55054
335.4297	32.0853
335.5978	39.15842
335.7659	35.48755
335.934	33.42128
336.1021	32.69448
336.2701	33.27496
336.4382	30.318
336.6063	30.47808
336.7744	27.08842
336.9424	30.72495
337.1105	33.85535
337.2785	35.18908
337.4466	37.98567
337.6146	37.44629
337.7827	39.02908
337.9507	39.51385
338.1187	35.68406
338.2867	34.80846
338.4548	37.23184
338.6228	38.37574
338.7908	35.59958
338.9588	34.441
339.1268	37.54657
339.2948	38.89918
339.4628	35.59005
339.6308	40.12978
339.7988	40.20146
339.9667	43.4207
340.1347	37.19679
340.3027	42.59078
340.4707	35.14172
340.6386	38.57022
340.8066	40.94685
340.9745	38.63112
341.1425	37.94825
341.3104	36.09047
341.4784	39.48545
341.6463	42.82394
341.8142	37.64085
341.9821	41.57502
342.1501	41.16695
342.318	42.52374
342.4859	39.88227
342.6538	40.10648
342.8217	42.41595
342.9896	45.06075
343.1575	40.6761
343.3254	45.19477
343.4933	41.19319
343.6612	40.51354
343.829	39.10066
343.9969	31.40265
344.1648	34.65908
344.3326	35.2522
344.5005	38.49771
344.6683	38.64355
344.8362	39.69965
345.004	42.46955
345.1719	42.96601
345.3397	43.91661
345.5075	41.12685
345.6754	42.45919
345.8432	41.7966
346.011	43.17337
346.1788	38.06087
346.3466	41.89397
346.5144	45.43421
346.6822	50.6011
346.85	44.9091
347.0178	43.96191
347.1856	45.46428
347.3534	40.05906
347.5211	42.6467
347.6889	37.25008
347.8567	38.25846
348.0244	40.22061
348.1922	43.56129
348.3599	43.78195
348.5277	44.9072
348.6954	42.82788
348.8632	44.58895
349.0309	43.734
349.1986	43.06196
349.3663	42.10599
349.5341	43.87247
349.7018	43.46869
349.8695	44.55103
350.0372	48.58615
350.2049	51.92295
350.3726	51.57125
350.5403	48.31827
350.7079	54.72003
350.8756	51.07682
351.0433	51.5194
351.211	47.25645
351.3786	44.77478
351.5463	47.00868
351.714	51.23185
351.8816	50.53915
352.0493	50.20726
352.2169	49.88997
352.3846	42.77734
352.5522	46.71291
352.7198	50.35778
352.8875	51.97553
353.0551	56.37082
353.2227	51.49723
353.3903	53.36691
353.5579	57.55439
353.7255	58.3227
353.8931	59.65027
354.0607	53.21671
354.2283	55.56408
354.3958	55.90899
354.5634	55.48001
354.731	57.34398
354.8986	56.22984
355.0661	56.64216
355.2337	53.4388
355.4012	49.79893
355.5688	55.58643
355.7363	54.29952
355.9039	56.34581
356.0714	59.96289
356.239	55.69735
356.4065	51.7587
356.574	47.42197
356.7415	46.02909
356.909	41.54385
357.0765	46.25791
357.244	53.02909
357.4115	48.89914
357.579	50.06378
357.7465	49.80027
357.914	49.51008
358.0815	43.15504
358.249	41.88739
358.4164	41.64133
358.5839	42.12024
358.7513	43.88523
358.9188	50.12626
359.0862	55.35847
359.2537	54.39476
359.4211	57.03205
359.5886	61.58189
359.756	63.55698
359.9234	61.13086
360.0909	60.26365
360.2583	58.34693
360.4257	57.76303
360.5931	57.59885
360.7605	49.6436
360.9279	49.68958
361.0953	53.84045
361.2627	58.71084
361.4301	55.83206
361.5974	57.07824
361.7648	56.56335
361.9322	52.24515
362.0995	58.74529
362.2669	62.18674
362.4343	64.9526
362.6016	70.49644
362.769	69.70001
362.9363	62.43068
363.1036	61.95846
363.271	55.62611
363.4383	56.3059
363.6056	67.48515
363.7729	70.8747
363.9402	72.02115
364.1075	64.72709
364.2748	69.82134
364.4421	65.21373
364.6094	65.3289
364.7767	66.68118
364.944	66.61483
365.1113	72.82939
365.2786	72.39922
365.4458	75.61967
365.6131	81.16168
365.7803	79.13847
365.9476	77.0879
366.1148	79.82816
366.2821	81.25487
366.4493	74.74866
366.6166	75.56419
366.7838	77.03436
366.951	75.15363
367.1182	77.24126
367.2855	78.0904
367.4527	79.17477
367.6199	76.98228
367.7871	71.24116
367.9543	73.86566
368.1215	73.71015
368.2886	72.10575
368.4558	72.08554
368.623	65.27187
368.7902	69.60561
368.9573	81.40895
369.1245	81.98051
369.2917	80.84343
369.4588	84.80688
369.6259	80.95264
369.7931	88.90567
369.9602	85.87274
370.1274	85.24042
370.2945	85.15568
370.4616	77.17606
370.6287	70.89522
370.7958	71.02595
370.963	79.72129
371.1301	86.00954
371.2971	91.66279
371.4643	90.70667
371.6313	90.71449
371.7984	82.49691
371.9655	79.01753
372.1326	69.97594
372.2997	77.98524
372.4667	84.15346
372.6338	90.25788
372.8008	90.07372
372.9679	77.80139
373.1349	81.19761
373.3019	72.18055
373.469	65.41895
373.636	70.46493
373.803	73.24273
373.9701	81.80421
374.1371	82.73734
374.3041	80.99953
374.4711	78.22398
374.6381	70.79264
374.8051	67.23357
374.9721	74.35709
375.1391	78.05089
375.3061	88.70298
375.473	96.98218
375.64	92.8504
375.8069	90.72055
375.9739	89.37168
376.1409	81.85342
376.3078	85.89552
376.4748	91.16895
376.6417	93.61075
376.8087	92.93781
376.9756	97.21629
377.1425	102.3288
377.3094	104.5258
377.4763	105.4803
377.6432	113.1347
377.8102	112.686
377.9771	115.5253
378.144	113.8789
378.3109	112.8889
378.4777	109.0408
378.6446	106.8291
378.8115	98.58006
378.9784	89.05318
379.1452	88.66415
379.3121	89.47054
379.4789	84.97908
379.6458	80.66938
379.8127	88.8582
379.9795	94.92171
380.1463	104.8669
380.3131	113.707
380.48	113.0199
380.6468	109.7256
380.8136	110.0895
380.9804	116.8075
381.1472	111.3822
381.314	101.8214
381.4808	95.65096
381.6476	88.70422
381.8144	86.8585
381.9812	89.26595
382.148	86.24049
382.3147	82.72746
382.4815	77.15189
382.6483	74.00295
382.815	79.51479
382.9818	81.84866
383.1485	71.8713
383.3153	73.9398
383.482	73.77857
383.6487	75.36898
383.8155	79.37162
383.9822	85.19118
384.1489	88.57504
384.3156	98.52993
384.4823	103.1753
384.649	113.3216
384.8157	111.5035
384.9824	107.5879
385.1491	108.1727
385.3158	105.5324
385.4825	100.2259
385.6491	96.64317
385.8158	92.82381
385.9825	103.061
386.1491	103.2325
386.3157	107.0021
386.4824	115.4251
386.649	111.7185
386.8157	106.3502
386.9823	98.73376
387.1489	95.30138
387.3156	103.2554
387.4821	110.1902
387.6488	113.4932
387.8154	112.6666
387.982	111.5029
388.1486	106.0587
388.3152	103.4735
388.4818	102.1754
388.6483	108.7485
388.8149	105.0038
388.9815	109.4571
389.148	120.4504
389.3146	128.0296
389.4811	133.2635
389.6477	133.4514
389.8142	127.7625
389.9808	127.0015
390.1473	126.4498
390.3138	121.899
390.4804	123.3012
390.6469	129.0032
390.8134	132.2781
390.9799	144.5992
391.1464	146.776
391.3129	142.2333
391.4794	144.6525
391.6459	139.1939
391.8124	136.3185
391.9789	136.3193
392.1453	124.4051
392.3118	119.6794
392.4782	120.1851
392.6447	114.797
392.8112	96.22871
392.9776	81.79461
393.144	71.28645
393.3105	61.3941
393.4769	64.71273
393.6433	73.95517
393.8098	85.21152
393.9762	104.9603
394.1426	114.3071
394.309	119.2933
394.4754	129.2688
394.6418	136.4726
394.8082	146.5321
394.9746	153.7159
395.141	154.9677
395.3073	157.667
395.4737	162.8422
395.64	160.6161
395.8064	149.5324
395.9728	143.8261
396.1391	133.4733
396.3055	115.8778
396.4718	99.62311
396.6381	91.23193
396.8045	76.56579
396.9708	74.39948
397.1371	83.05467
397.3034	110.2318
397.4697	130.4188
397.636	148.4993
397.8023	163.9739
397.9686	177.2022
398.1349	183.1205
398.3012	182.6312
398.4675	183.0148
398.6337	189.8918
398.8	191.3789
398.9662	190.6038
399.1325	198.9793
399.2988	202.1275
399.465	196.8816
399.6313	198.7058
399.7975	194.5127
399.9637	205.217
400.1299	207.502
400.2961	209.4496
400.4624	192.827
400.6286	194.5305
400.7948	204.247
400.961	219.205
401.1272	218.7239
401.2934	223.3691
401.4595	221.7989
401.6257	220.3649
401.7919	229.9521
401.9581	226.6181
402.1242	219.9101
402.2904	225.1358
402.4565	226.0725
402.6227	221.5339
402.7888	226.0533
402.955	216.8404
403.1211	205.638
403.2872	201.8465
403.4533	208.9548
403.6194	226.7625
403.7856	240.0197
403.9517	237.9065
404.1177	229.1062
404.2838	222.7742
404.4499	204.6617
404.616	202.9424
404.7821	210.5996
404.9482	230.8391
405.1142	237.3565
405.2803	229.1375
405.4464	230.4727
405.6124	224.5939
405.7784	222.6324
405.9445	227.0619
406.1105	226.3069
406.2766	218.0405
406.4426	212.6114
406.6086	220.8571
406.7746	239.4777
406.9406	231.5831
407.1066	231.6538
407.2726	238.6879
407.4386	233.1987
407.6046	233.7793
407.7706	231.4815
407.9366	230.5997
408.1025	251.0442
408.2685	257.2462
408.4344	255.9684
408.6004	261.0451
408.7664	271.3314
408.9323	269.6069
409.0983	271.8522
409.2642	269.7166
409.4301	270.6174
409.596	255.2622
409.762	238.0328
409.9279	222.0452
410.0938	214.6056
410.2597	213.2337
410.4256	230.008
410.5915	251.6507
410.7574	265.1429
410.9232	270.3509
411.0891	263.4429
411.255	277.5038
411.4209	283.3446
411.5867	282.189
411.7526	279.9157
411.9184	272.5807
412.0843	274.2779
412.2501	275.3643
412.4159	280.8638
412.5818	272.041
412.7476	269.4065
412.9134	270.5208
413.0792	270.2257
413.245	260.8252
413.4108	259.0547
413.5766	278.6688
413.7424	300.4877
413.9082	298.7425
414.074	290.6013
414.2397	270.3835
414.4055	259.5384
414.5713	265.9688
414.737	275.1171
414.9028	276.0072
415.0685	275.4164
415.2343	267.4828
415.4	269.8652
415.5658	267.5667
415.7315	273.4926
415.8972	291.9188
416.0629	304.1061
416.2286	306.8584
416.3943	306.3141
416.56	296.7253
416.7257	293.0758
416.8914	299.8023
417.0571	290.6065
417.2228	266.151
417.3884	261.7977
417.5541	272.0674
417.7198	281.7726
417.8854	282.8488
418.0511	294.0468
418.2167	293.6089
418.3824	286.2802
418.548	289.6359
418.7136	288.588
418.8792	282.9066
419.0449	298.5183
419.2105	315.8161
419.3761	311.7859
419.5417	299.8521
419.7073	295.3927
419.8729	284.7941
420.0385	279.9255
420.204	288.5393
420.3696	305.47
420.5352	318.4666
420.7007	329.9435
420.8663	332.1284
421.0319	333.9856
421.1974	330.9785
421.3629	328.5414
421.5285	327.0408
421.694	321.2822
421.8595	322.893
422.0251	330.1332
422.1906	330.5283
422.3561	314.994
422.5216	278.6712
422.6871	263.8013
422.8526	284.3492
423.0181	315.716
423.1835	332.8044
423.349	334.0281
423.5145	317.9409
423.68	314.5695
423.8454	312.6911
424.0109	318.7431
424.1763	331.3931
424.3418	340.8635
424.5072	338.1366
424.6726	334.95
424.838	312.683
425.0035	309.3324
425.1689	323.929
425.3343	328.6185
425.4997	336.4897
425.6651	345.4197
425.8305	327.6325
425.9959	318.6615
426.1613	324.4782
426.3267	333.3339
426.492	349.3545
426.6574	353.3756
426.8228	338.088
426.9881	310.8566
427.1534	283.0864
427.3188	275.2646
427.4841	292.4878
427.6495	325.073
427.8148	339.7324
427.9801	336.6284
428.1454	332.3622
428.3107	328.3134
428.476	330.8352
428.6414	317.5195
428.8066	308.8496
428.9719	307.2594
429.1372	307.7745
429.3025	314.3883
429.4678	318.3125
429.633	304.9507
429.7983	278.6568
429.9636	252.2806
430.1288	240.6804
430.294	245.8736
430.4593	252.1832
430.6245	244.4582
430.7897	233.2023
430.955	233.7616
431.1202	250.6028
431.2854	278.6592
431.4506	322.5128
431.6158	361.5989
431.781	387.8389
431.9462	403.0389
432.1114	376.7994
432.2766	339.4582
432.4417	306.348
432.6069	301.7482
432.772	341.9518
432.9372	377.8293
433.1024	381.6781
433.2675	397.3124
433.4326	397.0831
433.5977	374.3001
433.7629	339.7094
433.928	302.4979
434.0931	291.7585
434.2582	318.3173
434.4233	351.9807
434.5884	380.8697
434.7535	389.1076
434.9186	395.4397
435.0837	388.4707
435.2488	377.8942
435.4138	372.4722
435.5789	388.5969
435.744	401.2685
435.909	407.8958
436.0741	417.8142
436.2391	422.4023
436.4042	432.2578
436.5692	425.2653
436.7342	427.7413
436.8992	422.3654
437.0643	410.8647
437.2293	400.5462
437.3943	402.246
437.5593	401.1869
437.7243	403.007
437.8893	409.3194
438.0542	408.5359
438.2192	363.68
438.3842	331.1961
438.5491	335.2788
438.7141	370.6241
438.8791	393.3081
439.044	394.6069
439.209	393.3684
439.3739	405.7274
439.5388	411.4571
439.7037	425.2324
439.8687	428.2622
440.0336	423.4288
440.1985	407.458
440.3634	394.4487
440.5283	396.5547
440.6932	399.4925
440.8581	415.5556
441.0229	442.8544
441.1878	466.9902
441.3527	455.014
441.5175	428.1388
441.6824	423.8231
441.8472	446.9928
442.0121	476.7066
442.1769	473.9788
442.3418	456.3364
442.5066	455.3274
442.6714	459.2408
442.8362	463.9556
443.001	458.986
443.1659	449.0748
443.3307	440.8253
443.4955	432.4146
443.6602	450.6213
443.825	471.7934
443.9898	474.5024
444.1546	460.3269
444.3193	457.7782
444.4841	464.585
444.6488	476.6177
444.8136	493.5626
444.9783	492.2233
445.1431	488.716
445.3078	465.2031
445.4725	442.6053
445.6372	430.0927
445.802	433.9625
445.9667	436.2965
446.1314	441.3044
446.2961	457.6451
446.4608	470.1131
446.6255	469.6543
446.7901	464.0741
446.9548	471.7706
447.1195	490.1893
447.2841	506.9132
447.4488	517.0848
447.6134	517.7233
447.7781	518.8546
447.9427	499.5055
448.1074	476.231
448.272	481.4168
448.4366	506.2391
448.6012	523.6484
448.7658	520.5252
448.9305	507.1425
449.095	498.1342
449.2596	498.7775
449.4242	513.8743
449.5888	520.0151
449.7534	534.0318
449.9179	539.8099
450.0825	530.8462
450.2471	540.6326
450.4116	560.3705
450.5762	567.0067
450.7407	555.8647
450.9052	548.162
451.0698	565.4173
451.2343	561.1005
451.3988	546.5665
451.5633	532.1981
451.7278	537.7162
451.8923	541.6387
452.0568	552.0209
452.2213	548.9521
452.3858	532.0366
452.5503	521.2455
452.7148	501.7232
452.8792	484.2261
453.0437	486.7547
453.2081	498.8349
453.3726	504.7946
453.537	513.8387
453.7015	526.5985
453.8659	542.5186
454.0303	551.7506
454.1947	556.4405
454.3592	549.6794
454.5236	548.423
454.688	524.3351
454.8524	521.2457
455.0168	529.1848
455.1811	529.7476
455.3455	539.9855
455.5099	530.1597
455.6743	547.6051
455.8386	554.6976
456.003	564.7704
456.1673	560.4286
456.3317	551.7158
456.496	547.5805
456.6603	545.7183
456.8246	563.4899
456.989	563.4586
457.1533	559.4567
457.3176	555.374
457.4819	569.3962
457.6462	577.9711
457.8105	562.2232
457.9748	552.6437
458.1391	543.0764
458.3033	531.7171
458.4676	531.101
458.6319	548.6409
458.7961	561.6602
458.9604	567.236
459.1246	557.7169
459.2888	556.4838
459.4531	556.1682
459.6173	550.6114
459.7815	548.6544
459.9457	547.4717
460.11	551.7318
460.2741	547.7408
460.4384	558.0089
460.6025	562.541
460.7667	575.1315
460.9309	583.6671
461.0951	582.5605
461.2592	561.8091
461.4234	570.9766
461.5876	576.1761
461.7517	565.2751
461.9159	573.7054
462.08	573.7946
462.2441	574.7661
462.4082	586.6855
462.5724	575.6038
462.7365	579.4035
462.9006	582.5193
463.0647	579.8759
463.2288	582.8685
463.3929	581.0908
463.557	582.8351
463.721	581.751
463.8851	571.0433
464.0492	579.0596
464.2132	582.6279
464.3773	582.9198
464.5414	576.8624
464.7054	558.053
464.8694	550.8477
465.0334	564.6869
465.1975	580.1306
465.3615	578.7074
465.5255	574.6156
465.6895	577.567
465.8535	595.8842
466.0175	613.3456
466.1815	603.1115
466.3455	591.0586
466.5095	562.4998
466.6734	547.72
466.8374	548.804
467.0014	551.9743
467.1653	576.2775
467.3293	592.1801
467.4932	594.1444
467.6571	600.5739
467.8211	589.0641
467.985	587.0668
468.1489	585.8481
468.3128	592.7914
468.4767	604.0321
468.6406	601.0364
468.8045	608.303
468.9684	603.3922
469.1323	604.3115
469.2962	609.7894
469.46	616.6807
469.6239	609.374
469.7878	600.9948
469.9516	584.7241
470.1154	574.9774
470.2793	562.7149
470.4431	575.2709
470.607	577.312
470.7708	574.2123
470.9346	587.7833
471.0984	597.5321
471.2622	605.8135
471.426	592.2239
471.5898	601.6883
471.7536	617.7084
471.9174	633.7466
472.0811	628.5118
472.2449	635.8193
472.4087	635.6782
472.5724	632.6437
472.7362	607.5352
472.8999	582.681
473.0637	574.7651
473.2274	597.0136
473.3911	607.8719
473.5548	611.626
473.7185	608.555
473.8822	604.5543
474.0459	620.0909
474.2096	620.4174
474.3733	629.4376
474.537	627.5543
474.7007	627.4022
474.8643	631.1535
475.028	627.6367
475.1917	615.8112
475.3553	601.7652
475.519	597.9214
475.6826	594.7958
475.8463	618.6333
476.0099	618.772
476.1735	606.8574
476.3371	598.816
476.5007	586.9296
476.6643	590.3744
476.8279	607.3842
476.9915	612.0779
477.1551	613.6303
477.3187	623.2727
477.4823	633.074
477.6458	637.7596
477.8094	646.1675
477.9729	646.1105
478.1365	638.3377
478.3	621.1267
478.4636	611.2228
478.6271	608.6131
478.7906	600.7369
478.9541	611.0358
479.1176	617.7732
479.2812	623.2277
479.4447	637.5845
479.6082	646.1099
479.7716	639.0951
479.9351	611.5466
480.0986	616.5096
480.2621	621.2186
480.4255	630.5855
480.589	633.0657
480.7524	628.691
480.9159	619.3677
481.0793	623.9376
481.2428	618.8612
481.4062	627.4789
481.5696	637.1062
481.733	650.1643
481.8964	662.0416
482.0598	655.3135
482.2232	634.6959
482.3866	623.6215
482.55	625.968
482.7134	634.7161
482.8768	635.0208
483.0401	628.9659
483.2035	623.1896
483.3668	629.0754
483.5302	631.0952
483.6935	621.5017
483.8568	608.9579
484.0202	611.3158
484.1835	612.727
484.3468	612.0852
484.5101	621.2658
484.6734	618.2816
484.8367	633.4132
485	631.1351
485.1633	621.2263
485.3266	617.613
485.4899	592.0614
485.6531	570.077
485.8164	543.2741
485.9796	499.069
486.1429	466.89
486.3061	463.9591
486.4694	516.5815
486.6326	574.4617
486.7958	588.0679
486.959	582.8471
487.1223	580.2232
487.2855	571.1055
487.4486	584.7759
487.6118	600.0291
487.775	613.3339
487.9382	627.2069
488.1014	623.2563
488.2646	619.2891
488.4277	618.4946
488.5909	612.2859
488.754	591.4025
488.9171	581.402
489.0803	574.8148
489.2434	599.5244
489.4066	629.2329
489.5697	652.3633
489.7328	666.1833
489.8959	656.5661
490.059	648.5214
490.2221	646.5641
490.3852	643.048
490.5482	647.1467
490.7113	645.3199
490.8744	629.2721
491.0374	614.7766
491.2005	616.413
491.3636	627.3892
491.5266	652.0461
491.6896	628.4482
491.8527	589.0302
492.0157	574.1095
492.1787	566.8256
492.3417	586.473
492.5047	598.9132
492.6677	633.7722
492.8307	650.2636
492.9937	652.4451
493.1567	644.4762
493.3196	635.1099
493.4826	630.0865
493.6456	617.6253
493.8085	611.0551
493.9715	612.9028
494.1344	630.0967
494.2974	652.0394
494.4603	664.9955
494.6232	652.6708
494.7861	649.9142
494.949	668.0797
495.1119	662.7577
495.2748	649.2145
495.4377	649.7927
495.6006	620.2307
495.7635	598.8101
495.9264	614.1221
496.0892	636.2168
496.2521	662.5415
496.4149	656.1605
496.5778	642.6177
496.7407	635.4116
496.9035	643.0884
497.0663	643.8016
497.2291	655.1425
497.3919	663.0953
497.5547	676.1035
497.7176	663.7083
497.8804	647.2296
498.0432	630.8914
498.2059	610.2962
498.3687	584.7722
498.5315	593.1924
498.6942	632.1435
498.857	649.7957
499.0198	658.8043
499.1825	660.2686
499.3452	649.8666
499.508	650.7491
499.6707	659.1941
499.8334	655.2219
499.9962	638.3331
500.1589	628.8752
500.3216	620.1206
500.4843	616.1642
500.6469	601.2037
500.8096	609.5222
500.9723	641.2338
501.135	647.9762
501.2976	634.0215
501.4603	610.7849
501.623	614.1498
501.7856	606.1051
501.9482	619.4188
502.1109	628.4266
502.2735	634.2096
502.4361	639.9908
502.5987	647.3808
502.7614	640.9399
502.924	649.8788
503.0865	664.462
503.2491	668.1415
503.4117	658.3013
503.5743	649.484
503.7368	636.1122
503.8994	618.2225
504.062	594.3563
504.2245	596.9261
504.3871	640.0322
504.5496	677.478
504.7121	675.5886
504.8746	665.4823
505.0372	649.6184
505.1997	651.598
505.3622	670.9528
505.5247	671.9784
505.6872	679.7303
505.8497	686.5474
506.0121	704.1694
506.1746	701.0602
506.3371	687.1808
506.4995	673.189
506.662	673.0684
506.8244	665.0822
506.9869	663.9405
507.1493	661.9202
507.3117	664.8711
507.4742	664.179
507.6366	659.1995
507.799	648.3474
507.9614	641.5026
508.1238	635.5546
508.2862	639.2367
508.4485	658.2215
508.6109	678.0572
508.7733	685.1486
508.9357	680.3691
509.098	680.4228
509.2604	676.3212
509.4227	695.1441
509.5851	685.9163
509.7474	647.2717
509.9097	634.6717
510.072	643.3764
510.2343	652.6152
510.3966	662.9978
510.5589	662.668
510.7212	656.1707
510.8835	645.5103
511.0458	654.4565
511.2081	660.2607
511.3703	664.9683
511.5326	671.8979
511.6949	683.5206
511.8571	685.1461
512.0193	674.2301
512.1816	673.0859
512.3438	645.2136
512.506	626.556
512.6682	629.0211
512.8304	639.2625
512.9926	636.3978
513.1548	638.323
513.317	639.938
513.4792	634.6967
513.6414	635.8829
513.8035	623.6638
513.9657	612.4397
514.1279	612.9869
514.29	617.2202
514.4521	625.1214
514.6143	630.6066
514.7764	632.3517
514.9385	634.2463
515.1006	634.6241
515.2628	636.0661
515.4249	643.6887
515.587	639.2797
515.7491	630.2359
515.9111	643.494
516.0732	631.8228
516.2353	628.6774
516.3973	611.3942
516.5594	562.729
516.7214	529.6738
516.8835	505.9211
517.0455	510.8257
517.2076	516.5188
517.3696	515.7899
517.5316	568.7344
517.6937	625.6906
517.8557	643.9343
518.0176	626.8183
518.1796	575.7692
518.3416	521.2662
518.5036	524.4338
518.6656	566.0381
518.8275	606.0652
518.9895	615.4015
519.1514	614.4483
519.3134	612.8845
519.4753	612.1888
519.6373	632.3773
519.7992	643.0721
519.9611	649.1541
520.123	655.9427
520.2849	639.5305
520.4468	620.9657
520.6087	605.1713
520.7706	607.2083
520.9325	616.7695
521.0944	631.7958
521.2562	654.5558
521.4181	660.0137
521.58	652.7139
521.7418	634.1594
521.9036	639.0165
522.0655	655.6943
522.2273	666.0429
522.3891	653.6343
522.551	624.8837
522.7128	604.5288
522.8746	610.828
523.0363	633.804
523.1981	635.5419
523.3599	622.7677
523.5217	624.3785
523.6835	656.2982
523.8452	670.8198
524.007	670.79
524.1687	681.2843
524.3304	685.6017
524.4922	680.7895
524.6539	664.3047
524.8157	656.3322
524.9774	649.6395
525.1391	658.3804
525.3008	648.1271
525.4625	665.1208
525.6241	672.876
525.7858	678.353
525.9475	677.2701
526.1092	673.1083
526.2709	636.4086
526.4325	601.6995
526.5942	587.2498
526.7558	586.105
526.9174	585.9934
527.079	592.7197
527.2407	603.0125
527.4023	629.5923
527.5639	640.7
527.7255	651.9971
527.8871	668.4375
528.0487	674.3401
528.2103	644.636
528.3718	637.9388
528.5334	655.8276
528.695	674.4341
528.8565	695.4836
529.0181	700.5707
529.1796	710.1622
529.3412	695.3246
529.5027	680.387
529.6642	667.8469
529.8257	649.5916
529.9872	647.9578
530.1487	659.752
530.3102	667.6185
530.4717	675.7134
530.6332	681.7606
530.7947	681.4642
530.9562	685.9797
531.1176	696.8275
531.2791	699.5157
531.4405	691.6362
531.6019	675.4109
531.7634	667.3732
531.9248	667.6735
532.0862	679.5045
532.2477	658.8569
532.4091	640.0122
532.5704	624.0696
532.7319	604.6055
532.8932	605.1376
533.0546	608.942
533.216	645.1998
533.3774	669.2618
533.5388	670.596
533.7001	671.6023
533.8615	650.8068
534.0228	630.6105
534.1841	631.4165
534.3455	646.8632
534.5068	656.4815
534.6681	658.0264
534.8293	656.5602
534.9907	647.0808
535.152	655.4567
535.3132	663.3447
535.4745	675.3044
535.6358	674.0994
535.7971	672.8077
535.9583	672.572
536.1196	672.559
536.2808	657.5477
536.4421	640.9976
536.6033	636.7005
536.7645	621.9022
536.9258	608.261
537.087	606.2783
537.2482	617.3505
537.4094	631.3799
537.5706	641.6957
537.7318	650.6788
537.8929	646.6107
538.0541	638.2858
538.2153	639.9977
538.3764	638.7878
538.5376	632.1517
538.6987	645.0799
538.8599	644.6882
539.021	639.1906
539.1821	625.4833
539.3432	622.4807
539.5043	612.0148
539.6655	614.4816
539.8265	607.9928
539.9876	616.2568
540.1487	619.6772
540.3098	606.704
540.4708	597.3413
540.6319	588.3009
540.793	590.7758
540.954	601.163
541.1151	611.8526
541.2761	617.6912
541.4371	614.2128
541.5981	619.1077
541.7592	615.0662
541.9202	631.254
542.0812	633.5746
542.2422	615.3772
542.4031	604.4787
542.5641	611.6469
542.7251	620.4659
542.886	620.7005
543.0471	617.46
543.208	604.9665
543.369	616.9764
543.5298	603.7204
543.6908	614.8687
543.8517	633.0185
544.0126	638.574
544.1736	641.918
544.3345	638.8896
544.4954	619.701
544.6563	604.7907
544.8171	608.798
544.978	622.5005
545.1389	628.3869
545.2997	630.4675
545.4606	628.7657
545.6215	618.7889
545.7823	617.5341
545.9432	636.6425
546.104	632.6046
546.2648	620.0782
546.4256	620.6403
546.5864	621.8613
546.7473	625.3054
546.908	632.2576
547.0688	634.3514
547.2296	627.4183
547.3904	622.9703
547.5511	605.2283
547.7119	601.899
547.8727	603.0493
548.0334	601.7633
548.1942	603.1782
548.3549	612.2141
548.5156	626.0182
548.6763	639.4594
548.837	634.3994
548.9977	636.3173
549.1584	627.4883
549.3192	628.5784
549.4798	629.1768
549.6405	634.1953
549.8011	631.9177
549.9619	639.1658
550.1225	623.519
550.2831	618.4654
550.4438	617.3387
550.6044	604.6553
550.765	614.9018
550.9257	622.3681
551.0863	617.4693
551.2469	605.9978
551.4075	616.9567
551.5681	618.2249
551.7287	627.8644
551.8893	640.8787
552.0498	643.7457
552.2104	632.4197
552.371	622.437
552.5315	624.9974
552.6921	612.276
552.8526	594.6472
553.0131	598.7688
553.1736	620.9601
553.3342	617.6069
553.4947	609.8579
553.6552	614.8618
553.8157	616.6829
553.9762	618.8787
554.1367	621.1215
554.2971	611.2775
554.4576	626.853
554.618	625.9891
554.7785	620.4458
554.939	627.0033
555.0994	619.5126
555.2598	620.7618
555.4203	616.3741
555.5807	612.5483
555.7411	604.0156
555.9015	607.1138
556.0619	610.3226
556.2223	600.1466
556.3827	593.6486
556.5431	589.8558
556.7034	589.0002
556.8638	588.7292
557.0242	597.249
557.1845	589.719
557.3448	583.5142
557.5052	582.1335
557.6655	589.8276
557.8259	588.3524
557.9861	586.9329
558.1465	604.7874
558.3068	590.1779
558.467	583.4703
558.6274	567.5671
558.7877	560.0857
558.9479	563.7632
559.1082	562.8127
559.2684	569.932
559.4287	578.458
559.5889	583.1903
559.7491	570.3759
559.9094	560.7674
560.0696	558.5612
560.2299	563.0542
560.3901	577.8222
560.5502	588.7189
560.7104	598.1796
560.8707	592.8117
561.0308	598.4884
561.191	585.5016
561.3511	578.1949
561.5114	560.9427
561.6714	557.5174
561.8316	560.7264
561.9918	569.585
562.1519	573.3444
562.312	568.5986
562.4722	565.473
562.6323	574.8363
562.7924	583.6627
562.9525	579.4791
563.1125	570.8818
563.2726	573.6725
563.4327	574.994
563.5928	579.5355
563.7528	569.0681
563.9129	571.3054
564.0729	564.3458
564.233	566.6594
564.393	575.5431
564.553	575.9108
564.7131	577.6424
564.873	584.5345
565.0331	577.4169
565.1931	571.5126
565.353	566.8708
565.5131	562.4086
565.673	546.7388
565.833	547.2137
565.9929	546.7552
566.1529	540.0733
566.3129	544.9982
566.4728	550.3694
566.6328	555.3139
566.7927	555.5793
566.9526	560.7256
567.1125	565.3777
567.2724	566.5318
567.4323	562.9144
567.5922	564.7198
567.7521	559.8167
567.9119	550.5332
568.0718	547.9686
568.2317	552.621
568.3915	538.1465
568.5514	545.294
568.7112	538.3286
568.871	535.5182
569.0309	546.1108
569.1907	557.7727
569.3505	558.5101
569.5103	561.565
569.6701	550.0822
569.8299	546.519
569.9897	547.0225
570.1495	534.1617
570.3092	537.515
570.469	539.1896
570.6287	536.4535
570.7885	524.0227
570.9482	530.8815
571.108	516.0677
571.2677	522.6612
571.4274	529.7452
571.5871	542.675
571.7468	539.7631
571.9066	545.0911
572.0662	552.5302
572.2259	550.404
572.3856	563.8651
572.5452	560.3275
572.7049	540.8318
572.8646	543.3176
573.0242	546.088
573.1838	559.3718
573.3435	559.7564
573.5031	557.2346
573.6627	554.5701
573.8223	561.411
573.9819	550.6637
574.1415	560.0057
574.3011	554.9243
574.4607	548.5225
574.6203	542.1158
574.7798	544.9944
574.9394	543.6939
575.099	543.9184
575.2585	532.778
575.418	529.9812
575.5776	530.0638
575.7371	539.7584
575.8966	534.4609
576.0562	538.3114
576.2156	537.093
576.3751	537.465
576.5346	540.3092
576.6941	543.6876
576.8536	549.9383
577.0131	542.7586
577.1725	542.8687
577.332	550.754
577.4914	544.0544
577.6508	536.9609
577.8103	537.0444
577.9697	532.7986
578.1291	515.4039
578.2885	513.4523
578.4479	511.8457
578.6073	515.8741
578.7667	518.7289
578.9261	523.7122
579.0854	523.0337
579.2448	521.7921
579.4042	520.7541
579.5635	524.9433
579.7229	521.9424
579.8822	519.2034
580.0416	522.4857
580.2009	526.1845
580.3602	522.2405
580.5195	520.8804
580.6788	512.5545
580.8381	517.4012
580.9974	517.1537
581.1566	517.8629
581.3159	519.1363
581.4752	512.0491
581.6345	516.0314
581.7937	507.4884
581.9529	508.3115
582.1122	524.5211
582.2714	522.4507
582.4306	518.779
582.5898	516.3071
582.749	519.4494
582.9082	527.493
583.0674	516.384
583.2266	520.547
583.3857	520.5856
583.5449	511.9108
583.7041	509.2252
583.8633	506.9657
584.0224	505.5736
584.1815	509.0352
584.3407	516.699
584.4998	515.6705
584.6589	508.5526
584.818	500.0795
584.9771	492.4783
585.1362	501.5338
585.2953	491.2025
585.4544	488.6287
585.6135	486.2885
585.7725	482.1053
585.9316	478.3582
586.0906	484.7753
586.2497	493.3083
586.4087	491.5689
586.5677	494.5714
586.7267	494.0505
586.8858	490.709
587.0448	489.973
587.2038	484.8775
587.3628	489.9962
587.5218	487.2794
587.6807	486.2121
587.8397	485.1122
587.9987	482.0064
588.1577	477.4666
588.3166	468.8435
588.4755	462.1845
588.6345	459.9692
588.7934	457.8127
588.9523	430.2891
589.1112	422.9627
589.2701	428.3615
589.429	434.2853
589.5879	431.3972
589.7468	427.9359
589.9056	433.0414
590.0645	445.8113
590.2234	456.1278
590.3822	462.0532
590.5411	470.7143
590.6999	471.498
590.8588	461.84
591.0176	459.306
591.1764	454.853
591.3352	462.3644
591.494	464.6111
591.6528	460.3292
591.8116	445.7815
591.9703	451.0691
592.1291	457.5692
592.2878	463.2156
592.4467	456.9312
592.6053	455.1667
592.7641	459.4159
592.9229	455.1106
593.0816	458.8005
593.2403	453.7978
593.399	454.9901
593.5577	464.6626
593.7164	467.7686
593.8751	466.8904
594.0338	460.1855
594.1924	453.0113
594.3511	448.1032
594.5098	455.162
594.6684	454.716
594.8271	448.0529
594.9857	452.1568
595.1443	447.2714
595.303	453.8588
595.4615	453.7121
595.6202	446.769
595.7787	452.2072
595.9374	450.2465
596.0959	458.6504
596.2545	464.688
596.4131	459.707
596.5717	458.0192
596.7302	454.2503
596.8887	456.2252
597.0473	455.8552
597.2058	455.2963
597.3644	456.2307
597.5229	445.5679
597.6814	452.1863
597.8399	456.6699
597.9984	445.3453
598.1569	453.8011
598.3154	455.4487
598.4738	444.1096
598.6323	442.7996
598.7908	446.9519
598.9492	454.7971
599.1076	461.4417
599.2661	452.9404
599.4245	449.1256
599.5829	456.8652
599.7413	453.863
599.8997	446.4867
600.0581	447.8796
600.2165	448.6314
600.3749	447.7
600.5333	451.1185
600.6917	441.6237
600.85	438.4955
601.0084	441.8073
601.1667	451.0412
601.325	445.5066
601.4833	443.933
601.6417	444.183
601.8	440.9824
601.9583	444.6649
602.1166	438.4999
602.2749	443.7816
602.4332	441.8239
602.5914	451.0829
602.7498	448.3659
602.908	450.0588
603.0662	450.4791
603.2245	444.2144
603.3828	451.4897
603.541	457.6624
603.6992	459.4352
603.8574	455.9328
604.0156	454.0161
604.1738	454.205
604.332	450.0103
604.4902	454.5927
604.6484	446.5084
604.8065	450.6818
604.9647	447.0587
605.1229	445.4003
605.281	437.8058
605.4391	437.1243
605.5973	436.4962
605.7554	443.1117
605.9135	446.8924
606.0717	446.2381
606.2297	446.9885
606.3878	442.471
606.5459	442.0956
606.704	428.0956
606.8621	440.9406
607.0201	440.7705
607.1782	446.4293
607.3362	440.5847
607.4943	445.6572
607.6523	451.2744
607.8104	447.6111
607.9684	433.7202
608.1264	429.9688
608.2844	436.7895
608.4424	431.3716
608.6003	426.5174
608.7584	431.4431
608.9163	435.4493
609.0743	424.0286
609.2322	424.942
609.3902	430.1826
609.5482	425.6349
609.7061	429.3384
609.864	433.881
610.0219	422.0085
610.1798	417.7584
610.3377	419.928
610.4956	420.5093
610.6535	419.7458
610.8114	425.3773
610.9693	429.4915
611.1271	430.6094
611.285	426.1441
611.4429	427.0989
611.6007	425.7198
611.7585	419.1945
611.9164	425.1966
612.0742	417.4783
612.232	418.0482
612.3898	415.5437
612.5476	418.0201
612.7054	414.6653
612.8632	418.9006
613.0209	417.2638
613.1787	421.7448
613.3365	418.9566
613.4942	409.6116
613.652	407.3323
613.8097	395.7796
613.9674	400.8338
614.1252	413.2472
614.2829	413.271
614.4406	402.1661
614.5983	405.2435
614.756	410.0709
614.9136	416.9374
615.0714	415.4244
615.229	403.4238
615.3867	400.2934
615.5443	401.5166
615.702	400.9276
615.8596	408.6307
616.0172	395.9006
616.1748	386.5027
616.3325	377.5245
616.4901	382.5808
616.6476	390.6035
616.8052	394.3979
616.9628	393.257
617.1204	390.0447
617.278	392.6328
617.4355	390.2192
617.5931	394.8978
617.7506	395.427
617.9081	390.0351
618.0657	406.0275
618.2232	408.6401
618.3807	406.2981
618.5382	397.9753
618.6957	398.3516
618.8532	390.1276
619.0107	387.9402
619.1682	387.6335
619.3256	387.1044
619.4831	394.445
619.6406	393.0587
619.798	401.2868
619.9554	400.0837
620.1129	398.648
620.2703	394.4255
620.4277	385.6848
620.5851	392.1296
620.7425	400.1318
620.8998	395.0445
621.0573	389.0519
621.2146	393.5468
621.372	389.394
621.5294	385.1906
621.6867	385.1179
621.8441	382.0555
622.0013	383.1779
622.1587	379.11
622.316	385.3125
622.4733	390.4395
622.6306	392.1681
622.7879	381.4766
622.9452	378.3081
623.1025	375.1758
623.2598	382.329
623.4171	376.8758
623.5743	378.4261
623.7316	381.8871
623.8888	378.6254
624.046	377.2934
624.2032	378.7834
624.3605	381.1465
624.5176	374.7649
624.6749	370.9221
624.8321	374.5958
624.9893	377.5918
625.1464	380.3695
625.3036	367.2967
625.4608	359.42
625.6179	359.4533
625.7751	372.2011
625.9322	374.666
626.0894	366.9438
626.2465	376.9519
626.4036	379.5632
626.5607	384.3626
626.7178	380.845
626.8749	382.2056
627.032	386.9771
627.189	378.627
627.3461	374.1255
627.5032	364.7476
627.6602	356.9091
627.8173	352.2964
627.9743	353.6455
628.1313	355.8996
628.2884	357.4924
628.4454	363.8306
628.6024	371.8716
628.7594	372.2018
628.9164	376.6537
629.0734	372.1579
629.2303	366.8319
629.3873	375.0414
629.5443	371.2597
629.7012	355.2082
629.8582	358.9183
630.0151	350.828
630.172	352.4637
630.3289	350.0795
630.4858	361.309
630.6428	363.5458
630.7996	371.0158
630.9565	366.1175
631.1134	362.4442
631.2703	357.311
631.4272	359.29
631.584	356.9181
631.7408	359.9641
631.8977	351.3658
632.0546	355.5948
632.2114	349.9716
632.3682	357.1541
632.525	368.736
632.6818	363.8714
632.8386	367.7595
632.9954	368.6837
633.1522	357.7265
633.3089	359.2967
633.4657	358.9276
633.6224	351.618
633.7792	360.3578
633.9359	360.1501
634.0927	364.3536
634.2494	357.1988
634.4061	355.9872
634.5628	354.4271
634.7195	358.2055
634.8762	362.905
635.0329	357.2835
635.1895	358.8698
635.3462	362.0395
635.5029	352.2395
635.6595	354.902
635.8162	350.2404
635.9728	355.5953
636.1295	349.6267
636.2861	345.496
636.4427	349.1458
636.5992	359.6635
636.7559	360.6839
636.9124	356.082
637.069	360.7808
637.2256	357.1096
637.3821	353.4226
637.5387	357.9958
637.6953	352.7437
637.8518	350.4554
638.0084	353.4078
638.1649	349.6709
638.3214	348.5623
638.4779	343.6578
638.6344	342.0268
638.7909	350.0994
638.9474	354.4037
639.1038	352.0021
639.2603	347.1819
639.4167	341.1577
639.5732	339.8671
639.7297	344.5023
639.8861	344.7076
640.0425	337.7839
640.199	336.8995
640.3553	338.387
640.5118	335.6813
640.6682	336.354
640.8245	342.5471
640.981	338.619
641.1373	335.1867
641.2936	331.0639
641.45	335.6983
641.6064	334.2677
641.7627	326.5785
641.9191	330.4768
642.0754	337.5182
642.2317	337.1237
642.388	342.4076
642.5443	341.1048
642.7006	332.0078
642.8569	346.4544
643.0131	335.286
643.1694	344.5819
643.3257	338.8032
643.4819	342.4113
643.6382	337.8674
643.7944	324.3557
643.9506	327.7959
644.1069	331.1757
644.2631	330.6428
644.4193	333.4772
644.5754	336.7834
644.7316	337.3866
644.8878	324.4793
645.044	315.5508
645.2002	325.1249
645.3563	329.938
645.5125	329.7139
645.6686	324.4711
645.8248	318.3792
645.9809	325.1155
646.137	320.608
646.2931	317.894
646.4492	323.6496
646.6053	312.4646
646.7614	320.7693
646.9174	321.5793
647.0735	317.1754
647.2296	315.4571
647.3856	314.4831
647.5417	314.6552
647.6977	311.4695
647.8537	313.6448
648.0098	318.9784
648.1658	307.3264
648.3218	307.9279
648.4777	315.4428
648.6337	319.0134
648.7897	316.8661
648.9457	308.0913
649.1016	312.8185
649.2576	310.9403
649.4135	299.8483
649.5695	296.2993
649.7254	296.7901
649.8813	305.7858
650.0372	310.7602
650.1932	311.3944
650.3491	313.511
650.5049	323.6227
650.6608	314.6862
650.8167	313.2726
650.9725	317.2897
651.1284	317.6811
651.2842	310.4328
651.4401	299.2704
651.5959	300.1815
651.7518	307.8021
651.9076	302.1671
652.0634	301.4333
652.2192	304.8438
652.3749	309.4605
652.5308	312.7994
652.6865	306.097
652.8423	303.4568
652.998	305.8508
653.1538	303.2305
653.3096	303.7899
653.4653	302.0356
653.621	303.5954
653.7767	305.3483
653.9324	311.8726
654.0881	310.1913
654.2438	309.6869
654.3995	303.5945
654.5552	303.785
654.7109	294.1574
654.8665	296.8676
655.0222	295.1113
655.1778	293.5895
655.3334	283.6599
655.4891	283.6101
655.6447	282.5601
655.8003	281.5298
655.9559	271.7525
656.1115	249.6688
656.2671	238.9999
656.4227	235.234
656.5782	248.1522
656.7338	258.8062
656.8893	268.5924
657.0449	282.2723
657.2004	289.4948
657.356	286.2907
657.5115	280.5036
657.667	293.2457
657.8225	296.0569
657.978	294.0886
658.1335	288.6577
658.289	302.9048
658.4445	293.4987
658.5999	293.3792
658.7554	295.6501
658.9108	295.7509
659.0663	306.5658
659.2217	299.9981
659.3771	287.6641
659.5325	290.4605
659.6879	295.4937
659.8433	296.4062
659.9987	295.0097
660.1541	299.3925
660.3095	296.56
660.4648	305.9768
660.6202	293.8645
660.7756	304.1239
660.9309	302.886
661.0862	302.895
661.2416	305.0215
661.3969	293.3475
661.5522	289.9404
661.7075	296.6029
661.8628	303.0842
662.0181	297.4398
662.1733	295.2814
662.3286	294.2693
662.4839	297.2325
662.6391	299.2698
662.7944	301.5042
662.9496	297.2738
663.1048	291.1342
663.26	291.8537
663.4152	288.9002
663.5704	291.6493
663.7256	300.2458
663.8808	300.1774
664.036	290.8389
664.1912	287.2054
664.3463	287.3607
664.5015	295.2276
664.6566	296.5446
664.8118	298.5876
664.9669	296.5033
665.122	296.885
665.2771	292.7151
665.4322	292.3413
665.5873	299.2299
665.7424	290.6361
665.8975	290.1195
666.0526	284.5788
666.2076	287.1116
666.3627	287.0611
666.5177	282.3792
666.6727	286.1014
666.8278	290.9003
666.9828	291.81
667.1378	292.6979
667.2928	288.2997
667.4478	293.9291
667.6028	283.7459
667.7578	279.7996
667.9127	288.3528
668.0677	285.5787
668.2226	289.2555
668.3776	290.0729
668.5325	287.5573
668.6874	288.0019
668.8423	286.5212
668.9973	285.0063
669.1522	293.5037
669.3071	291.0807
669.4619	286.06
669.6168	286.5263
669.7717	283.0023
669.9265	283.8459
670.0814	281.4658
670.2362	287.2074
670.3911	290.6297
670.5459	289.4691
670.7007	285.3992
670.8555	282.249
671.0103	283.0288
671.1651	276.3348
671.3199	277.4078
671.4747	279.8199
671.6295	274.1484
671.7842	270.741
671.939	273.2475
672.0937	275.6019
672.2484	279.5695
672.4031	276.2667
672.5579	278.0917
672.7126	276.1009
672.8673	272.7773
673.022	274.4062
673.1767	273.6487
673.3314	271.8902
673.486	280.6807
673.6407	279.0186
673.7953	279.216
673.95	269.9421
674.1046	274.2817
674.2592	274.6494
674.4138	275.5496
674.5684	275.3333
674.723	277.2685
674.8776	269.722
675.0322	266.4308
675.1868	263.5752
675.3414	271.3627
675.4959	271.4487
675.6505	272.8544
675.805	271.0414
675.9595	269.0726
676.1141	263.9902
676.2686	260.005
676.4231	270.8282
676.5776	264.0813
676.7321	270.0235
676.8866	261.2946
677.041	262.7165
677.1955	267.5163
677.35	266.5713
677.5044	266.2286
677.6589	264.0493
677.8133	264.3213
677.9677	256.8355
678.1221	258.1012
678.2766	260.5769
678.4309	254.8031
678.5853	259.1692
678.7397	261.3331
678.8941	259.6951
679.0485	259.3485
679.2028	261.1122
679.3571	262.9838
679.5115	256.7893
679.6658	251.4255
679.8201	258.9391
679.9744	254.8067
680.1288	252.7798
680.2831	255.2528
680.4373	257.5954
680.5916	250.9794
680.7459	252.3831
680.9001	255.0374
681.0544	255.9205
681.2087	251.8097
681.3629	254.0479
681.5171	256.2139
681.6713	251.7716
681.8256	241.4204
681.9797	241.8646
682.134	246.3097
682.2881	249.2271
682.4423	243.1761
682.5965	250.7466
682.7507	249.6585
682.9048	233.6342
683.059	240.239
683.2131	246.0752
683.3672	245.2522
683.5213	243.2958
683.6754	238.1496
683.8295	243.4689
683.9836	237.8111
684.1377	232.1487
684.2918	235.7316
684.4459	238.2664
684.5999	232.6756
684.754	239.6265
684.908	245.7912
685.062	244.0677
685.2161	233.3986
685.3701	233.8773
685.5241	237.3264
685.6781	229.6214
685.8321	231.2503
685.9861	238.1698
686.14	230.3537
686.294	229.4451
686.4479	229.9825
686.6019	220.098
686.7559	202.1238
686.9098	187.1364
687.0637	179.0532
687.2176	174.9505
687.3715	176.2451
687.5254	186.3399
687.6793	190.3926
687.8332	195.7391
687.9871	202.5932
688.1409	211.3393
688.2947	212.8055
688.4486	215.6064
688.6024	210.9722
688.7563	205.2655
688.9101	203.2831
689.0639	207.3856
689.2177	202.5764
689.3715	208.5403
689.5253	208.6892
689.6791	208.7303
689.8328	204.3589
689.9866	201.8615
690.1403	207.0947
690.2941	202.33
690.4478	208.185
690.6015	207.3674
690.7552	208.1033
690.9089	208.3439
691.0626	208.1365
691.2164	209.8861
691.37	210.8137
691.5237	210.9339
691.6774	215.8006
691.831	216.1302
691.9847	209.5863
692.1383	208.4949
692.2919	205.7776
692.4456	205.3657
692.5992	204.2278
692.7527	203.345
692.9064	206.556
693.0599	208.2897
693.2136	207.6534
693.3671	205.0741
693.5207	205.0593
693.6742	205.116
693.8278	203.4821
693.9813	195.331
694.1348	208.0821
694.2883	201.4314
694.4418	199.9632
694.5953	199.944
694.7488	203.7941
694.9023	202.1984
695.0558	207.0392
695.2093	207.3599
695.3627	204.9309
695.5162	202.1276
695.6696	197.042
695.8231	206.8714
695.9764	209.8225
696.1299	201.3278
696.2833	209.6955
696.4367	212.4605
696.5901	210.412
696.7435	213.0796
696.8968	215.6221
697.0502	207.715
697.2036	207.6145
697.3569	212.6935
697.5102	206.654
697.6635	208.393
697.8168	203.0576
697.9702	202.093
698.1235	201.5844
698.2768	204.9817
698.4301	206.4105
698.5833	210.5007
698.7366	206.4938
698.8898	200.4428
699.0431	197.6492
699.1964	202.4626
699.3495	201.5836
699.5028	200.3108
699.656	210.5004
699.8092	200.9209
699.9624	198.5005
700.1156	205.6731
700.2688	206.7504
700.4219	201.626
700.5751	193.5068
700.7283	188.6898
700.8814	195.8389
701.0345	200.6991
701.1877	198.2956
701.3408	205.4105
701.4939	201.1565
701.647	196.3483
701.8001	188.4382
701.9532	197.279
702.1063	200.4164
702.2593	198.1026
702.4124	193.2809
702.5654	189.8278
702.7184	190.0789
702.8715	192.6901
703.0245	193.6757
703.1776	195.8448
703.3305	203.695
703.4835	202.2347
703.6365	203.6698
703.7895	199.0365
703.9424	193.2805
704.0954	195.3777
704.2484	205.3217
704.4013	207.0892
704.5543	204.532
704.7072	207.3449
704.8601	200.5442
705.013	195.577
705.1659	205.3219
705.3188	200.2974
705.4717	196.8868
705.6246	196.9016
705.7774	200.5273
705.9303	195.56
706.0831	195.8692
706.236	193.5074
706.3888	192.0958
706.5416	200.3023
706.6944	190.4245
706.8472	201.0549
707	199.6929
707.1528	197.382
707.3056	198.8667
707.4583	199.5623
707.6111	200.6179
707.7639	197.2083
707.9166	199.2528
708.0693	195.8759
708.222	198.8339
708.3748	198.3956
708.5275	199.7387
708.6802	192.2847
708.8328	194.7787
708.9855	195.5356
709.1382	193.1147
709.2909	198.3971
709.4435	193.7241
709.5962	199.7198
709.7488	193.5286
709.9014	186.7449
710.054	191.3391
710.2067	192.2198
710.3593	194.2143
710.5118	200.1341
710.6644	194.7256
710.817	186.0892
710.9695	190.2764
711.1221	190.6558
711.2747	194.3614
711.4272	193.9919
711.5797	195.0567
711.7322	192.9075
711.8848	196.1076
712.0373	190.434
712.1898	181.6645
712.3422	186.7186
712.4948	194.7398
712.6472	193.2396
712.7996	188.4474
712.9521	191.8472
713.1046	187.0927
713.257	185.9118
713.4094	184.6462
713.5618	196.3399
713.7142	193.081
713.8666	188.8253
714.019	187.7159
714.1714	185.6543
714.3237	186.0561
714.4761	187.1392
714.6285	186.0974
714.7808	183.9784
714.9331	174.8941
715.0854	179.8207
715.2378	181.6565
715.3901	179.1587
715.5424	181.0892
715.6947	185.571
715.8469	181.9826
715.9992	186.2888
716.1515	184.005
716.3037	184.183
716.456	179.6029
716.6082	165.8875
716.7604	162.5541
716.9127	165.9366
717.0649	164.2802
717.2171	164.3353
717.3693	161.8289
717.5214	160.6657
717.6736	160.7009
717.8258	158.7734
717.978	159.4811
718.1301	158.2772
718.2822	161.5365
718.4344	147.2793
718.5865	145.6197
718.7386	150.9124
718.8907	156.5215
719.0428	155.771
719.1949	156.5323
719.3469	150.1972
719.499	155.4933
719.6511	160.9818
719.8031	159.4294
719.9551	153.3588
720.1072	153.5172
720.2592	157.1134
720.4112	154.2675
720.5632	152.8196
720.7152	148.8175
720.8672	159.8816
721.0192	161.4355
721.1711	169.2049
721.3231	175.0495
721.475	178.5632
721.627	171.8989
721.7789	167.0458
721.9308	166.5361
722.0828	171.3091
722.2347	166.1165
722.3866	173.6502
722.5385	169.1726
722.6903	164.1793
722.8422	168.4694
722.9941	166.6996
723.1459	164.1784
723.2977	157.8312
723.4496	148.0338
723.6014	146.1743
723.7532	153.7809
723.905	156.8656
724.0568	159.2134
724.2086	152.5767
724.3604	141.9099
724.5121	149.0917
724.6639	149.1741
724.8157	152.5861
724.9674	156.6107
725.1191	150.4142
725.2709	145.2822
725.4226	149.7136
725.5743	153.1469
725.726	152.1898
725.8777	154.4237
726.0294	158.3605
726.181	160.4767
726.3327	155.6503
726.4844	147.6809
726.636	154.0735
726.7877	156.0568
726.9393	163.7976
727.0909	161.709
727.2425	154.2453
727.3941	146.8647
727.5457	145.2618
727.6973	141.5559
727.8488	147.8755
728.0004	147.3371
728.1519	150.669
728.3035	158.3967
728.455	157.3237
728.6066	157.1021
728.7581	154.5705
728.9095	148.8522
729.0611	142.8469
729.2126	146.1705
729.364	147.6133
729.5155	151.6728
729.667	149.4279
729.8184	153.3945
729.9698	151.8533
730.1213	152.7529
730.2727	144.2624
730.4241	146.2352
730.5756	151.7115
730.7269	151.4632
730.8784	149.0012
731.0297	147.1994
731.1811	142.7443
731.3325	152.4319
731.4838	154.5371
731.6351	158.3025
731.7865	152.6219
731.9378	152.7332
732.0891	153.394
732.2404	153.0298
732.3917	157.5369
732.543	155.3425
732.6943	148.7197
732.8456	158.2096
732.9968	157.5114
733.1481	161.0816
733.2993	158.6928
733.4506	161.0839
733.6018	161.9092
733.753	163.9979
733.9042	162.1158
734.0554	157.8392
734.2066	159.8904
734.3578	159.67
734.509	159.8457
734.6602	158.226
734.8113	155.8002
734.9624	150.5161
735.1136	157.2206
735.2647	160.1382
735.4158	157.507
735.5669	155.4239
735.718	157.0165
735.8691	161.3731
736.0201	162.3394
736.1713	153.6468
736.3223	154.5039
736.4733	155.7815
736.6244	155.9594
736.7755	152.0088
736.9265	157.7072
737.0775	147.1872
737.2285	155.4352
737.3795	157.6742
737.5305	154.2794
737.6815	159.1655
737.8324	158.2063
737.9834	158.0684
738.1343	153.9933
738.2853	150.4734
738.4362	155.4269
738.5871	148.4095
738.738	151.4379
738.8889	152.1509
739.0399	151.3559
739.1907	155.1203
739.3416	149.0953
739.4925	151.6911
739.6433	150.1585
739.7942	152.5489
739.945	154.5159
740.0958	151.7551
740.2467	154.1286
740.3975	154.2768
740.5483	149.0369
740.6991	153.6307
740.8499	149.835
741.0007	147.2041
741.1514	143.8731
741.3022	150.4978
741.4529	151.481
741.6036	145.674
741.7544	152.9437
741.9051	155.807
742.0558	150.1549
742.2065	151.5117
742.3572	148.7597
742.5079	149.6056
742.6586	146.7662
742.8093	160.0067
742.9599	151.9379
743.1105	155.7423
743.2612	153.2331
743.4118	149.697
743.5624	153.3304
743.7131	149.5478
743.8636	151.6926
744.0142	150.1195
744.1648	150.3099
744.3154	149.4553
744.4659	145.4319
744.6165	142.2952
744.767	145.6382
744.9176	146.253
745.0681	139.8924
745.2186	143.3224
745.3691	146.807
745.5197	154.6722
745.6702	157.4149
745.8206	153.4127
745.9711	149.6427
746.1215	148.7094
746.272	147.4395
746.4224	146.8825
746.5729	147.4905
746.7233	145.9535
746.8737	138.622
747.0241	143.6944
747.1745	146.7562
747.3249	144.4287
747.4753	142.3933
747.6257	145.408
747.776	148.8096
747.9264	146.2561
748.0767	143.2253
748.2271	141.0859
748.3774	142.2263
748.5276	143.4685
748.678	146.9656
748.8282	144.4588
748.9786	144.011
749.1288	140.9616
749.2791	139.2347
749.4294	134.1018
749.5796	141.4436
749.7299	137.5776
749.8801	137.3643
750.0303	142.452
750.1805	145.4344
750.3307	141.6898
750.4809	140.5379
750.6311	136.4555
750.7813	134.6229
750.9314	139.7886
751.0816	137.944
751.2318	133.828
751.3818	136.6892
751.532	137.9696
751.6821	135.5224
751.8322	133.973
751.9823	143.9266
752.1324	137.3783
752.2825	131.5008
752.4326	130.5716
752.5826	134.4693
752.7327	135.1643
752.8827	138.4362
753.0327	133.9288
753.1827	133.2597
753.3328	136.8493
753.4828	134.5519
753.6328	132.082
753.7828	137.9067
753.9327	133.2202
754.0827	133.6143
754.2327	133.716
754.3826	134.7899
754.5325	125.8644
754.6825	125.5398
754.8324	126.4981
754.9823	130.641
755.1322	134.146
755.2821	130.8127
755.432	127.1936
755.5818	126.7381
755.7318	128.8534
755.8816	124.0126
756.0314	127.2612
756.1813	125.958
756.3311	124.5924
756.4809	126.5458
756.6307	125.9213
756.7805	125.1005
756.9303	126.7082
757.0801	128.0072
757.2299	124.4497
757.3796	125.1368
757.5294	122.6661
757.6791	127.3996
757.8289	123.0919
757.9786	121.4094
758.1283	129.9052
758.278	124.5152
758.4277	122.8304
758.5773	120.4359
758.7271	126.5634
758.8767	120.9832
759.0264	117.9539
759.176	116.7403
759.3256	112.2791
759.4753	101.455
759.6249	86.2564
759.7745	71.36025
759.9241	69.76938
760.0737	65.42036
760.2233	65.76015
760.3729	59.55544
760.5224	57.34605
760.6719	56.08017
760.8215	59.40177
760.971	59.67119
761.1205	62.50808
761.2701	71.43104
761.4196	70.64087
761.5691	82.68468
761.7186	92.94024
761.868	96.97544
762.0175	94.65737
762.167	87.89294
762.3164	83.36838
762.4659	79.36551
762.6153	76.81265
762.7647	78.34838
762.9141	75.08854
763.0635	73.08221
763.2129	74.75117
763.3623	80.45815
763.5117	80.86879
763.661	78.10732
763.8104	77.77314
763.9597	74.33085
764.1091	78.39265
764.2584	83.17006
764.4077	77.50961
764.557	88.81385
764.7063	87.84788
764.8556	84.00868
765.0049	94.04632
765.1541	96.28644
765.3034	90.23544
765.4526	91.24608
765.6019	94.02822
765.7511	92.48208
765.9003	93.56334
766.0496	94.37424
766.1987	97.22454
766.348	98.58474
766.4971	102.7342
766.6463	97.22198
766.7955	101.0533
766.9446	101.4791
767.0938	101.2088
767.2429	99.16846
767.392	103.6267
767.5411	100.5214
767.6902	100.2938
767.8394	103.0221
767.9884	97.73389
768.1375	102.9208
768.2866	106.7573
768.4356	104.7016
768.5847	102.3752
768.7337	102.5786
768.8828	99.84959
769.0317	105.0002
769.1808	106.983
769.3298	104.6582
769.4788	109.1934
769.6277	105.5564
769.7767	103.4894
769.9257	103.4445
770.0746	103.7753
770.2236	102.5283
770.3725	103.3883
770.5214	109.4508
770.6703	108.4776
770.8193	105.8881
770.9681	103.3614
771.1171	110.7883
771.2659	103.8222
771.4148	104.5357
771.5637	94.52797
771.7125	104.383
771.8613	106.3251
772.0101	105.7484
772.159	101.763
772.3078	105.7429
772.4566	103.8571
772.6054	101.7078
772.7542	101.7056
772.903	101.4571
773.0517	104.7388
773.2004	105.5853
773.3492	103.1037
773.4979	101.0114
773.6467	100.6847
773.7953	100.5899
773.944	101.053
774.0928	100.1525
774.2415	99.66693
774.3901	96.61139
774.5388	99.6244
774.6874	100.42
774.8361	100.7135
774.9847	92.35638
775.1334	93.40045
775.282	106.8814
775.4305	103.2927
775.5792	95.78322
775.7277	94.73043
775.8763	92.73488
776.0249	101.0261
776.1735	101.889
776.322	92.69168
776.4705	102.4374
776.6191	105.1934
776.7676	95.53647
776.9161	95.45979
777.0646	96.54884
777.2131	102.8885
777.3616	91.97109
777.5101	93.33295
777.6585	99.32899
777.8069	102.0677
777.9554	98.88333
778.1038	97.70919
778.2523	95.01672
778.4007	97.64886
778.5491	96.98258
778.6974	95.05025
778.8459	99.33376
778.9942	98.53561
779.1426	96.70352
779.291	96.55711
779.4393	94.9378
779.5876	95.97491
779.736	97.59189
779.8843	95.68363
780.0326	93.44372
780.1809	94.59604
780.3292	97.18362
780.4775	98.32632
780.6257	96.57221
780.774	96.87159
780.9222	88.59286
781.0704	93.79221
781.2187	90.01605
781.3669	92.54966
781.5151	97.27898
781.6633	98.01339
781.8115	95.04444
781.9597	94.47063
782.1078	96.7803
782.256	95.80341
782.4042	93.65054
782.5523	96.41594
782.7004	94.78732
782.8486	93.67165
782.9967	93.65203
783.1448	92.8399
783.2929	90.40623
783.441	86.05346
783.5891	84.72993
783.7371	89.84331
783.8851	85.93302
784.0332	90.64449
784.1812	89.61343
784.3293	86.30236
784.4773	91.06415
784.6253	90.30759
784.7733	94.90627
784.9213	96.89474
785.0692	92.02208
785.2172	92.85721
785.3652	92.21559
785.5131	94.24326
785.6611	88.49041
785.809	85.00923
785.9569	85.13364
786.1048	89.7082
786.2527	88.18645
786.4006	90.85585
786.5485	86.47789
786.6964	84.45705
786.8442	89.2578
786.9921	84.77226
787.1399	86.82396
787.2877	93.02422
787.4355	86.13312
787.5833	86.69943
787.7311	84.65074
787.8789	85.91276
788.0267	82.57712
788.1745	88.1515
788.3223	86.29826
788.47	86.03906
788.6177	86.52917
788.7654	83.28415
788.9132	86.4464
789.0609	84.01255
789.2086	77.4874
789.3563	85.8227
789.504	84.36803
789.6517	83.31641
789.7993	82.49928
789.947	82.95223
790.0946	79.20288
790.2422	83.96216
790.3898	82.46297
790.5375	82.5916
790.6851	80.31394
790.8326	79.37478
790.9802	85.01871
791.1278	83.57436
791.2754	82.47731
791.423	82.19554
791.5705	80.83983
791.718	79.85072
791.8655	81.71089
792.0131	80.29157
792.1606	79.34284
792.308	79.62657
792.4556	79.43983
792.603	83.72922
792.7505	82.47736
792.8979	82.49162
793.0454	75.13981
793.1928	79.97859
793.3403	82.60543
793.4877	77.94885
793.6351	83.91796
793.7825	81.20863
793.9299	78.58076
794.0772	78.85432
794.2246	83.61931
794.3719	84.31194
794.5193	80.23996
794.6666	79.85463
794.814	80.33005
794.9613	76.56872
795.1086	78.75621
795.2559	75.8652
795.4032	77.91251
795.5505	76.80002
795.6978	72.5314
795.845	79.9463
795.9922	85.55744
796.1395	84.93349
796.2867	77.28382
796.4339	76.20551
796.5811	80.4315
796.7283	81.24199
796.8755	71.83947
797.0227	72.70351
797.1699	76.93581
797.317	81.00244
797.4642	79.98592
797.6113	77.00072
797.7584	75.05844
797.9056	77.06698
798.0527	79.01904
798.1998	75.24912
798.3469	76.55466
798.494	73.5717
798.641	73.21185
798.7881	73.16609
798.9351	71.09548
799.0822	70.64943
799.2292	72.59995
799.3762	76.07977
799.5232	74.56003
799.6702	75.91505
799.8172	73.95806
799.9642	76.43288
800.1111	73.5616
800.2581	75.92877
800.4051	75.94398
800.552	75.31243
800.6989	73.46265
800.8458	71.93534
800.9927	72.88353
801.1396	71.57146
801.2866	67.44794
801.4334	73.08747
801.5803	74.68454
801.7272	78.04276
801.874	69.18319
802.0209	73.13057
802.1677	65.60629
802.3145	66.07482
802.4613	71.04938
802.6081	68.01945
802.7549	69.81998
802.9017	70.85412
803.0485	78.79854
803.1952	77.16406
803.342	70.63635
803.4887	68.91759
803.6354	71.50151
803.7822	72.44302
803.9289	71.63042
804.0756	69.80495
804.2223	69.17626
804.369	70.34682
804.5156	71.45451
804.6623	71.13569
804.8089	68.43349
804.9556	66.33364
805.1022	66.46075
805.2488	64.07097
805.3954	71.51684
805.542	68.85412
805.6886	67.40568
805.8352	71.12708
805.9818	67.27358
806.1283	69.05145
806.2749	68.97443
806.4214	73.66824
806.5679	69.79489
806.7145	71.47359
806.861	69.68835
807.0074	64.54293
807.154	67.62849
807.3004	70.69225
807.4469	64.50533
807.5934	63.64041
807.7398	66.40465
807.8862	65.19423
808.0327	54.65734
808.1791	62.69175
808.3255	64.70811
808.4719	69.11817
808.6183	68.50395
808.7647	63.15286
808.9111	65.81743
809.0574	66.75205
809.2037	67.73924
809.3501	71.91401
809.4965	65.37592
809.6428	64.04462
809.7891	65.60861
809.9354	66.22052
810.0817	59.2941
810.2279	64.53806
810.3742	61.45352
810.5204	62.71906
810.6667	62.11673
810.8129	62.80634
810.9592	61.5214
811.1054	66.02934
811.2516	63.78815
811.3978	64.16802
811.5439	64.3572
811.6901	60.65477
811.8363	61.29377
811.9825	63.72025
812.1286	67.01153
812.2748	60.85072
812.4209	61.83097
812.567	63.14072
812.7131	63.49152
812.8592	59.27134
813.0053	58.55434
813.1514	57.78967
813.2974	54.66681
813.4435	54.25848
813.5895	50.77189
813.7356	56.36887
813.8816	53.46363
814.0276	54.84211
814.1736	58.82722
814.3196	56.18863
814.4656	56.89739
814.6116	56.04694
814.7576	51.36647
814.9035	50.56152
815.0494	55.90405
815.1954	55.5593
815.3413	54.31468
815.4872	54.75712
815.6331	48.36827
815.779	54.92791
815.9249	54.96916
816.0707	49.24527
816.2166	52.34996
816.3625	50.20197
816.5083	54.59137
816.6542	54.26024
816.8	49.30182
816.9458	49.86497
817.0916	54.62482
817.2374	55.16423
817.3832	60.85796
817.5289	59.09684
817.6747	52.09454
817.8204	47.84845
817.9662	46.91028
818.1119	50.63839
818.2576	49.41773
818.4034	56.48048
818.5491	51.96669
818.6948	49.53651
818.8405	48.46575
818.9861	48.31548
819.1318	51.57702
819.2774	54.39662
819.423	55.84796
819.5687	56.80831
819.7143	49.80009
819.8599	43.28785
820.0055	49.90259
820.1511	50.32324
820.2967	55.5238
820.4422	54.27585
820.5878	56.24666
820.7333	52.93867
820.8788	52.68055
821.0244	59.12803
821.1699	55.03932
821.3154	55.72995
821.4609	48.77067
821.6064	51.02436
821.7519	54.22556
821.8973	54.1214
822.0428	51.40958
822.1882	54.17934
822.3337	46.89257
822.4791	49.70729
822.6245	49.99856
822.7699	42.80396
822.9153	40.00687
823.0607	44.79262
823.2061	43.23875
823.3514	47.49424
823.4968	47.107
823.6422	48.79607
823.7875	49.02023
823.9328	54.21221
824.0781	53.3671
824.2234	50.86675
824.3687	46.3497
824.514	47.27732
824.6592	55.44641
824.8045	52.14541
824.9498	50.46609
825.095	58.29521
825.2402	51.94827
825.3854	52.28012
825.5306	53.04044
825.6758	44.14923
825.821	49.70378
825.9662	48.35002
826.1114	51.19579
826.2565	48.75308
826.4017	51.31398
826.5468	53.29652
826.692	54.9015
826.837	50.76408
826.9822	50.27515
827.1273	48.18375
827.2723	46.95012
827.4174	52.91525
827.5625	45.95901
827.7075	51.39395
827.8526	44.34615
827.9976	44.00703
828.1426	47.57711
828.2877	45.6991
828.4327	50.25119
828.5776	46.57177
828.7227	48.28107
828.8676	44.89975
829.0126	48.84342
829.1575	48.57651
829.3024	52.71588
829.4474	44.98893
829.5923	45.47923
829.7372	43.1584
829.8821	48.28791
830.027	53.56692
830.1719	46.3746
830.3168	43.83451
830.4616	45.25481
830.6064	44.77959
830.7513	48.80986
830.8961	49.97107
831.041	48.87271
831.1857	46.78211
831.3306	47.18967
831.4753	42.7269
831.6201	44.52224
831.7649	45.37183
831.9096	46.84681
832.0544	45.11898
832.1991	44.53802
832.3438	45.19319
832.4885	44.44345
832.6332	46.99586
832.778	48.10355
832.9226	43.88514
833.0673	46.24165
833.2119	47.28636
833.3566	50.82025
833.5012	47.45587
833.6459	47.25265
833.7905	42.53183
833.9351	38.04069
834.0797	45.88057
834.2243	48.22238
834.3688	49.3256
834.5134	44.40635
834.658	50.68367
834.8026	48.62862
834.9471	45.6776
835.0916	41.6063
835.2361	41.40353
835.3806	43.96972
835.5251	44.2115
835.6696	44.34922
835.8141	46.09928
835.9586	44.26231
836.103	44.51014
836.2474	45.02435
836.3918	43.05601
836.5363	46.2206
836.6807	49.35223
836.8251	47.20082
836.9695	43.39523
837.1138	51.34678
837.2582	47.4812
837.4026	44.36129
837.5469	42.07921
837.6913	45.38354
837.8356	44.868
837.9799	44.53167
838.1242	41.42906
838.2686	48.31019
838.4128	45.72168
838.5571	47.98541
838.7014	46.51712
838.8456	42.77577
838.9899	47.53057
839.1341	42.9194
839.2783	44.32541
839.4225	41.74492
839.5667	45.40373
839.7109	47.96369
839.8551	51.59036
839.9993	49.03626
840.1434	45.07259
840.2876	42.86412
840.4317	42.97688
840.5759	46.47794
840.72	46.86779
840.8641	47.21113
841.0082	44.14975
841.1523	44.29269
841.2963	42.9294
841.4404	44.63182
841.5845	44.30521
841.7285	44.96243
841.8726	44.8084
842.0165	39.1716
842.1606	43.26385
842.3046	43.17045
842.4485	43.23674
842.5925	45.52467
842.7365	47.07996
842.8805	44.1332
843.0244	43.39225
843.1684	42.05362
843.3123	42.01072
843.4562	43.0887
843.6002	44.9955
843.744	44.37181
843.8879	46.2342
844.0318	47.10354
844.1757	40.06509
844.3195	39.2543
844.4634	40.96096
844.6072	43.74587
844.751	39.53085
844.8948	40.89142
845.0386	42.92963
845.1824	42.41277
845.3262	44.24378
845.47	43.62048
845.6138	40.10412
845.7575	43.00984
845.9012	42.11932
846.045	40.55159
846.1887	44.1251
846.3324	43.44159
846.4761	40.2769
846.6198	42.29772
846.7635	42.46429
846.9071	41.82027
847.0508	35.6021
847.1944	39.95728
847.3381	44.83525
847.4817	42.83306
847.6253	44.37341
847.7689	41.8153
847.9125	39.895
848.0561	40.50907
848.1996	41.84773
848.3432	40.39222
848.4868	40.95971
848.6303	41.04297
848.7738	40.13087
848.9174	39.72135
849.0609	37.54927
849.2043	38.75766
849.3478	44.35538
849.4913	41.22491
849.6348	42.89411
849.7782	35.86034
849.9217	33.58493
850.0651	34.6066
850.2086	39.84805
850.3519	42.09073
850.4954	42.42123
850.6387	41.02172
850.7821	40.18637
850.9255	38.89292
851.0688	36.27165
851.2122	39.61822
851.3555	38.16653
851.4988	41.34632
851.6422	37.26332
851.7855	34.78632
851.9288	33.89677
852.0721	43.00561
852.2153	37.42665
852.3586	35.52702
852.5018	39.13224
852.6451	43.1387
852.7883	38.73336
852.9315	39.5592
853.0748	40.20496
853.218	38.63577
853.3611	40.67091
853.5043	37.14814
853.6475	36.1114
853.7906	38.77728
853.9338	38.08979
854.0769	34.63069
854.22	35.48923
854.3632	34.56147
854.5063	30.26361
854.6494	38.21485
854.7924	37.57187
854.9355	39.53578
855.0786	45.27599
855.2216	43.86856
855.3647	39.99876
855.5077	38.81492
855.6507	40.80762
855.7937	40.9015
855.9367	37.37659
856.0797	40.05647
856.2227	38.87113
856.3657	38.89153
856.5086	40.31282
856.6516	35.92476
856.7945	37.62118
856.9374	39.8238
857.0803	32.79622
857.2232	34.88412
857.3661	37.84018
857.509	38.2135
857.6519	32.88308
857.7947	35.70345
857.9376	40.47739
858.0804	40.51685
858.2232	36.72432
858.366	34.43747
858.5089	38.96514
858.6516	35.96616
858.7944	41.24867
858.9372	33.83982
859.08	34.09883
859.2227	32.6899
859.3654	34.17325
859.5082	36.36157
859.6509	31.56901
859.7936	32.39765
859.9363	32.39058
860.079	39.72057
860.2217	37.27575
860.3643	37.40577
860.507	38.13732
860.6496	34.93139
860.7922	38.76541
860.9349	38.87274
861.0775	36.59184
861.2201	34.01068
861.3627	34.99725
861.5052	33.72122
861.6478	33.10768
861.7904	35.40718
861.9329	34.52954
862.0755	36.11792
862.218	28.75098
862.3605	31.45228
862.503	32.33881
862.6455	38.20161
862.788	41.11778
862.9305	30.33185
863.0729	31.76904
863.2154	30.20229
863.3578	33.80033
863.5002	30.86928
863.6426	36.52112
863.7851	33.81667
863.9275	31.18596
864.0698	31.02525
864.2122	32.38782
864.3546	35.48195
864.4969	35.59303
864.6393	38.1554
864.7816	39.97318
864.924	33.70967
865.0662	33.617
865.2086	35.20108
865.3508	34.63466
865.4931	29.95638
865.6354	28.48783
865.7776	29.96452
865.9199	30.1797
866.0621	30.46732
866.2043	32.36113
866.3466	31.68324
866.4888	31.96889
866.6309	33.47707
866.7731	33.62085
866.9153	30.98117
867.0574	31.46197
867.1996	32.91601
867.3417	30.6882
867.4839	32.38988
867.626	32.6579
867.7681	35.23417
867.9102	36.02298
868.0522	33.52347
868.1943	30.35017
868.3364	34.01063
868.4785	38.02895
868.6205	35.51421
868.7625	34.13641
868.9045	30.90652
869.0465	29.68442
869.1885	31.55472
869.3305	37.80088
869.4725	32.1459
869.6144	32.44678
869.7564	33.57862
869.8983	32.97442
870.0403	32.12782
870.1822	32.08451
870.3241	34.46379
870.466	30.83425
870.6079	30.47433
870.7498	32.68403
870.8916	33.10115
871.0335	30.55149
871.1754	31.6626
871.3171	31.1999
871.459	34.37822
871.6008	30.49082
871.7426	31.03086
871.8844	30.40106
872.0262	28.18007
872.1679	28.1382
872.3097	26.027
872.4514	26.25415
872.5931	26.6388
872.7349	28.19357
872.8766	32.14085
873.0183	26.80388
873.16	26.85698
873.3017	29.21301
873.4434	33.47514
873.585	33.49833
873.7266	32.401
873.8683	31.66023
874.0099	27.39129
874.1516	24.90937
874.2932	28.93514
874.4348	29.17165
874.5763	32.71852
874.7179	31.27911
874.8594	26.80408
875.001	24.33053
875.1425	24.92732
875.2841	31.9391
875.4256	26.42235
875.5671	31.03833
875.7086	34.07506
875.85	28.32574
875.9915	29.20532
876.133	28.92599
876.2744	24.88595
876.4159	25.69115
876.5573	27.48934
876.6987	25.17883
876.8401	28.67656
876.9815	25.17096
877.1229	29.259
877.2643	28.6897
877.4056	28.89883
877.547	31.02167
877.6884	30.64065
877.8297	32.57581
877.971	30.37004
878.1123	31.64127
878.2536	26.41943
878.3949	27.29031
878.5362	31.12498
878.6774	31.24222
878.8187	35.953
878.9599	29.99812
879.1011	28.83844
879.2424	25.69788
879.3836	30.58456
879.5248	27.9304
879.666	27.11512
879.8071	34.91079
879.9483	26.81864
880.0895	23.05907
880.2306	27.0967
880.3718	27.99327
880.5129	30.02061
880.654	19.81186
880.7951	28.89919
880.9362	29.82692
881.0773	30.93451
881.2183	25.45781
881.3594	31.1156
881.5004	29.19561
881.6414	25.26981
881.7825	26.357
881.9235	26.08115
882.0645	27.90973
882.2054	24.63227
882.3464	29.81848
882.4874	24.85786
882.6284	28.89794
882.7693	31.07245
882.9103	27.33325
883.0512	30.32809
883.1921	26.42064
883.333	25.95935
883.4739	30.12519
883.6147	27.92184
883.7556	28.0792
883.8965	24.65167
884.0374	24.95339
884.1782	20.65762
884.319	23.34547
884.4598	26.24205
884.6006	27.80022
884.7414	24.74492
884.8822	26.4924
885.0229	25.17048
885.1637	25.98405
885.3044	29.28724
885.4452	28.99469
885.5859	25.09223
885.7266	25.3208
885.8673	23.01927
886.008	23.52055
886.1487	24.45405
886.2894	26.50979
886.43	25.16138
886.5707	25.02066
886.7113	22.7718
886.8519	19.58862
886.9926	27.19645
887.1331	22.62871
887.2737	27.24346
887.4143	24.33422
887.5549	28.47613
887.6954	30.79174
887.836	20.81566
887.9765	24.06398
888.1171	22.11291
888.2576	31.73501
888.3981	23.75173
888.5386	24.96416
888.679	27.19607
888.8195	26.58735
888.96	27.32835
889.1004	28.24588
889.2408	26.12188
889.3813	19.9118
889.5217	21.44053
889.6621	20.60948
889.8025	26.96704
889.9429	26.34464
890.0833	23.09341
890.2236	22.29828
890.364	25.01476
890.5043	30.04183
890.6446	24.95824
890.7849	25.46645
890.9252	29.59303
891.0655	28.75612
891.2058	26.53628
891.3461	27.69285
891.4863	21.22239
891.6266	25.47122
891.7668	22.80527
891.907	25.29669
892.0472	22.2765
892.1874	26.72889
892.3276	27.98665
892.4678	28.26577
892.608	21.14965
892.7481	22.15137
892.8883	28.54495
893.0284	27.23571
893.1685	20.39964
893.3087	24.71194
893.4487	21.38607
893.5889	22.97508
893.7289	23.96046
893.869	22.9792
894.009	20.19162
894.1491	20.02007
894.2891	20.20506
894.4291	21.63482
894.5692	21.19179
894.7092	23.66895
894.8491	23.45291
894.9891	20.88296
895.1291	21.3703
895.269	18.05925
895.409	23.11416
895.549	23.33256
895.6888	21.16553
895.8288	25.26929
895.9687	23.46523
896.1086	22.92521
896.2484	22.86221
896.3883	22.67719
896.5281	27.18803
896.668	24.57062
896.8079	19.12296
896.9476	22.53281
897.0875	23.81905
897.2272	17.09199
897.3671	17.33694
897.5068	17.62324
897.6466	18.56609
897.7864	22.91771
897.9261	22.73043
898.0658	28.3291
898.2056	22.65604
898.3453	20.09017
898.4849	16.91576
898.6246	19.38893
898.7643	15.83796
898.904	21.79885
899.0436	19.34055
899.1833	21.48013
899.3229	17.70731
899.4625	22.19246
899.6021	22.14575
899.7417	21.8087
899.8813	24.10824
900.0209	24.31366
900.1605	20.12451
900.3	19.01101
900.4395	21.60863
900.579	18.078
900.7186	18.63921
900.8581	20.48592
900.9976	20.39161
901.1371	18.76362
901.2766	16.14894
901.416	24.28238
901.5555	20.8446
901.6949	14.93897
901.8344	15.70458
901.9738	21.11217
902.1132	20.62171
902.2526	24.39201
902.3919	17.98147
902.5313	16.89492
902.6707	16.67234
