SPECTRUM DATA FILE
SpectrumCount:	1
PixelCount:	3648
UserName:	ToughBook User
SampleName:	
LightSource:	
Comments:	
DeviceName:	Qwave
DeviceManufacturer:	Broadcom
DeviceSerialNo:	11311

Name:	last spectrum
Date:	2024-05-02T14:34:02.0383811+02:00
ExposureTime:	0.02
TemporalAvg:	1
IntensityUnit:	normalizedCounts
CCDLoadLevel:	0.1702984
Temperature:	31.27585
DiagramColor:	200
ProcessingSteps:	335

Wavelength [nm]	Intensity1
334.421	38.87477
334.5891	35.79037
334.7573	38.51083
334.9254	42.16342
335.0935	44.27253
335.2616	41.70642
335.4297	38.27815
335.5978	37.26873
335.7659	35.87835
335.934	38.30894
336.1021	36.07773
336.2701	36.41402
336.4382	36.93813
336.6063	36.89494
336.7744	38.92057
336.9424	38.82616
337.1105	35.24819
337.2785	37.46146
337.4466	37.61394
337.6146	47.43976
337.7827	45.74334
337.9507	42.69616
338.1187	34.22349
338.2867	41.27506
338.4548	43.54594
338.6228	37.68245
338.7908	43.83877
338.9588	39.50895
339.1268	41.94714
339.2948	42.69843
339.4628	40.85939
339.6308	46.6109
339.7988	47.7116
339.9667	45.51918
340.1347	43.15871
340.3027	45.9578
340.4707	46.08082
340.6386	41.74003
340.8066	36.27436
340.9745	44.71327
341.1425	42.26525
341.3104	39.69002
341.4784	44.59614
341.6463	40.07607
341.8142	41.78984
341.9821	44.97332
342.1501	42.07756
342.318	48.57334
342.4859	48.22954
342.6538	50.33387
342.8217	51.1048
342.9896	51.46299
343.1575	52.78477
343.3254	47.85311
343.4933	48.40242
343.6612	43.20466
343.829	39.94259
343.9969	40.98941
344.1648	37.28189
344.3326	38.98148
344.5005	43.95189
344.6683	47.00227
344.8362	50.66139
345.004	46.37939
345.1719	52.37171
345.3397	48.85678
345.5075	47.80219
345.6754	47.56343
345.8432	45.05498
346.011	44.89942
346.1788	41.98861
346.3466	44.97655
346.5144	47.21743
346.6822	48.95692
346.85	52.05712
347.0178	49.12269
347.1856	47.55594
347.3534	43.50929
347.5211	46.18992
347.6889	47.34867
347.8567	49.07714
348.0244	51.32227
348.1922	45.2529
348.3599	45.51164
348.5277	45.48494
348.6954	48.94028
348.8632	46.05964
349.0309	41.79554
349.1986	46.7236
349.3663	45.6384
349.5341	49.55321
349.7018	56.16806
349.8695	58.71077
350.0372	55.17515
350.2049	58.62511
350.3726	57.69439
350.5403	55.70228
350.7079	53.6731
350.8756	51.56152
351.0433	55.14511
351.211	57.08816
351.3786	54.46685
351.5463	55.93974
351.714	58.46496
351.8816	55.28343
352.0493	55.80577
352.2169	50.56195
352.3846	49.19741
352.5522	48.35801
352.7198	51.59615
352.8875	62.55494
353.0551	64.45817
353.2227	59.13371
353.3903	58.53461
353.5579	59.39402
353.7255	59.60281
353.8931	62.95649
354.0607	67.51148
354.2283	66.12564
354.3958	64.25418
354.5634	65.25773
354.731	72.6805
354.8986	71.24751
355.0661	65.72318
355.2337	65.21953
355.4012	61.0187
355.5688	60.78807
355.7363	59.94387
355.9039	65.21843
356.0714	63.80773
356.239	59.29304
356.4065	57.96086
356.574	53.18033
356.7415	51.54664
356.909	50.39598
357.0765	52.33287
357.244	55.29005
357.4115	56.03416
357.579	58.94401
357.7465	53.22356
357.914	51.80846
358.0815	52.92267
358.249	45.26414
358.4164	43.83391
358.5839	42.99598
358.7513	47.90516
358.9188	53.80453
359.0862	59.43914
359.2537	63.93346
359.4211	64.96562
359.5886	69.4716
359.756	76.7291
359.9234	76.78349
360.0909	72.5052
360.2583	69.65382
360.4257	64.27649
360.5931	58.67312
360.7605	63.14489
360.9279	60.72813
361.0953	62.63806
361.2627	64.75932
361.4301	68.93903
361.5974	69.77631
361.7648	68.72598
361.9322	58.69197
362.0995	61.95868
362.2669	69.05653
362.4343	75.20004
362.6016	80.07745
362.769	77.6322
362.9363	75.05908
363.1036	66.62778
363.271	65.0655
363.4383	70.31531
363.6056	74.93638
363.7729	71.01107
363.9402	72.98124
364.1075	77.21574
364.2748	74.53506
364.4421	70.46988
364.6094	69.52369
364.7767	70.56995
364.944	74.00901
365.1113	80.57772
365.2786	82.13435
365.4458	83.00533
365.6131	88.35655
365.7803	87.50607
365.9476	89.81561
366.1148	90.98682
366.2821	88.36033
366.4493	86.90192
366.6166	86.46535
366.7838	84.77679
366.951	84.15298
367.1182	81.85065
367.2855	85.09733
367.4527	83.10826
367.6199	86.80325
367.7871	80.87844
367.9543	77.91083
368.1215	78.09324
368.2886	80.48465
368.4558	78.92739
368.623	77.72063
368.7902	81.62752
368.9573	85.8746
369.1245	91.40531
369.2917	97.70648
369.4588	90.14149
369.6259	91.23848
369.7931	95.90831
369.9602	104.9148
370.1274	97.79911
370.2945	88.09959
370.4616	84.56948
370.6287	83.49917
370.7958	84.04563
370.963	93.05448
371.1301	93.8861
371.2971	103.2493
371.4643	103.1716
371.6313	103.7467
371.7984	98.92516
371.9655	82.72972
372.1326	78.01651
372.2997	84.77258
372.4667	91.0881
372.6338	95.31529
372.8008	97.16252
372.9679	93.28272
373.1349	86.83015
373.3019	79.11584
373.469	68.91093
373.636	72.65147
373.803	80.63264
373.9701	92.21316
374.1371	99.2764
374.3041	92.34032
374.4711	82.31049
374.6381	74.21766
374.8051	73.48423
374.9721	80.05903
375.1391	89.6974
375.3061	108.2682
375.473	110.4039
375.64	106.4467
375.8069	91.51852
375.9739	94.58543
376.1409	98.91276
376.3078	104.4094
376.4748	106.8013
376.6417	103.1568
376.8087	105.9274
376.9756	108.4706
377.1425	114.459
377.3094	118.2925
377.4763	127.8308
377.6432	126.8407
377.8102	126.2244
377.9771	126.184
378.144	129.6127
378.3109	124.8587
378.4777	123.378
378.6446	117.2865
378.8115	107.8179
378.9784	102.5118
379.1452	105.8239
379.3121	108.0328
379.4789	103.8555
379.6458	98.41864
379.8127	102.2521
379.9795	102.5571
380.1463	115.9344
380.3131	123.9729
380.48	121.8179
380.6468	128.0103
380.8136	128.2957
380.9804	126.4166
381.1472	125.5338
381.314	111.6716
381.4808	106.4615
381.6476	103.4086
381.8144	99.80283
381.9812	98.96214
382.148	101.2896
382.3147	96.29727
382.4815	87.64417
382.6483	82.71912
382.815	84.44337
382.9818	86.53506
383.1485	81.25435
383.3153	82.16492
383.482	76.70072
383.6487	81.24767
383.8155	84.20406
383.9822	89.42957
384.1489	102.8124
384.3156	114.1087
384.4823	125.1964
384.649	127.9352
384.8157	125.4615
384.9824	123.7567
385.1491	125.694
385.3158	123.2929
385.4825	126.2521
385.6491	117.6048
385.8158	100.8672
385.9825	102.3977
386.1491	111.0354
386.3157	123.723
386.4824	133.9288
386.649	128.467
386.8157	118.1786
386.9823	109.4003
387.1489	112.3901
387.3156	121.676
387.4821	134.5448
387.6488	133.3413
387.8154	118.2707
387.982	118.2723
388.1486	117.8134
388.3152	117.0166
388.4818	112.7273
388.6483	121.3615
388.8149	122.5733
388.9815	126.2602
389.148	138.9924
389.3146	147.7129
389.4811	150.0419
389.6477	156.0052
389.8142	147.7166
389.9808	145.4297
390.1473	154.1815
390.3138	145.1073
390.4804	137.594
390.6469	146.2158
390.8134	156.9664
390.9799	160.9189
391.1464	167.1966
391.3129	166.5483
391.4794	170.9698
391.6459	166.3222
391.8124	154.4133
391.9789	142.2758
392.1453	144.1573
392.3118	145.3322
392.4782	135.1674
392.6447	122.7729
392.8112	104.6438
392.9776	90.7534
393.144	75.1851
393.3105	64.44792
393.4769	74.52063
393.6433	83.82388
393.8098	98.59291
393.9762	116.9034
394.1426	129.5927
394.309	132.6342
394.4754	144.5985
394.6418	167.7903
394.8082	172.0059
394.9746	171.3915
395.141	181.2893
395.3073	182.2347
395.4737	182.1922
395.64	182.2788
395.8064	174.4027
395.9728	165.3742
396.1391	144.133
396.3055	125.4862
396.4718	106.2122
396.6381	91.89234
396.8045	83.78448
396.9708	86.75793
397.1371	101.321
397.3034	121.3629
397.4697	146.5849
397.636	169.7912
397.8023	190.5753
397.9686	197.7338
398.1349	204.1795
398.3012	211.5888
398.4675	205.2948
398.6337	215.296
398.8	216.4544
398.9662	222.1116
399.1325	232.4191
399.2988	234.3895
399.465	228.5988
399.6313	226.1962
399.7975	233.9078
399.9637	238.5135
400.1299	246.5347
400.2961	246.1214
400.4624	240.3579
400.6286	228.2412
400.7948	235.8261
400.961	242.9211
401.1272	250.7325
401.2934	251.403
401.4595	251.0285
401.6257	250.2787
401.7919	245.2531
401.9581	256.4071
402.1242	259.1179
402.2904	258.2165
402.4565	253.2045
402.6227	256.5281
402.7888	265.8777
402.955	256.3012
403.1211	237.4479
403.2872	225.7388
403.4533	239.1908
403.6194	255.3306
403.7856	267.2598
403.9517	268.7297
404.1177	263.6701
404.2838	252.7332
404.4499	235.657
404.616	230.3676
404.7821	234.6353
404.9482	257.5432
405.1142	270.4139
405.2803	266.8882
405.4464	250.4846
405.6124	247.7892
405.7784	254.7066
405.9445	258.3893
406.1105	256.4748
406.2766	247.313
406.4426	247.7393
406.6086	250.3242
406.7746	265.1561
406.9406	270.8603
407.1066	276.9299
407.2726	265.5413
407.4386	266.0138
407.6046	264.9951
407.7706	258.8311
407.9366	266.7933
408.1025	288.1902
408.2685	305.9573
408.4344	302.1717
408.6004	303.0665
408.7664	307.9041
408.9323	316.222
409.0983	315.1371
409.2642	300.8704
409.4301	290.1841
409.596	283.5471
409.762	274.1681
409.9279	260.9956
410.0938	244.5656
410.2597	241.9808
410.4256	258.6635
410.5915	280.5659
410.7574	292.8922
410.9232	299.3139
411.0891	298.4181
411.255	304.7601
411.4209	325.0627
411.5867	323.118
411.7526	320.7256
411.9184	327.6271
412.0843	317.9776
412.2501	323.7682
412.4159	324.9704
412.5818	317.938
412.7476	318.4781
412.9134	303.6002
413.0792	304.1023
413.245	299.8726
413.4108	301.98
413.5766	314.4711
413.7424	326.438
413.9082	345.8129
414.074	334.3649
414.2397	315.3892
414.4055	307.058
414.5713	311.7559
414.737	320.1
414.9028	324.1878
415.0685	319.2809
415.2343	321.3916
415.4	316.9878
415.5658	313.912
415.7315	318.1357
415.8972	336.0144
416.0629	343.1082
416.2286	345.0252
416.3943	352.6428
416.56	353.6805
416.7257	341.7922
416.8914	337.4007
417.0571	324.4065
417.2228	320.4511
417.3884	313.382
417.5541	313.1376
417.7198	324.999
417.8854	327.0586
418.0511	330.3018
418.2167	332.7453
418.3824	323.7079
418.548	326.2018
418.7136	327.7915
418.8792	329.4353
419.0449	336.3929
419.2105	353.9452
419.3761	358.1228
419.5417	343.9103
419.7073	323.9088
419.8729	315.1744
420.0385	314.5077
420.204	327.9464
420.3696	350.5971
420.5352	365.2201
420.7007	385.7205
420.8663	384.4581
421.0319	381.7374
421.1974	377.3967
421.3629	388.093
421.5285	370.981
421.694	366.5742
421.8595	383.3568
422.0251	397.5948
422.1906	385.7814
422.3561	358.9979
422.5216	322.6437
422.6871	305.5747
422.8526	329.8558
423.0181	376.022
423.1835	390.7137
423.349	377.2773
423.5145	360.149
423.68	352.4454
423.8454	350.7279
424.0109	372.8106
424.1763	385.605
424.3418	395.9449
424.5072	393.6094
424.6726	390.6453
424.838	376.3792
425.0035	355.844
425.1689	365.8141
425.3343	377.8093
425.4997	386.3459
425.6651	385.37
425.8305	365.384
425.9959	356.6605
426.1613	361.2847
426.3267	386.3687
426.492	403.9779
426.6574	399.5421
426.8228	389.2853
426.9881	360.5784
427.1534	336.4834
427.3188	328.1617
427.4841	347.0576
427.6495	370.5376
427.8148	385.4862
427.9801	385.5028
428.1454	378.7196
428.3107	378.0979
428.476	376.603
428.6414	364.0813
428.8066	349.3098
428.9719	345.4327
429.1372	355.5981
429.3025	361.9391
429.4678	358.1569
429.633	342.7483
429.7983	315.1836
429.9636	287.3786
430.1288	274.4083
430.294	279.3537
430.4593	291.9677
430.6245	283.63
430.7897	264.9699
430.955	266.0218
431.1202	289.9045
431.2854	331.3473
431.4506	372.1046
431.6158	419.1894
431.781	458.2571
431.9462	457.7503
432.1114	431.8474
432.2766	387.0479
432.4417	348.0023
432.6069	341.8552
432.772	379.2291
432.9372	427.2492
433.1024	445.6982
433.2675	455.472
433.4326	445.9118
433.5977	427.6378
433.7629	390.9479
433.928	354.5579
434.0931	345.1797
434.2582	362.265
434.4233	407.7301
434.5884	438.6591
434.7535	449.8094
434.9186	459.4209
435.0837	437.2198
435.2488	413.6919
435.4138	421.1779
435.5789	446.1674
435.744	462.6973
435.909	470.3801
436.0741	475.195
436.2391	491.0836
436.4042	501.3098
436.5692	492.6111
436.7342	485.701
436.8992	480.4207
437.0643	466.4674
437.2293	461.9189
437.3943	452.0569
437.5593	450.2461
437.7243	453.6371
437.8893	463.7087
438.0542	468.8384
438.2192	416.3358
438.3842	386.8996
438.5491	387.8048
438.7141	424.2177
438.8791	437.448
439.044	451.2585
439.209	468.4453
439.3739	465.7226
439.5388	471.0012
439.7037	478.0358
439.8687	490.1953
440.0336	489.8472
440.1985	475.1763
440.3634	452.0638
440.5283	442.8993
440.6932	453.0319
440.8581	473.1752
441.0229	503.0353
441.1878	523.4862
441.3527	520.8562
441.5175	496.1783
441.6824	500.4046
441.8472	521.6403
442.0121	525.2876
442.1769	531.809
442.3418	522.6713
442.5066	519.9496
442.6714	527.4713
442.8362	533.0276
443.001	528.8326
443.1659	523.6758
443.3307	502.3001
443.4955	508.2066
443.6602	519.4923
443.825	531.8306
443.9898	539.6839
444.1546	538.4738
444.3193	531.6437
444.4841	536.2873
444.6488	543.6317
444.8136	546.3383
444.9783	544.3542
445.1431	535.9352
445.3078	529.4777
445.4725	510.7698
445.6372	496.89
445.802	494.9988
445.9667	501.7184
446.1314	499.063
446.2961	525.5548
446.4608	538.046
446.6255	546.3051
446.7901	544.145
446.9548	551.8458
447.1195	562.5562
447.2841	574.4401
447.4488	592.9954
447.6134	590.6337
447.7781	593.9384
447.9427	569.8341
448.1074	553.1175
448.272	551.6113
448.4366	577.1345
448.6012	601.3893
448.7658	593.9568
448.9305	579.4588
449.095	572.9291
449.2596	577.2261
449.4242	576.1238
449.5888	571.1077
449.7534	590.78
449.9179	616.5584
450.0825	613.8904
450.2471	619.5851
450.4116	636.2676
450.5762	644.7513
450.7407	642.5766
450.9052	646.6164
451.0698	637.812
451.2343	628.2114
451.3988	622.5236
451.5633	627.4636
451.7278	627.3531
451.8923	626.7423
452.0568	623.3207
452.2213	626.2894
452.3858	619.1694
452.5503	587.4543
452.7148	563.1599
452.8792	551.1593
453.0437	566.7745
453.2081	575.3414
453.3726	572.3459
453.537	582.0639
453.7015	601.6025
453.8659	620.7711
454.0303	626.6185
454.1947	624.5406
454.3592	624.5208
454.5236	625.1041
454.688	608.7292
454.8524	600.6238
455.0168	591.3936
455.1811	594.5355
455.3455	598.5511
455.5099	603.2972
455.6743	616.6111
455.8386	640.6725
456.003	652.0723
456.1673	646.3428
456.3317	633.4471
456.496	621.2387
456.6603	621.3331
456.8246	627.4257
456.989	638.7426
457.1533	629.4366
457.3176	632.0499
457.4819	641.9147
457.6462	652.7354
457.8105	646.5389
457.9748	624.1046
458.1391	607.9965
458.3033	604.6202
458.4676	613.0731
458.6319	613.3493
458.7961	614.9922
458.9604	633.5424
459.1246	641.6646
459.2888	627.1601
459.4531	626.0618
459.6173	622.7003
459.7815	630.4733
459.9457	626.9407
460.11	632.8301
460.2741	629.6069
460.4384	629.2418
460.6025	635.9865
460.7667	647.3179
460.9309	662.1874
461.0951	655.2612
461.2592	647.927
461.4234	647.8078
461.5876	651.6895
461.7517	658.4378
461.9159	660.4656
462.08	656.9106
462.2441	658.6313
462.4082	660.2565
462.5724	662.9099
462.7365	668.2444
462.9006	672.0793
463.0647	667.7503
463.2288	672.3107
463.3929	678.188
463.557	653.3437
463.721	642.3591
463.8851	645.0581
464.0492	648.8125
464.2132	655.8698
464.3773	656.3979
464.5414	643.6383
464.7054	628.3845
464.8694	628.8697
465.0334	645.3531
465.1975	659.936
465.3615	666.0856
465.5255	664.2707
465.6895	660.2894
465.8535	674.5978
466.0175	692.837
466.1815	682.762
466.3455	662.1419
466.5095	649.7447
466.6734	625.6063
466.8374	621.095
467.0014	641.809
467.1653	669.9539
467.3293	667.9836
467.4932	672.3594
467.6571	689.1124
467.8211	677.8185
467.985	659.997
468.1489	664.2025
468.3128	674.1834
468.4767	689.0803
468.6406	688.5656
468.8045	691.7902
468.9684	695.4316
469.1323	685.0003
469.2962	678.2204
469.46	687.2983
469.6239	691.9632
469.7878	689.0876
469.9516	678.1691
470.1154	663.4905
470.2793	649.449
470.4431	651.1965
470.607	657.191
470.7708	653.2142
470.9346	667.442
471.0984	681.4942
471.2622	676.3478
471.426	685.6377
471.5898	686.5869
471.7536	698.8936
471.9174	717.0925
472.0811	723.1273
472.2449	726.8598
472.4087	726.6569
472.5724	709.4172
472.7362	689.1673
472.8999	678.6688
473.0637	669.1473
473.2274	686.0017
473.3911	697.5704
473.5548	704.1639
473.7185	692.9587
473.8822	684.4088
474.0459	695.8834
474.2096	704.0472
474.3733	702.3763
474.537	714.8339
474.7007	720.8123
474.8643	715.9653
475.028	720.0831
475.1917	707.9691
475.3553	688.5561
475.519	689.6887
475.6826	686.3109
475.8463	699.3345
476.0099	704.0249
476.1735	685.5854
476.3371	674.7935
476.5007	664.5788
476.6643	664.7867
476.8279	690.8595
476.9915	712.4231
477.1551	702.1519
477.3187	699.6943
477.4823	714.8268
477.6458	721.1454
477.8094	721.1062
477.9729	714.0611
478.1365	707.0181
478.3	700.4236
478.4636	698.252
478.6271	692.9193
478.7906	686.4719
478.9541	685.6208
479.1176	699.0688
479.2812	712.0693
479.4447	722.5153
479.6082	718.0158
479.7716	722.4026
479.9351	709.3098
480.0986	704.6619
480.2621	710.2874
480.4255	713.4172
480.589	706.0349
480.7524	698.4727
480.9159	704.6505
481.0793	708.7343
481.2428	711.6916
481.4062	719.0619
481.5696	727.5345
481.733	715.4109
481.8964	732.9308
482.0598	730.6116
482.2232	713.3428
482.3866	709.0506
482.55	703.1937
482.7134	704.0946
482.8768	709.5851
483.0401	710.5722
483.2035	715.5303
483.3668	721.1321
483.5302	723.614
483.6935	724.6115
483.8568	702.834
484.0202	698.7764
484.1835	696.9958
484.3468	696.672
484.5101	708.0987
484.6734	713.8154
484.8367	718.7712
485	713.8549
485.1633	706.9205
485.3266	699.7622
485.4899	675.7
485.6531	650.9187
485.8164	623.8747
485.9796	572.1469
486.1429	527.3193
486.3061	536.2836
486.4694	591.6349
486.6326	641.7211
486.7958	662.4998
486.959	662.4172
487.1223	644.994
487.2855	651.394
487.4486	658.8184
487.6118	679.0338
487.775	702.6699
487.9382	710.7491
488.1014	704.8443
488.2646	707.7437
488.4277	698.5295
488.5909	700.1619
488.754	688.9111
488.9171	670.3457
489.0803	649.9539
489.2434	658.157
489.4066	709.8494
489.5697	751.6406
489.7328	758.8583
489.8959	737.0337
490.059	727.98
490.2221	725.5534
490.3852	730.3208
490.5482	732.2822
490.7113	736.8516
490.8744	711.957
491.0374	706.6094
491.2005	699.5195
491.3636	716.95
491.5266	720.3466
491.6896	703.9108
491.8527	667.8364
492.0157	641.1777
492.1787	639.7709
492.3417	658.1628
492.5047	692.4389
492.6677	708.1003
492.8307	729.8011
492.9937	736.3796
493.1567	725.1392
493.3196	715.1088
493.4826	700.3773
493.6456	701.3366
493.8085	689.7295
493.9715	689.297
494.1344	709.5784
494.2974	732.0789
494.4603	736.6709
494.6232	733.3203
494.7861	730.6469
494.949	739.5911
495.1119	743.537
495.2748	744.7607
495.4377	729.3952
495.6006	706.7643
495.7635	681.489
495.9264	695.2461
496.0892	729.8489
496.2521	748.3752
496.4149	752.5209
496.5778	737.1699
496.7407	717.84
496.9035	729.3702
497.0663	733.5692
497.2291	750.5361
497.3919	753.3428
497.5547	750.3596
497.7176	736.6623
497.8804	726.0236
498.0432	718.3474
498.2059	684.4182
498.3687	671.275
498.5315	672.9293
498.6942	707.6606
498.857	734.682
499.0198	730.71
499.1825	723.4045
499.3452	736.0538
499.508	750.7845
499.6707	753.6909
499.8334	744.2427
499.9962	727.9208
500.1589	713.268
500.3216	705.3734
500.4843	688.807
500.6469	692.4555
500.8096	702.7729
500.9723	715.2834
501.135	719.7473
501.2976	700.8278
501.4603	693.5472
501.623	686.5466
501.7856	693.2377
501.9482	707.0166
502.1109	716.0364
502.2735	718.6841
502.4361	719.2537
502.5987	729.0063
502.7614	725.205
502.924	721.8931
503.0865	742.2064
503.2491	767.0724
503.4117	755.1438
503.5743	744.4262
503.7368	722.6006
503.8994	707.8432
504.062	689.5719
504.2245	690.3816
504.3871	720.6974
504.5496	756.1675
504.7121	754.3784
504.8746	753.5095
505.0372	740.8877
505.1997	727.215
505.3622	755.9858
505.5247	768.2689
505.6872	780.3751
505.8497	789.3287
506.0121	786.0481
506.1746	790.4355
506.3371	781.9131
506.4995	758.1694
506.662	748.9698
506.8244	751.7854
506.9869	750.9136
507.1493	744.6909
507.3117	750.9989
507.4742	749.1204
507.6366	756.0447
507.799	742.1579
507.9614	709.5394
508.1238	707.8734
508.2862	710.6602
508.4485	745.0598
508.6109	755.5055
508.7733	771.848
508.9357	774.0977
509.098	773.2775
509.2604	777.5328
509.4227	770.5147
509.5851	764.2083
509.7474	742.495
509.9097	716.3829
510.072	729.1643
510.2343	744.0969
510.3966	754.8366
510.5589	743.3917
510.7212	730.2397
510.8835	715.3435
511.0458	730.3319
511.2081	749.5003
511.3703	763.2495
511.5326	756.6708
511.6949	765.022
511.8571	756.3812
512.0193	763.3619
512.1816	752.5281
512.3438	727.7562
512.506	708.7897
512.6682	704.2919
512.8304	716.5043
512.9926	722.9262
513.1548	724.2189
513.317	719.2903
513.4792	722.0048
513.6414	713.9172
513.8035	699.5232
513.9657	690.0825
514.1279	688.5519
514.29	693.9581
514.4521	688.9809
514.6143	696.0996
514.7764	705.6863
514.9385	716.7894
515.1006	705.3078
515.2628	703.3693
515.4249	712.2133
515.587	719.4099
515.7491	719.3504
515.9111	733.7812
516.0732	722.062
516.2353	704.0002
516.3973	686.5179
516.5594	645.8004
516.7214	605.0787
516.8835	583.5327
517.0455	582.5696
517.2076	579.7038
517.3696	603.6443
517.5316	651.8138
517.6937	705.0914
517.8557	721.5178
518.0176	698.8946
518.1796	651.1476
518.3416	593.8399
518.5036	578.1676
518.6656	620.4639
518.8275	665.095
518.9895	693.5076
519.1514	692.0268
519.3134	681.1105
519.4753	683.309
519.6373	693.7493
519.7992	709.1432
519.9611	716.2095
520.123	727.7987
520.2849	722.1003
520.4468	709.0964
520.6087	689.8392
520.7706	690.5705
520.9325	699.3151
521.0944	709.7602
521.2562	729.3705
521.4181	735.6281
521.58	708.4706
521.7418	706.9506
521.9036	718.5314
522.0655	748.7371
522.2273	747.0883
522.3891	733.8336
522.551	696.262
522.7128	678.6191
522.8746	688.0118
523.0363	709.2877
523.1981	708.1813
523.3599	705.7448
523.5217	723.2031
523.6835	736.6564
523.8452	748.8193
524.007	768.2128
524.1687	763.0998
524.3304	768.4193
524.4922	770.4866
524.6539	755.7268
524.8157	739.3242
524.9774	738.1874
525.1391	746.9225
525.3008	744.1553
525.4625	747.0302
525.6241	749.4524
525.7858	763.4267
525.9475	762.1335
526.1092	745.6323
526.2709	701.8205
526.4325	661.0989
526.5942	653.2971
526.7558	648.076
526.9174	644.3581
527.079	655.3425
527.2407	680.6317
527.4023	703.1555
527.5639	714.6609
527.7255	733.4597
527.8871	756.8921
528.0487	755.2761
528.2103	724.1569
528.3718	727.7127
528.5334	752.5732
528.695	760.3379
528.8565	779.932
529.0181	794.3083
529.1796	793.9009
529.3412	794.776
529.5027	776.5269
529.6642	743.5088
529.8257	727.0989
529.9872	724.8212
530.1487	743.046
530.3102	749.1808
530.4717	752.2018
530.6332	768.2089
530.7947	779.9063
530.9562	778.3609
531.1176	781.6121
531.2791	798.6595
531.4405	773.9498
531.6019	747.2064
531.7634	743.9188
531.9248	752.1406
532.0862	751.9058
532.2477	739.557
532.4091	716.2702
532.5704	704.2036
532.7319	678.8992
532.8932	665.2425
533.0546	687.5241
533.216	722.3399
533.3774	737.0415
533.5388	749.7342
533.7001	751.5814
533.8615	723.7439
534.0228	715.6262
534.1841	712.5115
534.3455	720.4993
534.5068	724.346
534.6681	714.3674
534.8293	717.6219
534.9907	726.99
535.152	735.5792
535.3132	745.0179
535.4745	759.2778
535.6358	760.4606
535.7971	764.0443
535.9583	752.2822
536.1196	746.3799
536.2808	734.4094
536.4421	712.2637
536.6033	702.0706
536.7645	707.1888
536.9258	698.7775
537.087	688.0126
537.2482	673.6573
537.4094	704.9748
537.5706	731.721
537.7318	737.638
537.8929	731.5754
538.0541	717.0237
538.2153	715.5347
538.3764	706.9625
538.5376	712.6133
538.6987	721.8688
538.8599	715.69
539.021	697.6305
539.1821	698.5294
539.3432	703.0092
539.5043	686.5823
539.6655	680.7535
539.8265	675.8096
539.9876	681.113
540.1487	683.9039
540.3098	678.2548
540.4708	661.7143
540.6319	664.8944
540.793	673.6743
540.954	682.5598
541.1151	686.8175
541.2761	679.9008
541.4371	681.1084
541.5981	690.298
541.7592	686.3262
541.9202	691.8672
542.0812	689.9386
542.2422	685.3798
542.4031	689.3531
542.5641	692.5445
542.7251	685.7129
542.886	686.7798
543.0471	672.8444
543.208	668.3395
543.369	684.6795
543.5298	675.6508
543.6908	680.0198
543.8517	710.6055
544.0126	718.2887
544.1736	716.5599
544.3345	706.793
544.4954	695.5632
544.6563	684.223
544.8171	676.7133
544.978	692.4512
545.1389	716.4697
545.2997	705.1074
545.4606	691.5037
545.6215	688.03
545.7823	697.4704
545.9432	700.6909
546.104	706.0878
546.2648	686.7328
546.4256	677.7247
546.5864	675.5351
546.7473	694.0759
546.908	706.2596
547.0688	713.2011
547.2296	702.8763
547.3904	677.9617
547.5511	672.8882
547.7119	661.4228
547.8727	666.7246
548.0334	679.479
548.1942	687.582
548.3549	693.9559
548.5156	697.7251
548.6763	705.7278
548.837	701.5421
548.9977	703.0714
549.1584	703.4615
549.3192	700.7839
549.4798	699.0716
549.6405	698.6501
549.8011	701.7547
549.9619	701.4269
550.1225	708.6795
550.2831	701.2133
550.4438	690.3951
550.6044	691.8111
550.765	692.5145
550.9257	693.9409
551.0863	696.014
551.2469	684.9139
551.4075	688.0967
551.5681	687.811
551.7287	691.31
551.8893	708.6581
552.0498	708.148
552.2104	700.8073
552.371	697.7666
552.5315	679.637
552.6921	675.867
552.8526	672.0427
553.0131	662.9191
553.1736	683.1619
553.3342	684.7372
553.4947	682.4079
553.6552	679.5963
553.8157	700.1376
553.9762	704.7877
554.1367	700.7467
554.2971	708.3826
554.4576	687.8522
554.618	694.7715
554.7785	703.3372
554.939	694.7891
555.0994	686.139
555.2598	688.4255
555.4203	678.8418
555.5807	681.0332
555.7411	671.5485
555.9015	671.7901
556.0619	680.7608
556.2223	665.2961
556.3827	660.5773
556.5431	651.3145
556.7034	654.8283
556.8638	649.5923
557.0242	651.0403
557.1845	646.8864
557.3448	641.7
557.5052	637.8331
557.6655	654.4335
557.8259	667.4399
557.9861	672.3764
558.1465	663.266
558.3068	657.5527
558.467	644.2375
558.6274	627.9668
558.7877	626.0723
558.9479	614.9073
559.1082	624.1277
559.2684	629.0868
559.4287	625.7908
559.5889	626.4361
559.7491	637.3824
559.9094	633.2264
560.0696	621.9402
560.2299	615.3284
560.3901	615.0948
560.5502	635.402
560.7104	667.8618
560.8707	666.5457
561.0308	655.1959
561.191	656.1116
561.3511	638.5755
561.5114	631.5623
561.6714	625.2261
561.8316	624.5519
561.9918	628.9533
562.1519	641.8793
562.312	637.6105
562.4722	621.4472
562.6323	617.8511
562.7924	621.4792
562.9525	635.6252
563.1125	640.236
563.2726	637.4684
563.4327	639.8759
563.5928	639.8019
563.7528	637.027
563.9129	632.8824
564.0729	628.8401
564.233	635.5583
564.393	632.5945
564.553	641.4183
564.7131	640.9798
564.873	637.8409
565.0331	634.6987
565.1931	636.4588
565.353	624.5621
565.5131	616.4504
565.673	618.4623
565.833	604.4286
565.9929	594.2758
566.1529	604.0693
566.3129	617.4131
566.4728	615.0065
566.6328	612.4117
566.7927	615.1379
566.9526	618.5249
567.1125	629.7189
567.2724	629.2195
567.4323	633.8529
567.5922	630.1385
567.7521	634.2
567.9119	627.5544
568.0718	628.8939
568.2317	611.941
568.3915	601.6996
568.5514	601.9025
568.7112	600.3647
568.871	605.6936
569.0309	606.9595
569.1907	609.8615
569.3505	617.5691
569.5103	614.2216
569.6701	606.2046
569.8299	611.8463
569.9897	607.6286
570.1495	606.5576
570.3092	604.9828
570.469	597.332
570.6287	596.2597
570.7885	586.4509
570.9482	576.8422
571.108	573.6523
571.2677	586.517
571.4274	600.999
571.5871	613.2003
571.7468	608.1557
571.9066	615.7528
572.0662	622.896
572.2259	620.0754
572.3856	614.833
572.5452	615.8371
572.7049	619.3167
572.8646	611.3345
573.0242	612.4212
573.1838	618.6791
573.3435	610.1121
573.5031	610.4651
573.6627	616.5643
573.8223	620.5095
573.9819	615.8757
574.1415	609.8409
574.3011	608.205
574.4607	607.4979
574.6203	604.5905
574.7798	607.5241
574.9394	609.5005
575.099	601.8317
575.2585	585.7119
575.418	580.7241
575.5776	581.0657
575.7371	599.1337
575.8966	601.4706
576.0562	583.6294
576.2156	596.3096
576.3751	595.1072
576.5346	593.1962
576.6941	602.5317
576.8536	597.9352
577.0131	595.1765
577.1725	586.989
577.332	588.3792
577.4914	582.9878
577.6508	592.9932
577.8103	596.8936
577.9697	579.1707
578.1291	574.7792
578.2885	562.4907
578.4479	564.0723
578.6073	568.6635
578.7667	569.3253
578.9261	573.8091
579.0854	576.6641
579.2448	573.8959
579.4042	577.2116
579.5635	568.4177
579.7229	576.9664
579.8822	583.1129
580.0416	561.4774
580.2009	564.834
580.3602	572.641
580.5195	568.9556
580.6788	561.3058
580.8381	566.4879
580.9974	574.479
581.1566	580.2903
581.3159	586.6362
581.4752	581.4086
581.6345	578.4408
581.7937	580.4761
581.9529	574.7552
582.1122	566.7062
582.2714	559.0981
582.4306	563.9004
582.5898	575.6887
582.749	584.3687
582.9082	579.3199
583.0674	566.8523
583.2266	573.6843
583.3857	568.1243
583.5449	563.7045
583.7041	552.6242
583.8633	547.402
584.0224	556.8681
584.1815	563.7363
584.3407	571.756
584.4998	564.5009
584.6589	566.074
584.818	559.077
584.9771	555.7933
585.1362	558.6846
585.2953	535.392
585.4544	535.1374
585.6135	535.4417
585.7725	530.2614
585.9316	537.9465
586.0906	531.7148
586.2497	543.4509
586.4087	547.2509
586.5677	542.344
586.7267	534.5851
586.8858	533.9599
587.0448	542.405
587.2038	546.6353
587.3628	535.3377
587.5218	525.2209
587.6807	533.3074
587.8397	538.9857
587.9987	530.63
588.1577	524.4703
588.3166	511.5542
588.4755	513.2483
588.6345	505.221
588.7934	485.8659
588.9523	473.2725
589.1112	462.1035
589.2701	465.7181
589.429	464.3423
589.5879	462.6115
589.7468	469.9544
589.9056	477.644
590.0645	493.3308
590.2234	499.7571
590.3822	508.9005
590.5411	508.9682
590.6999	510.797
590.8588	511.4387
591.0176	519.339
591.1764	518.062
591.3352	510.1769
591.494	499.6892
591.6528	499.9983
591.8116	493.7307
591.9703	499.5473
592.1291	507.9508
592.2878	502.3792
592.4467	501.2085
592.6053	498.4286
592.7641	503.7773
592.9229	514.1745
593.0816	515.2391
593.2403	510.668
593.399	505.8772
593.5577	501.302
593.7164	504.077
593.8751	515.0887
594.0338	504.891
594.1924	503.4847
594.3511	494.142
594.5098	501.6898
594.6684	495.438
594.8271	489.2254
594.9857	482.9392
595.1443	490.2742
595.303	496.1351
595.4615	499.9991
595.6202	503.7431
595.7787	500.0964
595.9374	486.3076
596.0959	500.3391
596.2545	507.3774
596.4131	501.8086
596.5717	505.7551
596.7302	500.8132
596.8887	496.0831
597.0473	500.3451
597.2058	492.8394
597.3644	497.1235
597.5229	500.4568
597.6814	488.6207
597.8399	489.7021
597.9984	490.4088
598.1569	496.263
598.3154	501.1864
598.4738	493.7492
598.6323	489.6645
598.7908	496.3032
598.9492	492.348
599.1076	495.7544
599.2661	491.3993
599.4245	498.6563
599.5829	503.7006
599.7413	487.827
599.8997	499.8518
600.0581	497.2387
600.2165	499.4046
600.3749	502.0804
600.5333	498.582
600.6917	491.9533
600.85	496.6739
601.0084	490.3955
601.1667	494.2249
601.325	495.36
601.4833	488.7141
601.6417	488.2143
601.8	479.9509
601.9583	479.1691
602.1166	481.5959
602.2749	479.0786
602.4332	489.0363
602.5914	479.3344
602.7498	480.0445
602.908	493.674
603.0662	499.5547
603.2245	499.0895
603.3828	496.6669
603.541	499.2104
603.6992	497.2713
603.8574	493.6695
604.0156	491.5277
604.1738	491.804
604.332	487.0977
604.4902	495.6372
604.6484	499.0639
604.8065	490.3682
604.9647	490.6904
605.1229	485.874
605.281	481.4049
605.4391	480.1778
605.5973	487.8723
605.7554	485.3507
605.9135	489.424
606.0717	484.2873
606.2297	484.823
606.3878	483.3701
606.5459	483.9583
606.704	482.1143
606.8621	484.0148
607.0201	486.3499
607.1782	484.2632
607.3362	485.2759
607.4943	492.0292
607.6523	479.7663
607.8104	476.3905
607.9684	473.9353
608.1264	479.4432
608.2844	477.4668
608.4424	473.163
608.6003	476.712
608.7584	479.8297
608.9163	474.5996
609.0743	470.4606
609.2322	466.245
609.3902	475.3244
609.5482	470.5204
609.7061	461.3033
609.864	471.4093
610.0219	470.1342
610.1798	465.9879
610.3377	445.967
610.4956	446.0092
610.6535	455.9765
610.8114	463.2351
610.9693	457.0551
611.1271	464.4658
611.285	465.6469
611.4429	468.0949
611.6007	462.9326
611.7585	460.8125
611.9164	470.1066
612.0742	467.7254
612.232	448.4258
612.3898	444.6221
612.5476	444.6428
612.7054	457.3438
612.8632	460.6062
613.0209	460.9561
613.1787	462.1591
613.3365	451.1873
613.4942	444.9067
613.652	439.8593
613.8097	433.3474
613.9674	437.3336
614.1252	438.3752
614.2829	447.0275
614.4406	446.8806
614.5983	442.6653
614.756	445.7727
614.9136	449.9967
615.0714	441.1403
615.229	429.6321
615.3867	434.5294
615.5443	433.8651
615.702	438.097
615.8596	433.5191
616.0172	431.0925
616.1748	424.6114
616.3325	419.3464
616.4901	416.0702
616.6476	424.4766
616.8052	426.9781
616.9628	418.9291
617.1204	426.6696
617.278	430.1526
617.4355	435.9055
617.5931	432.0619
617.7506	434.0941
617.9081	433.8412
618.0657	439.4253
618.2232	435.7393
618.3807	449.8731
618.5382	440.0575
618.6957	438.288
618.8532	434.0412
619.0107	435.4734
619.1682	418.0861
619.3256	424.3302
619.4831	432.7475
619.6406	426.6543
619.798	438.1318
619.9554	440.6499
620.1129	445.4756
620.2703	432.7721
620.4277	434.5443
620.5851	424.1539
620.7425	436.0097
620.8998	440.3457
621.0573	438.4991
621.2146	432.4516
621.372	419.9064
621.5294	424.5722
621.6867	419.7541
621.8441	412.553
622.0013	415.7788
622.1587	424.1745
622.316	433.4882
622.4733	424.5338
622.6306	413.8909
622.7879	415.666
622.9452	420.3465
623.1025	413.961
623.2598	412.3719
623.4171	412.7923
623.5743	420.2764
623.7316	423.2108
623.8888	419.998
624.046	418.8806
624.2032	413.0729
624.3605	413.551
624.5176	411.3817
624.6749	403.9088
624.8321	409.7081
624.9893	417.8405
625.1464	405.6342
625.3036	408.4329
625.4608	409.2691
625.6179	405.0621
625.7751	408.335
625.9322	404.1753
626.0894	403.7138
626.2465	410.7366
626.4036	406.1089
626.5607	409.7859
626.7178	401.0064
626.8749	400.0374
627.032	415.9202
627.189	413.481
627.3461	411.0285
627.5032	406.7449
627.6602	401.3535
627.8173	391.2931
627.9743	381.031
628.1313	388.565
628.2884	391.6043
628.4454	399.0845
628.6024	408.3074
628.7594	407.5618
628.9164	406.3553
629.0734	403.1857
629.2303	395.5932
629.3873	398.5453
629.5443	394.8876
629.7012	394.2856
629.8582	387.952
630.0151	388.5069
630.172	388.2323
630.3289	377.288
630.4858	390.0905
630.6428	394.2877
630.7996	400.6229
630.9565	397.2502
631.1134	397.759
631.2703	392.3976
631.4272	379.549
631.584	383.2498
631.7408	380.5076
631.8977	384.2211
632.0546	390.5319
632.2114	382.6839
632.3682	387.2238
632.525	386.9674
632.6818	391.0567
632.8386	396.6489
632.9954	400.3734
633.1522	394.2328
633.3089	397.1752
633.4657	392.1723
633.6224	386.3718
633.7792	382.5529
633.9359	378.6783
634.0927	378.6222
634.2494	395.3099
634.4061	386.8201
634.5628	379.343
634.7195	388.2912
634.8762	390.8368
635.0329	393.4466
635.1895	389.8213
635.3462	388.4902
635.5029	387.9712
635.6595	380.9734
635.8162	379.1452
635.9728	381.1685
636.1295	375.8795
636.2861	381.0011
636.4427	375.2645
636.5992	380.5219
636.7559	390.0386
636.9124	391.119
637.069	379.9334
637.2256	378.1273
637.3821	383.4138
637.5387	391.7945
637.6953	395.4762
637.8518	386.7987
638.0084	386.0044
638.1649	382.1271
638.3214	389.681
638.4779	380.3071
638.6344	380.1098
638.7909	381.7023
638.9474	381.4926
639.1038	380.8613
639.2603	368.1368
639.4167	371.2896
639.5732	378.6376
639.7297	379.9724
639.8861	374.0422
640.0425	366.9549
640.199	364.8065
640.3553	367.1844
640.5118	370.0959
640.6682	376.5872
640.8245	373.5028
640.981	365.0581
641.1373	359.6255
641.2936	362.8996
641.45	367.2882
641.6064	365.9624
641.7627	362.2139
641.9191	353.6971
642.0754	353.0064
642.2317	354.8063
642.388	354.1357
642.5443	356.9762
642.7006	363.3343
642.8569	366.3973
643.0131	365.3467
643.1694	364.7594
643.3257	363.9938
643.4819	370.1411
643.6382	370.7733
643.7944	359.1751
643.9506	359.9178
644.1069	360.3611
644.2631	365.7006
644.4193	366.5099
644.5754	357.341
644.7316	357.429
644.8878	354.8026
645.044	358.9134
645.2002	358.2151
645.3563	352.4687
645.5125	349.9148
645.6686	350.0553
645.8248	345.5048
645.9809	337.0742
646.137	338.1786
646.2931	343.9146
646.4492	347.7837
646.6053	352.1197
646.7614	344.3847
646.9174	342.3987
647.0735	335.2532
647.2296	333.8628
647.3856	334.6439
647.5417	333.0317
647.6977	336.4301
647.8537	338.9923
648.0098	335.6951
648.1658	335.7821
648.3218	335.0793
648.4777	330.5813
648.6337	332.1344
648.7897	337.2828
648.9457	336.8951
649.1016	331.5936
649.2576	325.5041
649.4135	316.554
649.5695	316.7195
649.7254	317.8748
649.8813	325.7982
650.0372	323.7405
650.1932	333.3014
650.3491	339.3758
650.5049	338.6
650.6608	345.6644
650.8167	339.2337
650.9725	339.5292
651.1284	341.334
651.2842	336.1012
651.4401	332.9033
651.5959	323.2007
651.7518	326.6597
651.9076	324.3537
652.0634	319.9171
652.2192	329.0946
652.3749	328.9828
652.5308	327.5603
652.6865	323.1794
652.8423	324.4347
652.998	327.1805
653.1538	326.7838
653.3096	327.2664
653.4653	332.7164
653.621	331.4357
653.7767	335.1594
653.9324	331.8904
654.0881	338.0392
654.2438	330.4884
654.3995	321.3518
654.5552	312.9127
654.7109	323.8581
654.8665	320.8012
655.0222	319.4995
655.1778	313.8961
655.3334	317.3706
655.4891	311.0353
655.6447	299.2345
655.8003	294.199
655.9559	288.9487
656.1115	268.5399
656.2671	248.2682
656.4227	257.8041
656.5782	274.9629
656.7338	285.8519
656.8893	298.3245
657.0449	307.3343
657.2004	303.5768
657.356	305.6745
657.5115	306.3505
657.667	308.672
657.8225	320.0422
657.978	323.8916
658.1335	319.4355
658.289	319.9717
658.4445	320.4213
658.5999	316.8432
658.7554	318.4776
658.9108	322.274
659.0663	315.7488
659.2217	318.2118
659.3771	313.3664
659.5325	318.6216
659.6879	321.4548
659.8433	314.8994
659.9987	321.2581
660.1541	321.6991
660.3095	314.2703
660.4648	317.8112
660.6202	325.3091
660.7756	327.1991
660.9309	323.1812
661.0862	323.573
661.2416	325.5499
661.3969	323.7143
661.5522	317.4697
661.7075	324.142
661.8628	319.8917
662.0181	320.588
662.1733	319.1346
662.3286	320.5615
662.4839	321.7877
662.6391	322.255
662.7944	322.3335
662.9496	317.7876
663.1048	315.6498
663.26	313.5592
663.4152	307.4821
663.5704	311.2179
663.7256	306.074
663.8808	317.3031
664.036	314.6661
664.1912	317.9139
664.3463	314.6407
664.5015	312.9651
664.6566	309.3689
664.8118	313.9357
664.9669	314.4252
665.122	309.679
665.2771	315.7189
665.4322	320.5734
665.5873	315.8782
665.7424	314.9711
665.8975	320.6123
666.0526	315.2108
666.2076	314.0386
666.3627	311.3101
666.5177	309.0148
666.6727	311.6529
666.8278	315.7389
666.9828	308.2437
667.1378	308.4317
667.2928	309.5772
667.4478	315.8645
667.6028	309.2513
667.7578	305.7156
667.9127	308.7828
668.0677	307.5785
668.2226	309.1721
668.3776	310.7867
668.5325	314.3944
668.6874	319.2869
668.8423	311.3997
668.9973	310.4803
669.1522	306.6156
669.3071	308.1483
669.4619	308.5095
669.6168	309.5886
669.7717	301.6126
669.9265	300.3819
670.0814	302.4861
670.2362	306.3309
670.3911	298.4659
670.5459	302.466
670.7007	304.0503
670.8555	297.119
671.0103	298.5284
671.1651	300.6908
671.3199	295.7521
671.4747	306.7064
671.6295	294.781
671.7842	290.9584
671.939	300.2272
672.0937	294.8898
672.2484	299.7278
672.4031	301.7845
672.5579	296.7278
672.7126	309.2686
672.8673	295.0978
673.022	305.391
673.1767	304.7617
673.3314	296.5379
673.486	296.9323
673.6407	296.8338
673.7953	289.4717
673.95	290.6354
674.1046	280.0061
674.2592	292.7621
674.4138	300.7078
674.5684	298.5862
674.723	290.6503
674.8776	281.5847
675.0322	281.3746
675.1868	291.9209
675.3414	288.2064
675.4959	285.7626
675.6505	286.7712
675.805	289.5507
675.9595	290.5915
676.1141	286.8083
676.2686	287.0148
676.4231	288.4372
676.5776	282.2558
676.7321	287.236
676.8866	284.8771
677.041	277.2269
677.1955	280.0995
677.35	283.3598
677.5044	275.5443
677.6589	282.4197
677.8133	282.9786
677.9677	276.0205
678.1221	280.3291
678.2766	278.7657
678.4309	272.3222
678.5853	278.2903
678.7397	273.1497
678.8941	268.7973
679.0485	276.7701
679.2028	272.5768
679.3571	276.9561
679.5115	274.4553
679.6658	269.4496
679.8201	266.3264
679.9744	269.4238
680.1288	271.7467
680.2831	262.6098
680.4373	271.8962
680.5916	274.5548
680.7459	268.7798
680.9001	264.3109
681.0544	263.2285
681.2087	268.0566
681.3629	265.3357
681.5171	262.5763
681.6713	263.8835
681.8256	266.0821
681.9797	265.3477
682.134	262.537
682.2881	263.0355
682.4423	267.0236
682.5965	267.1589
682.7507	267.5958
682.9048	270.4392
683.059	267.3918
683.2131	262.6279
683.3672	266.2276
683.5213	261.2787
683.6754	264.6963
683.8295	261.6091
683.9836	255.7004
684.1377	250.6773
684.2918	252.4597
684.4459	257.765
684.5999	248.1863
684.754	259.2546
684.908	254.1345
685.062	250.4816
685.2161	253.1229
685.3701	245.2082
685.5241	251.9855
685.6781	247.6487
685.8321	241.5611
685.9861	240.8365
686.14	256.2179
686.294	255.7349
686.4479	240.5501
686.6019	229.2048
686.7559	213.1068
686.9098	191.3395
687.0637	181.9555
687.2176	186.3465
687.3715	188.5998
687.5254	196.0796
687.6793	202.1815
687.8332	208.7499
687.9871	209.183
688.1409	219.6665
688.2947	222.2946
688.4486	220.9202
688.6024	218.2988
688.7563	215.4807
688.9101	213.1972
689.0639	212.6436
689.2177	209.1286
689.3715	212.7979
689.5253	209.1563
689.6791	211.294
689.8328	212.0694
689.9866	217.863
690.1403	215.3606
690.2941	217.9915
690.4478	215.3539
690.6015	220.5814
690.7552	216.3052
690.9089	220.2791
691.0626	226.2417
691.2164	223.1668
691.37	216.1626
691.5237	222.2155
691.6774	218.8063
691.831	217.6519
691.9847	224.1193
692.1383	229.7662
692.2919	223.3378
692.4456	224.1277
692.5992	225.5059
692.7527	217.5242
692.9064	225.5916
693.0599	218.1985
693.2136	215.8548
693.3671	210.8165
693.5207	219.7218
693.6742	220.5999
693.8278	219.4396
693.9813	210.3353
694.1348	215.6428
694.2883	210.0349
694.4418	217.9241
694.5953	217.0719
694.7488	213.3813
694.9023	211.889
695.0558	218.97
695.2093	210.2512
695.3627	211.0109
695.5162	210.6311
695.6696	215.2488
695.8231	219.0548
695.9764	217.8388
696.1299	219.3713
696.2833	210.9716
696.4367	212.6696
696.5901	217.7039
696.7435	221.3512
696.8968	222.8024
697.0502	217.2864
697.2036	215.4712
697.3569	220.2602
697.5102	219.2138
697.6635	217.8269
697.8168	222.9207
697.9702	207.8424
698.1235	212.6013
698.2768	219.568
698.4301	219.5987
698.5833	218.6259
698.7366	216.2926
698.8898	212.7307
699.0431	216.2762
699.1964	211.4884
699.3495	200.9894
699.5028	206.6158
699.656	213.0048
699.8092	211.7308
699.9624	209.1215
700.1156	216.3131
700.2688	207.6661
700.4219	204.0393
700.5751	207.1116
700.7283	202.2263
700.8814	206.9225
701.0345	210.6674
701.1877	203.7271
701.3408	206.7616
701.4939	208.9757
701.647	205.4028
701.8001	207.6375
701.9532	201.8895
702.1063	206.6665
702.2593	204.8158
702.4124	203.0567
702.5654	206.3251
702.7184	202.2631
702.8715	206.1673
703.0245	208.3591
703.1776	206.5839
703.3305	210.1146
703.4835	207.4787
703.6365	207.1651
703.7895	206.4975
703.9424	204.3398
704.0954	207.5921
704.2484	204.8119
704.4013	213.0166
704.5543	213.509
704.7072	213.0931
704.8601	217.2839
705.013	205.7311
705.1659	205.6154
705.3188	203.2074
705.4717	207.1355
705.6246	201.0497
705.7774	197.2795
705.9303	206.1982
706.0831	208.496
706.236	203.6562
706.3888	204.7378
706.5416	209.581
706.6944	209.9739
706.8472	211.4492
707	206.3438
707.1528	210.5215
707.3056	209.7616
707.4583	218.4876
707.6111	213.1989
707.7639	209.4332
707.9166	214.5481
708.0693	200.061
708.222	202.3147
708.3748	209.7252
708.5275	211.1377
708.6802	203.345
708.8328	205.6355
708.9855	207.9593
709.1382	200.7281
709.2909	206.2819
709.4435	197.1677
709.5962	202.0327
709.7488	209.1408
709.9014	206.0126
710.054	205.3641
710.2067	201.6492
710.3593	202.3971
710.5118	197.752
710.6644	196.8544
710.817	203.3182
710.9695	202.7304
711.1221	199.5143
711.2747	200.2202
711.4272	206.4982
711.5797	202.1043
711.7322	197.5809
711.8848	197.1666
712.0373	195.0895
712.1898	194.8427
712.3422	202.6192
712.4948	208.3276
712.6472	204.9041
712.7996	204.765
712.9521	200.2482
713.1046	198.1142
713.257	186.27
713.4094	192.3117
713.5618	199.5929
713.7142	203.182
713.8666	202.7819
714.019	197.5179
714.1714	198.2034
714.3237	195.9201
714.4761	192.2813
714.6285	195.1189
714.7808	194.6607
714.9331	190.8973
715.0854	187.3024
715.2378	188.282
715.3901	196.3102
715.5424	201.5893
715.6947	196.9995
715.8469	193.9806
715.9992	196.513
716.1515	196.1389
716.3037	178.7747
716.456	183.7501
716.6082	179.0322
716.7604	171.2539
716.9127	171.9303
717.0649	165.1731
717.2171	161.7555
717.3693	161.7744
717.5214	155.4255
717.6736	162.4449
717.8258	157.2203
717.978	157.3198
718.1301	157.2976
718.2822	163.2867
718.4344	154.2112
718.5865	151.796
718.7386	148.013
718.8907	157.6302
719.0428	155.0639
719.1949	156.4391
719.3469	149.4977
719.499	148.9464
719.6511	159.873
719.8031	160.8338
719.9551	156.1358
720.1072	155.2323
720.2592	156.0478
720.4112	154.7852
720.5632	161.3738
720.7152	155.3457
720.8672	158.2052
721.0192	169.2637
721.1711	174.1255
721.3231	173.3067
721.475	175.0261
721.627	167.8759
721.7789	179.1253
721.9308	178.9381
722.0828	179.7658
722.2347	170.6403
722.3866	171.8291
722.5385	174.4608
722.6903	171.9673
722.8422	178.9933
722.9941	172.8732
723.1459	165.9796
723.2977	159.6336
723.4496	151.5565
723.6014	146.027
723.7532	154.1539
723.905	155.098
724.0568	160.3531
724.2086	164.5824
724.3604	156.0607
724.5121	152.0323
724.6639	160.5677
724.8157	158.9937
724.9674	163.3872
725.1191	161.8963
725.2709	153.778
725.4226	153.5817
725.5743	157.6888
725.726	165.1398
725.8777	161.9801
726.0294	156.8725
726.181	152.6208
726.3327	152.5798
726.4844	159.655
726.636	159.4653
726.7877	163.5543
726.9393	169.8343
727.0909	168.2675
727.2425	162.9336
727.3941	151.4769
727.5457	154.2946
727.6973	151.0743
727.8488	146.2493
728.0004	152.2434
728.1519	159.6714
728.3035	159.0147
728.455	163.9035
728.6066	165.155
728.7581	158.7242
728.9095	153.8078
729.0611	146.1438
729.2126	146.5511
729.364	148.6022
729.5155	153.1429
729.667	162.144
729.8184	166.5955
729.9698	167.9509
730.1213	154.9392
730.2727	153.5689
730.4241	155.181
730.5756	150.1675
730.7269	158.1877
730.8784	154.4804
731.0297	154.5744
731.1811	152.3558
731.3325	156.9811
731.4838	156.6435
731.6351	157.5736
731.7865	160.2518
731.9378	155.0697
732.0891	160.0598
732.2404	163.088
732.3917	158.9685
732.543	158.6436
732.6943	159.1308
732.8456	165.6051
732.9968	161.9969
733.1481	159.1484
733.2993	161.6892
733.4506	156.5659
733.6018	160.4184
733.753	165.537
733.9042	171.3905
734.0554	173.2452
734.2066	169.5072
734.3578	168.1797
734.509	164.1644
734.6602	166.2119
734.8113	170.1997
734.9624	160.6655
735.1136	158.6942
735.2647	162.0081
735.4158	167.5278
735.5669	166.5909
735.718	163.7441
735.8691	167.7601
736.0201	165.6213
736.1713	164.6971
736.3223	165.5054
736.4733	164.4302
736.6244	163.5915
736.7755	162.1647
736.9265	156.205
737.0775	160.1246
737.2285	159.973
737.3795	162.5756
737.5305	161.4574
737.6815	164.4427
737.8324	168.274
737.9834	166.0324
738.1343	162.6578
738.2853	159.238
738.4362	159.297
738.5871	161.0312
738.738	162.5955
738.8889	152.4086
739.0399	158.5434
739.1907	160.8027
739.3416	156.4391
739.4925	156.8454
739.6433	155.8543
739.7942	153.2774
739.945	160.3036
740.0958	157.5775
740.2467	157.6637
740.3975	160.3657
740.5483	163.5038
740.6991	162.7523
740.8499	158.8669
741.0007	153.4883
741.1514	159.9287
741.3022	157.1655
741.4529	157.3858
741.6036	162.1342
741.7544	154.5882
741.9051	156.099
742.0558	153.8415
742.2065	157.8472
742.3572	158.9809
742.5079	155.9017
742.6586	154.3884
742.8093	155.8938
742.9599	164.5679
743.1105	159.4198
743.2612	158.0116
743.4118	161.2321
743.5624	155.2514
743.7131	158.2834
743.8636	153.0299
744.0142	151.3277
744.1648	154.2587
744.3154	156.6739
744.4659	154.9409
744.6165	152.6752
744.767	155.2367
744.9176	153.1107
745.0681	151.2176
745.2186	151.0376
745.3691	153.7285
745.5197	153.1823
745.6702	152.5766
745.8206	153.6686
745.9711	153.4713
746.1215	154.8184
746.272	154.1519
746.4224	153.9265
746.5729	153.1261
746.7233	149.1664
746.8737	145.9211
747.0241	147.1665
747.1745	149.0452
747.3249	147.5601
747.4753	143.1715
747.6257	148.4875
747.776	150.3744
747.9264	149.2744
748.0767	149.7463
748.2271	154.1278
748.3774	150.3755
748.5276	144.5484
748.678	155.2807
748.8282	154.543
748.9786	151.6936
749.1288	149.8878
749.2791	143.2003
749.4294	144.8598
749.5796	148.54
749.7299	146.703
749.8801	142.1699
750.0303	142.764
750.1805	149.8588
750.3307	152.4263
750.4809	147.5274
750.6311	143.0699
750.7813	139.9374
750.9314	141.209
751.0816	142.6825
751.2318	143.207
751.3818	138.4385
751.532	142.051
751.6821	148.5385
751.8322	147.8101
751.9823	144.8132
752.1324	140.9462
752.2825	147.6272
752.4326	137.814
752.5826	141.2614
752.7327	138.5785
752.8827	141.2369
753.0327	140.6738
753.1827	141.3865
753.3328	143.2362
753.4828	138.4817
753.6328	134.6153
753.7828	140.8371
753.9327	135.873
754.0827	137.1512
754.2327	137.2239
754.3826	135.9685
754.5325	135.1456
754.6825	134.3489
754.8324	137.996
754.9823	132.8897
755.1322	139.1589
755.2821	141.0793
755.432	136.5202
755.5818	135.4971
755.7318	137.0004
755.8816	131.392
756.0314	128.6079
756.1813	136.8947
756.3311	134.3809
756.4809	133.6867
756.6307	131.9092
756.7805	134.3721
756.9303	132.5538
757.0801	125.9831
757.2299	129.939
757.3796	130.8639
757.5294	124.7124
757.6791	130.4418
757.8289	135.7207
757.9786	133.515
758.1283	134.5178
758.278	128.9219
758.4277	122.2144
758.5773	125.8052
758.7271	123.8157
758.8767	127.8604
759.0264	123.8072
759.176	122.066
759.3256	115.8829
759.4753	95.3596
759.6249	80.00444
759.7745	71.56616
759.9241	67.64719
760.0737	64.12971
760.2233	61.40062
760.3729	60.5234
760.5224	52.40018
760.6719	53.90936
760.8215	55.60229
760.971	62.26154
761.1205	61.37104
761.2701	66.16912
761.4196	72.93071
761.5691	83.13674
761.7186	88.99887
761.868	96.35892
762.0175	97.60736
762.167	90.9623
762.3164	84.84622
762.4659	75.55613
762.6153	71.15685
762.7647	73.06177
762.9141	75.53364
763.0635	71.07668
763.2129	68.80364
763.3623	75.65691
763.5117	72.95368
763.661	70.25361
763.8104	69.17619
763.9597	75.35006
764.1091	70.79229
764.2584	77.94138
764.4077	84.26262
764.557	82.56624
764.7063	82.65492
764.8556	89.78615
765.0049	86.00649
765.1541	91.47546
765.3034	91.60152
765.4526	86.33389
765.6019	89.53426
765.7511	96.00177
765.9003	95.94357
766.0496	96.30928
766.1987	96.43791
766.348	98.07391
766.4971	98.06844
766.6463	100.5737
766.7955	97.84652
766.9446	99.47305
767.0938	106.5612
767.2429	111.2419
767.392	110.5326
767.5411	108.9917
767.6902	103.3599
767.8394	108.0708
767.9884	107.1467
768.1375	102.3884
768.2866	106.9438
768.4356	107.925
768.5847	109.8054
768.7337	107.6432
768.8828	111.9927
769.0317	108.4772
769.1808	102.2497
769.3298	104.6628
769.4788	107.1273
769.6277	110.2895
769.7767	108.8661
769.9257	102.4065
770.0746	105.1752
770.2236	109.5268
770.3725	105.9111
770.5214	109.8643
770.6703	105.7127
770.8193	107.058
770.9681	100.8807
771.1171	110.1218
771.2659	105.7389
771.4148	103.3496
771.5637	107.4615
771.7125	105.1157
771.8613	103.2107
772.0101	110.749
772.159	112.2037
772.3078	107.994
772.4566	104.7135
772.6054	107.5969
772.7542	110.1508
772.903	105.6734
773.0517	104.9978
773.2004	109.9277
773.3492	107.1843
773.4979	105.9353
773.6467	108.824
773.7953	100.7426
773.944	98.36692
774.0928	99.40533
774.2415	100.1794
774.3901	105.2139
774.5388	109.6273
774.6874	103.4501
774.8361	96.26312
774.9847	102.1474
775.1334	99.16326
775.282	95.06559
775.4305	102.7973
775.5792	103.8724
775.7277	108.1248
775.8763	103.3224
776.0249	106.4343
776.1735	102.1607
776.322	102.4464
776.4705	104.4821
776.6191	106.1384
776.7676	102.0647
776.9161	95.53688
777.0646	102.7506
777.2131	100.2242
777.3616	98.60579
777.5101	99.2072
777.6585	100.6627
777.8069	104.712
777.9554	99.66394
778.1038	94.80235
778.2523	95.5112
778.4007	94.28703
778.5491	105.217
778.6974	103.071
778.8459	95.72157
778.9942	100.3946
779.1426	99.56493
779.291	95.61104
779.4393	97.09978
779.5876	102.4352
779.736	100.103
779.8843	92.40263
780.0326	93.37436
780.1809	93.26246
780.3292	98.33558
780.4775	99.80915
780.6257	95.08727
780.774	95.05495
780.9222	95.15797
781.0704	94.29734
781.2187	95.61646
781.3669	97.84921
781.5151	91.12761
781.6633	93.13108
781.8115	92.37645
781.9597	95.95657
782.1078	99.83401
782.256	98.02977
782.4042	92.93657
782.5523	97.67994
782.7004	99.02171
782.8486	92.36461
782.9967	94.06928
783.1448	95.17492
783.2929	93.38921
783.441	94.07658
783.5891	95.85345
783.7371	93.89684
783.8851	97.28963
784.0332	94.45219
784.1812	88.51048
784.3293	87.98074
784.4773	86.47088
784.6253	89.99335
784.7733	93.33183
784.9213	88.97421
785.0692	94.28918
785.2172	91.66813
785.3652	92.88976
785.5131	96.34512
785.6611	90.74188
785.809	95.17074
785.9569	89.95766
786.1048	85.99414
786.2527	85.01907
786.4006	89.44207
786.5485	93.34892
786.6964	90.74746
786.8442	87.84203
786.9921	89.52803
787.1399	87.62035
787.2877	88.69476
787.4355	89.09402
787.5833	93.17046
787.7311	82.34524
787.8789	85.60038
788.0267	83.12078
788.1745	90.80027
788.3223	88.94146
788.47	82.21518
788.6177	88.21262
788.7654	90.8804
788.9132	88.09869
789.0609	82.05653
789.2086	85.82035
789.3563	90.68015
789.504	91.26926
789.6517	82.36663
789.7993	79.10653
789.947	84.83871
790.0946	85.74596
790.2422	83.58749
790.3898	83.80424
790.5375	92.47309
790.6851	86.93245
790.8326	82.32075
790.9802	86.22031
791.1278	86.2387
791.2754	84.42558
791.423	84.96043
791.5705	88.24334
791.718	81.72756
791.8655	84.64538
792.0131	84.72054
792.1606	80.69042
792.308	84.45584
792.4556	84.29051
792.603	87.03203
792.7505	87.13376
792.8979	83.99245
793.0454	79.05167
793.1928	78.55093
793.3403	78.78719
793.4877	76.97301
793.6351	78.24963
793.7825	83.54913
793.9299	84.44223
794.0772	85.4577
794.2246	85.26919
794.3719	82.22358
794.5193	81.04482
794.6666	81.03027
794.814	81.41451
794.9613	79.66785
795.1086	76.07233
795.2559	80.90212
795.4032	80.31694
795.5505	81.79629
795.6978	80.3197
795.845	82.11034
795.9922	77.53255
796.1395	79.15211
796.2867	77.99715
796.4339	80.54752
796.5811	84.30001
796.7283	84.05431
796.8755	81.2752
797.0227	80.41434
797.1699	83.06165
797.317	77.46604
797.4642	78.35272
797.6113	81.41708
797.7584	79.81667
797.9056	82.20591
798.0527	82.89094
798.1998	82.55684
798.3469	80.0155
798.494	78.44564
798.641	79.85193
798.7881	83.04793
798.9351	77.84489
799.0822	72.95273
799.2292	68.2422
799.3762	73.90944
799.5232	84.23055
799.6702	78.6134
799.8172	79.59113
799.9642	70.20638
800.1111	73.9696
800.2581	74.57061
800.4051	72.07769
800.552	70.97044
800.6989	73.69645
800.8458	69.08484
800.9927	76.16412
801.1396	73.6548
801.2866	69.6895
801.4334	69.80635
801.5803	76.46363
801.7272	75.81464
801.874	76.0849
802.0209	73.11205
802.1677	70.45095
802.3145	73.68929
802.4613	72.00501
802.6081	69.85297
802.7549	75.8789
802.9017	67.79637
803.0485	73.57371
803.1952	69.5452
803.342	73.26706
803.4887	72.61887
803.6354	69.65731
803.7822	69.76764
803.9289	72.39159
804.0756	73.47415
804.2223	69.10867
804.369	78.16579
804.5156	71.54818
804.6623	72.10621
804.8089	66.77782
804.9556	68.5556
805.1022	71.42038
805.2488	72.90539
805.3954	68.19415
805.542	64.35473
805.6886	65.7142
805.8352	70.52405
805.9818	73.12155
806.1283	71.25006
806.2749	69.40781
806.4214	68.99538
806.5679	70.41631
806.7145	68.44935
806.861	65.5836
807.0074	67.218
807.154	65.24931
807.3004	66.76697
807.4469	73.08132
807.5934	72.71355
807.7398	68.85485
807.8862	67.19834
808.0327	72.03703
808.1791	69.72925
808.3255	72.63168
808.4719	63.84853
808.6183	63.99701
808.7647	70.7286
808.9111	64.4011
809.0574	68.7105
809.2037	67.13541
809.3501	70.0667
809.4965	66.81255
809.6428	65.02223
809.7891	67.272
809.9354	68.43461
810.0817	66.87735
810.2279	66.81662
810.3742	66.62341
810.5204	67.44424
810.6667	64.96608
810.8129	64.63429
810.9592	66.70887
811.1054	64.33675
811.2516	66.13999
811.3978	69.82213
811.5439	71.76363
811.6901	60.57708
811.8363	60.70271
811.9825	63.36094
812.1286	58.04265
812.2748	61.27559
812.4209	61.52776
812.567	66.89283
812.7131	65.58904
812.8592	61.92055
813.0053	64.34606
813.1514	58.26304
813.2974	52.39906
813.4435	57.31289
813.5895	59.02435
813.7356	60.99248
813.8816	61.04091
814.0276	58.72696
814.1736	53.26108
814.3196	55.21374
814.4656	57.59722
814.6116	56.19538
814.7576	55.40238
814.9035	52.79418
815.0494	54.94631
815.1954	54.45178
815.3413	55.78214
815.4872	56.16004
815.6331	56.61613
815.779	55.37494
815.9249	58.63799
816.0707	54.80113
816.2166	50.80328
816.3625	44.80674
816.5083	45.57862
816.6542	52.72134
816.8	51.41773
816.9458	50.45345
817.0916	53.95547
817.2374	54.88321
817.3832	54.57906
817.5289	52.65027
817.6747	54.05433
817.8204	52.05948
817.9662	48.27087
818.1119	50.392
818.2576	54.13004
818.4034	54.68558
818.5491	54.20211
818.6948	50.44966
818.8405	51.67427
818.9861	58.94712
819.1318	53.40863
819.2774	52.13247
819.423	52.23629
819.5687	52.84769
819.7143	54.75446
819.8599	53.19879
820.0055	48.61238
820.1511	51.62615
820.2967	54.20223
820.4422	56.38321
820.5878	59.90657
820.7333	50.66639
820.8788	58.03798
821.0244	58.05469
821.1699	52.84614
821.3154	52.66162
821.4609	51.2412
821.6064	56.89629
821.7519	54.51656
821.8973	58.68744
822.0428	52.99078
822.1882	53.48067
822.3337	53.84806
822.4791	48.24378
822.6245	52.5863
822.7699	47.5555
822.9153	44.87244
823.0607	38.27172
823.2061	37.50568
823.3514	43.73502
823.4968	45.68572
823.6422	47.88247
823.7875	50.98381
823.9328	44.49857
824.0781	48.18291
824.2234	45.29029
824.3687	45.52791
824.514	49.9412
824.6592	50.91216
824.8045	52.00681
824.9498	53.22102
825.095	47.48981
825.2402	54.2734
825.3854	54.34105
825.5306	49.94204
825.6758	48.45723
825.821	44.62864
825.9662	54.59585
826.1114	55.18586
826.2565	52.55227
826.4017	47.55597
826.5468	47.1627
826.692	51.33298
826.837	49.37156
826.9822	51.22199
827.1273	50.68145
827.2723	43.73682
827.4174	47.96035
827.5625	44.93193
827.7075	43.98438
827.8526	50.97106
827.9976	51.869
828.1426	44.6533
828.2877	42.58279
828.4327	46.67542
828.5776	52.07323
828.7227	45.04227
828.8676	46.88325
829.0126	45.59557
829.1575	43.16151
829.3024	47.25648
829.4474	48.03213
829.5923	48.97404
829.7372	49.97937
829.8821	47.85419
830.027	53.14563
830.1719	49.23019
830.3168	52.50906
830.4616	49.45471
830.6064	42.33274
830.7513	51.13852
830.8961	47.248
831.041	46.09582
831.1857	50.8326
831.3306	46.73592
831.4753	46.59071
831.6201	47.91547
831.7649	46.20985
831.9096	47.08402
832.0544	39.73875
832.1991	42.37088
832.3438	43.71828
832.4885	48.27182
832.6332	46.77425
832.778	49.93488
832.9226	44.79046
833.0673	46.32427
833.2119	50.28782
833.3566	43.06541
833.5012	39.90965
833.6459	46.5894
833.7905	47.3048
833.9351	44.86892
834.0797	40.68598
834.2243	50.48401
834.3688	46.92577
834.5134	51.04758
834.658	49.12244
834.8026	49.9945
834.9471	45.34933
835.0916	44.62094
835.2361	46.52183
835.3806	45.27905
835.5251	49.33721
835.6696	44.53151
835.8141	46.46931
835.9586	45.11287
836.103	45.91851
836.2474	43.90951
836.3918	48.26402
836.5363	47.44138
836.6807	50.83956
836.8251	49.14244
836.9695	48.027
837.1138	44.1726
837.2582	42.20723
837.4026	48.18681
837.5469	52.15959
837.6913	48.98521
837.8356	42.94225
837.9799	43.29716
838.1242	46.23426
838.2686	41.58444
838.4128	42.17393
838.5571	42.35712
838.7014	46.08769
838.8456	43.65408
838.9899	45.6994
839.1341	43.19294
839.2783	40.51319
839.4225	45.43594
839.5667	46.74486
839.7109	45.72047
839.8551	44.03067
839.9993	44.43592
840.1434	49.29454
840.2876	47.53926
840.4317	46.95771
840.5759	47.51188
840.72	46.70967
840.8641	46.5028
841.0082	46.26392
841.1523	45.98876
841.2963	43.81458
841.4404	44.3658
841.5845	45.34555
841.7285	46.71782
841.8726	45.743
842.0165	45.54398
842.1606	48.54748
842.3046	43.88428
842.4485	43.74648
842.5925	43.63259
842.7365	46.3124
842.8805	44.47607
843.0244	45.29478
843.1684	49.00871
843.3123	46.01992
843.4562	43.15084
843.6002	39.87211
843.744	39.81512
843.8879	42.89365
844.0318	41.9385
844.1757	41.60993
844.3195	45.39934
844.4634	43.10236
844.6072	42.73295
844.751	44.29922
844.8948	46.01529
845.0386	40.60812
845.1824	38.7932
845.3262	38.85218
845.47	39.92303
845.6138	47.9957
845.7575	43.42222
845.9012	41.17768
846.045	47.49023
846.1887	40.98168
846.3324	45.39824
846.4761	45.78113
846.6198	44.40274
846.7635	45.73648
846.9071	41.27551
847.0508	40.95639
847.1944	43.46127
847.3381	45.63571
847.4817	43.67763
847.6253	45.70841
847.7689	46.74726
847.9125	45.1888
848.0561	40.36624
848.1996	43.5246
848.3432	43.35747
848.4868	49.90779
848.6303	44.46164
848.7738	41.05387
848.9174	37.6483
849.0609	41.5378
849.2043	39.24225
849.3478	40.80159
849.4913	43.27435
849.6348	38.93358
849.7782	36.26319
849.9217	39.7217
850.0651	40.85961
850.2086	39.14842
850.3519	43.13372
850.4954	44.12844
850.6387	41.24591
850.7821	36.86055
850.9255	39.35427
851.0688	35.85818
851.2122	38.71977
851.3555	38.85938
851.4988	39.57177
851.6422	40.56384
851.7855	43.76727
851.9288	37.42332
852.0721	37.10255
852.2153	39.89334
852.3586	40.15399
852.5018	42.0253
852.6451	41.95889
852.7883	38.75949
852.9315	36.83271
853.0748	37.76547
853.218	39.78125
853.3611	39.34537
853.5043	38.39214
853.6475	37.81386
853.7906	38.53171
853.9338	38.28162
854.0769	31.81875
854.22	29.65929
854.3632	31.97698
854.5063	35.91578
854.6494	38.03924
854.7924	37.01112
854.9355	38.93156
855.0786	36.83222
855.2216	33.89383
855.3647	38.93451
855.5077	37.47092
855.6507	38.5205
855.7937	42.04621
855.9367	41.29922
856.0797	38.60526
856.2227	37.16228
856.3657	37.63118
856.5086	38.04227
856.6516	39.94302
856.7945	39.94551
856.9374	43.36343
857.0803	42.26183
857.2232	39.92371
857.3661	35.91176
857.509	34.71247
857.6519	33.4726
857.7947	35.92179
857.9376	38.0892
858.0804	34.43419
858.2232	37.47825
858.366	35.84317
858.5089	41.43142
858.6516	35.41057
858.7944	37.5552
858.9372	40.36232
859.08	39.2823
859.2227	35.91953
859.3654	42.37299
859.5082	39.97279
859.6509	37.39585
859.7936	33.4294
859.9363	35.63238
860.079	33.85102
860.2217	35.16404
860.3643	41.59867
860.507	39.1939
860.6496	33.76062
860.7922	39.20147
860.9349	35.64624
861.0775	40.90298
861.2201	37.07255
861.3627	39.26904
861.5052	37.30442
861.6478	40.34237
861.7904	35.25375
861.9329	35.50161
862.0755	31.84805
862.218	38.31806
862.3605	32.45689
862.503	35.83677
862.6455	34.08434
862.788	36.60049
862.9305	37.11574
863.0729	34.38617
863.2154	32.79554
863.3578	33.95561
863.5002	32.3948
863.6426	36.72355
863.7851	39.88405
863.9275	35.62252
864.0698	31.73244
864.2122	35.44234
864.3546	34.21284
864.4969	32.88837
864.6393	42.04638
864.7816	36.37519
864.924	32.86836
865.0662	32.62187
865.2086	33.71526
865.3508	32.4574
865.4931	30.48308
865.6354	27.11419
865.7776	29.69353
865.9199	31.16396
866.0621	30.67463
866.2043	25.02121
866.3466	26.24961
866.4888	27.42389
866.6309	33.55051
866.7731	30.83335
866.9153	29.5711
867.0574	34.58209
867.1996	35.58372
867.3417	31.97577
867.4839	27.98124
867.626	31.75458
867.7681	29.80641
867.9102	32.36954
868.0522	29.30156
868.1943	33.12934
868.3364	34.05489
868.4785	31.91897
868.6205	34.18985
868.7625	33.88355
868.9045	32.2384
869.0465	36.08915
869.1885	36.55529
869.3305	33.06082
869.4725	34.38302
869.6144	32.93511
869.7564	33.49524
869.8983	30.81574
870.0403	30.36972
870.1822	31.02696
870.3241	32.70184
870.466	31.52273
870.6079	27.45195
870.7498	31.94481
870.8916	33.14572
871.0335	31.44263
871.1754	28.4392
871.3171	33.83461
871.459	32.09093
871.6008	28.4773
871.7426	30.19243
871.8844	31.66812
872.0262	32.79942
872.1679	30.6929
872.3097	32.95013
872.4514	36.18629
872.5931	26.42323
872.7349	26.77033
872.8766	35.81199
873.0183	34.72081
873.16	28.85304
873.3017	27.94351
873.4434	26.44934
873.585	32.60609
873.7266	29.35099
873.8683	28.08392
874.0099	25.33291
874.1516	26.3086
874.2932	31.699
874.4348	30.52717
874.5763	31.15133
874.7179	37.82165
874.8594	34.06509
875.001	31.25541
875.1425	25.84821
875.2841	29.17819
875.4256	31.43768
875.5671	28.66567
875.7086	24.63601
875.85	28.07656
875.9915	28.34063
876.133	30.49446
876.2744	31.56406
876.4159	30.72593
876.5573	32.19164
876.6987	30.03281
876.8401	28.62913
876.9815	34.45551
877.1229	30.15649
877.2643	30.57095
877.4056	28.20822
877.547	30.14878
877.6884	25.66362
877.8297	32.09048
877.971	27.46146
878.1123	29.51545
878.2536	28.46124
878.3949	32.03481
878.5362	29.31371
878.6774	26.93048
878.8187	26.69925
878.9599	27.84832
879.1011	28.16062
879.2424	26.27096
879.3836	26.94402
879.5248	27.09685
879.666	27.59941
879.8071	25.17887
879.9483	27.06289
880.0895	26.60365
880.2306	33.87131
880.3718	34.96965
880.5129	30.11456
880.654	22.59612
880.7951	25.28572
880.9362	26.04701
881.0773	29.08879
881.2183	25.40636
881.3594	30.85506
881.5004	25.83916
881.6414	29.9007
881.7825	32.67221
881.9235	30.83724
882.0645	24.32519
882.2054	19.52592
882.3464	25.40805
882.4874	27.39546
882.6284	25.25909
882.7693	28.05919
882.9103	25.72219
883.0512	24.31438
883.1921	24.9487
883.333	32.60329
883.4739	29.31758
883.6147	26.11805
883.7556	27.64506
883.8965	24.84572
884.0374	26.27962
884.1782	28.21161
884.319	28.54248
884.4598	28.25411
884.6006	25.6901
884.7414	22.32404
884.8822	29.94234
885.0229	30.00386
885.1637	22.97425
885.3044	23.70173
885.4452	27.98565
885.5859	27.95652
885.7266	25.25624
885.8673	26.41346
886.008	26.49027
886.1487	25.69176
886.2894	22.46517
886.43	23.16652
886.5707	22.62981
886.7113	23.97252
886.8519	22.69412
886.9926	24.82638
887.1331	26.20452
887.2737	21.0404
887.4143	26.31036
887.5549	29.97125
887.6954	27.99414
887.836	25.01546
887.9765	29.72229
888.1171	25.04456
888.2576	26.13913
888.3981	27.66713
888.5386	25.33284
888.679	26.95596
888.8195	22.74951
888.96	24.93302
889.1004	26.91715
889.2408	22.93411
889.3813	24.64137
889.5217	28.66212
889.6621	27.70714
889.8025	23.83794
889.9429	23.74827
890.0833	26.58618
890.2236	24.16216
890.364	24.26682
890.5043	20.97356
890.6446	20.8805
890.7849	26.08329
890.9252	30.92263
891.0655	25.94288
891.2058	26.32975
891.3461	23.32176
891.4863	22.12546
891.6266	29.78024
891.7668	24.59675
891.907	19.21481
892.0472	22.20518
892.1874	25.14973
892.3276	25.38109
892.4678	27.58939
892.608	24.89562
892.7481	22.33247
892.8883	26.62378
893.0284	23.65331
893.1685	26.35678
893.3087	29.72925
893.4487	26.19457
893.5889	18.72385
893.7289	28.89453
893.869	25.30725
894.009	23.57342
894.1491	21.59288
894.2891	23.11966
894.4291	23.21382
894.5692	21.88871
894.7092	21.39819
894.8491	20.07772
894.9891	26.19996
895.1291	23.53531
895.269	22.86796
895.409	25.46518
895.549	24.6624
895.6888	24.40861
895.8288	21.92405
895.9687	22.49226
896.1086	24.23363
896.2484	18.09741
896.3883	19.40479
896.5281	23.47973
896.668	21.94316
896.8079	27.3983
896.9476	20.52174
897.0875	20.60019
897.2272	22.04582
897.3671	18.49912
897.5068	17.46408
897.6466	18.22209
897.7864	20.94824
897.9261	20.97893
898.0658	27.00543
898.2056	21.44357
898.3453	25.36852
898.4849	18.69957
898.6246	23.20585
898.7643	20.51881
898.904	19.29008
899.0436	16.48488
899.1833	18.95347
899.3229	18.85738
899.4625	20.10765
899.6021	24.31135
899.7417	15.83174
899.8813	22.61076
900.0209	20.82941
900.1605	19.4416
900.3	20.702
900.4395	22.15672
900.579	20.13984
900.7186	18.96613
900.8581	15.53108
900.9976	18.34615
901.1371	18.36562
901.2766	18.11428
901.416	21.91368
901.5555	23.49721
901.6949	19.61498
901.8344	23.24658
901.9738	21.20998
902.1132	18.95959
902.2526	21.24973
902.3919	18.58925
902.5313	18.30726
902.6707	19.14609
