SPECTRUM DATA FILE
SpectrumCount:	1
PixelCount:	3648
UserName:	ToughBook User
SampleName:	
LightSource:	
Comments:	
DeviceName:	Qwave
DeviceManufacturer:	Broadcom
DeviceSerialNo:	11311

Name:	last spectrum
Date:	2024-05-02T14:51:36.4333752+02:00
ExposureTime:	0.02
TemporalAvg:	1
IntensityUnit:	normalizedCounts
CCDLoadLevel:	0.07428069
Temperature:	32.81036
DiagramColor:	200
ProcessingSteps:	335

Wavelength [nm]	Intensity1
334.421	22.34539
334.5891	22.26733
334.7573	16.09993
334.9254	17.19258
335.0935	18.64128
335.2616	19.43006
335.4297	21.15026
335.5978	24.20387
335.7659	21.65018
335.934	25.10118
336.1021	23.40771
336.2701	19.37902
336.4382	17.68133
336.6063	22.01112
336.7744	15.44586
336.9424	16.33786
337.1105	18.99271
337.2785	22.69736
337.4466	21.44094
337.6146	17.67805
337.7827	16.76933
337.9507	21.21162
338.1187	21.02098
338.2867	14.44196
338.4548	16.08493
338.6228	18.69182
338.7908	20.54741
338.9588	15.90194
339.1268	15.49819
339.2948	18.62796
339.4628	18.24878
339.6308	18.68815
339.7988	17.144
339.9667	17.6342
340.1347	17.39329
340.3027	17.24557
340.4707	18.66347
340.6386	18.06956
340.8066	19.42183
340.9745	16.28076
341.1425	18.11402
341.3104	13.95305
341.4784	18.01409
341.6463	20.85509
341.8142	16.32079
341.9821	21.19821
342.1501	19.97392
342.318	20.57852
342.4859	19.92003
342.6538	20.3525
342.8217	19.1601
342.9896	22.11763
343.1575	23.70399
343.3254	21.00479
343.4933	22.5428
343.6612	23.87835
343.829	17.88156
343.9969	20.34841
344.1648	23.52827
344.3326	17.13645
344.5005	21.69018
344.6683	23.52486
344.8362	19.84944
345.004	19.45243
345.1719	19.76156
345.3397	20.77913
345.5075	23.03375
345.6754	21.10289
345.8432	21.10172
346.011	19.86528
346.1788	21.06247
346.3466	18.0865
346.5144	18.53684
346.6822	21.61073
346.85	28.16693
347.0178	19.25662
347.1856	22.38359
347.3534	20.66615
347.5211	20.08979
347.6889	19.44932
347.8567	18.37593
348.0244	19.96665
348.1922	16.65575
348.3599	21.70704
348.5277	22.59448
348.6954	20.04582
348.8632	17.7934
349.0309	20.44656
349.1986	18.08587
349.3663	17.59981
349.5341	17.92654
349.7018	18.49361
349.8695	19.33125
350.0372	18.60468
350.2049	18.06018
350.3726	16.92917
350.5403	22.2304
350.7079	23.15016
350.8756	20.13569
351.0433	19.47555
351.211	18.55778
351.3786	17.96762
351.5463	18.88873
351.714	21.18863
351.8816	27.62828
352.0493	16.98532
352.2169	18.8301
352.3846	20.00993
352.5522	22.23405
352.7198	25.45224
352.8875	21.21136
353.0551	20.84135
353.2227	23.79588
353.3903	23.38345
353.5579	23.0707
353.7255	21.05382
353.8931	21.05545
354.0607	21.17941
354.2283	21.41446
354.3958	22.674
354.5634	18.42715
354.731	23.52378
354.8986	20.65561
355.0661	20.07028
355.2337	26.99649
355.4012	25.68146
355.5688	25.86192
355.7363	23.901
355.9039	19.67294
356.0714	22.41087
356.239	22.28306
356.4065	21.93423
356.574	23.87747
356.7415	21.41947
356.909	19.07785
357.0765	20.9031
357.244	21.21888
357.4115	23.82136
357.579	23.34619
357.7465	24.53551
357.914	21.44996
358.0815	19.49678
358.249	23.2891
358.4164	21.92243
358.5839	22.62309
358.7513	24.72347
358.9188	21.46982
359.0862	19.15566
359.2537	23.16319
359.4211	23.12088
359.5886	24.86757
359.756	28.01849
359.9234	21.68921
360.0909	23.17166
360.2583	24.44378
360.4257	19.49704
360.5931	21.17794
360.7605	22.09772
360.9279	22.44865
361.0953	23.69483
361.2627	27.70327
361.4301	25.58193
361.5974	20.89905
361.7648	21.04088
361.9322	21.98625
362.0995	25.59135
362.2669	26.03667
362.4343	27.49183
362.6016	23.95235
362.769	25.02063
362.9363	25.47895
363.1036	26.21384
363.271	28.90584
363.4383	23.90375
363.6056	26.15471
363.7729	25.0705
363.9402	25.01868
364.1075	23.22156
364.2748	23.07328
364.4421	25.87438
364.6094	30.93306
364.7767	23.74535
364.944	27.02852
365.1113	26.63334
365.2786	22.11988
365.4458	27.02984
365.6131	24.25886
365.7803	21.27534
365.9476	29.41192
366.1148	27.17503
366.2821	27.94572
366.4493	25.76415
366.6166	30.48869
366.7838	28.03024
366.951	24.86495
367.1182	26.15712
367.2855	27.95617
367.4527	28.7233
367.6199	26.69621
367.7871	23.03902
367.9543	25.35678
368.1215	23.46114
368.2886	23.22851
368.4558	27.42564
368.623	22.69244
368.7902	28.17234
368.9573	25.36715
369.1245	24.4986
369.2917	23.77022
369.4588	26.4364
369.6259	24.8247
369.7931	28.91043
369.9602	22.7793
370.1274	26.90356
370.2945	27.34537
370.4616	31.1336
370.6287	26.02499
370.7958	23.17321
370.963	26.93954
371.1301	27.08524
371.2971	28.2369
371.4643	29.26266
371.6313	27.4259
371.7984	26.78632
371.9655	27.10142
372.1326	28.60287
372.2997	27.7114
372.4667	30.91022
372.6338	31.02999
372.8008	31.85449
372.9679	29.03815
373.1349	30.45469
373.3019	30.0127
373.469	30.24586
373.636	30.71949
373.803	27.34662
373.9701	30.20919
374.1371	29.11893
374.3041	33.96488
374.4711	29.13316
374.6381	29.1983
374.8051	31.58425
374.9721	35.31305
375.1391	31.59665
375.3061	27.92607
375.473	28.75875
375.64	26.54614
375.8069	29.95491
375.9739	36.28827
376.1409	30.87014
376.3078	30.71159
376.4748	24.92606
376.6417	31.11906
376.8087	31.81783
376.9756	31.1944
377.1425	30.84814
377.3094	27.73388
377.4763	24.38673
377.6432	30.18012
377.8102	30.92762
377.9771	33.80696
378.144	32.13468
378.3109	29.07644
378.4777	29.16652
378.6446	32.49615
378.8115	31.15677
378.9784	31.00063
379.1452	35.30625
379.3121	31.68395
379.4789	33.82327
379.6458	25.47146
379.8127	28.80655
379.9795	26.70259
380.1463	27.76554
380.3131	31.13812
380.48	33.01785
380.6468	31.61735
380.8136	26.41363
380.9804	21.71843
381.1472	29.51455
381.314	25.74165
381.4808	23.85524
381.6476	22.4497
381.8144	23.87321
381.9812	25.7446
382.148	28.82591
382.3147	25.48238
382.4815	26.21845
382.6483	29.64257
382.815	32.57659
382.9818	30.72923
383.1485	29.0895
383.3153	27.18346
383.482	28.21776
383.6487	31.28146
383.8155	30.10898
383.9822	31.24495
384.1489	32.02155
384.3156	32.97174
384.4823	32.9222
384.649	31.32474
384.8157	38.48457
384.9824	33.96883
385.1491	32.32868
385.3158	33.73475
385.4825	34.98482
385.6491	35.55001
385.8158	34.92351
385.9825	33.30361
386.1491	31.51313
386.3157	34.17952
386.4824	34.91489
386.649	36.64033
386.8157	35.53093
386.9823	34.36796
387.1489	32.08255
387.3156	34.18441
387.4821	35.18024
387.6488	40.12839
387.8154	32.08527
387.982	29.0045
388.1486	30.06728
388.3152	34.11214
388.4818	32.91413
388.6483	34.87725
388.8149	36.88168
388.9815	30.04215
389.148	29.15594
389.3146	34.1793
389.4811	37.61387
389.6477	34.48206
389.8142	36.32767
389.9808	37.69526
390.1473	32.30134
390.3138	30.22492
390.4804	35.36357
390.6469	36.03917
390.8134	40.93121
390.9799	40.76716
391.1464	40.73353
391.3129	38.98227
391.4794	38.15129
391.6459	36.43266
391.8124	30.65732
391.9789	36.91584
392.1453	33.54221
392.3118	34.56144
392.4782	34.41522
392.6447	35.95541
392.8112	32.04992
392.9776	29.92048
393.144	31.47561
393.3105	33.06017
393.4769	28.12386
393.6433	31.90873
393.8098	33.28714
393.9762	37.07152
394.1426	31.18706
394.309	34.4575
394.4754	37.13792
394.6418	33.78047
394.8082	35.79814
394.9746	38.46939
395.141	41.23188
395.3073	43.72549
395.4737	40.13411
395.64	42.30221
395.8064	43.28411
395.9728	38.01234
396.1391	37.2562
396.3055	37.66815
396.4718	39.02621
396.6381	38.47179
396.8045	35.48008
396.9708	37.91745
397.1371	32.96132
397.3034	40.07082
397.4697	45.34481
397.636	39.61444
397.8023	41.55984
397.9686	44.16377
398.1349	46.58611
398.3012	44.30505
398.4675	42.20902
398.6337	44.00972
398.8	46.02364
398.9662	47.8488
399.1325	44.74989
399.2988	46.48502
399.465	48.33012
399.6313	40.37853
399.7975	43.49494
399.9637	45.90289
400.1299	46.49997
400.2961	46.34104
400.4624	41.73068
400.6286	45.42307
400.7948	46.4271
400.961	47.61405
401.1272	46.04951
401.2934	49.58514
401.4595	48.67438
401.6257	48.5161
401.7919	48.89379
401.9581	50.77851
402.1242	48.99176
402.2904	49.69409
402.4565	47.2326
402.6227	44.59744
402.7888	50.39055
402.955	51.28308
403.1211	47.03744
403.2872	46.27524
403.4533	44.06763
403.6194	45.69231
403.7856	49.45163
403.9517	46.90371
404.1177	44.41146
404.2838	47.47205
404.4499	42.9085
404.616	46.21231
404.7821	44.0895
404.9482	45.27087
405.1142	48.27209
405.2803	50.64425
405.4464	52.10522
405.6124	52.18658
405.7784	48.84032
405.9445	53.04125
406.1105	47.75484
406.2766	46.50805
406.4426	48.02786
406.6086	50.61459
406.7746	53.30454
406.9406	54.32512
407.1066	51.00296
407.2726	53.23066
407.4386	54.4264
407.6046	50.134
407.7706	51.91395
407.9366	55.86518
408.1025	56.79068
408.2685	55.10539
408.4344	59.61393
408.6004	56.57408
408.7664	59.11403
408.9323	57.0716
409.0983	57.45654
409.2642	60.80558
409.4301	60.25878
409.596	56.20942
409.762	59.17614
409.9279	52.39466
410.0938	55.98922
410.2597	60.36347
410.4256	56.42212
410.5915	55.91286
410.7574	61.16264
410.9232	60.61607
411.0891	57.6425
411.255	61.87518
411.4209	63.57944
411.5867	65.27477
411.7526	62.01906
411.9184	68.98421
412.0843	69.0353
412.2501	64.66629
412.4159	66.29018
412.5818	62.49581
412.7476	63.2385
412.9134	62.3598
413.0792	67.43501
413.245	62.05136
413.4108	62.84048
413.5766	63.69245
413.7424	63.22747
413.9082	65.13446
414.074	64.86956
414.2397	62.89648
414.4055	57.56765
414.5713	61.81608
414.737	67.1232
414.9028	64.99599
415.0685	63.87141
415.2343	65.92391
415.4	59.92611
415.5658	57.66994
415.7315	62.66145
415.8972	64.50836
416.0629	64.6613
416.2286	66.02184
416.3943	67.19223
416.56	60.58988
416.7257	65.4341
416.8914	64.64421
417.0571	63.43868
417.2228	63.91949
417.3884	64.15678
417.5541	66.22195
417.7198	63.52922
417.8854	68.372
418.0511	67.2375
418.2167	63.97047
418.3824	64.74039
418.548	65.24873
418.7136	59.32981
418.8792	60.90573
419.0449	66.66546
419.2105	63.73657
419.3761	68.78283
419.5417	70.90022
419.7073	64.38314
419.8729	64.01347
420.0385	59.93297
420.204	64.68798
420.3696	71.84152
420.5352	72.93397
420.7007	71.69957
420.8663	69.09365
421.0319	67.7634
421.1974	68.84956
421.3629	71.7049
421.5285	68.21996
421.694	70.26091
421.8595	72.18031
422.0251	77.3526
422.1906	76.87842
422.3561	65.69867
422.5216	63.72892
422.6871	63.59238
422.8526	71.31467
423.0181	72.7589
423.1835	78.847
423.349	76.36594
423.5145	75.15285
423.68	68.18513
423.8454	70.86606
424.0109	73.74953
424.1763	77.24426
424.3418	75.47741
424.5072	79.84446
424.6726	77.03178
424.838	78.49639
425.0035	73.3161
425.1689	74.8411
425.3343	80.68729
425.4997	81.12529
425.6651	78.00574
425.8305	80.37941
425.9959	80.97072
426.1613	83.41619
426.3267	82.16107
426.492	76.53542
426.6574	74.18732
426.8228	76.0612
426.9881	79.56593
427.1534	77.08108
427.3188	70.30573
427.4841	73.70109
427.6495	76.05563
427.8148	76.67656
427.9801	72.49808
428.1454	79.21885
428.3107	76.40453
428.476	75.79198
428.6414	73.06404
428.8066	74.57941
428.9719	75.33729
429.1372	78.63023
429.3025	79.16229
429.4678	77.43459
429.633	71.75999
429.7983	71.17845
429.9636	69.93155
430.1288	66.31112
430.294	67.894
430.4593	70.38519
430.6245	63.04217
430.7897	59.78669
430.955	61.13001
431.1202	62.93562
431.2854	65.55746
431.4506	75.02388
431.6158	85.09373
431.781	90.93731
431.9462	89.5231
432.1114	83.06252
432.2766	79.67389
432.4417	78.88274
432.6069	73.90948
432.772	77.00649
432.9372	82.05331
433.1024	82.95985
433.2675	82.0164
433.4326	85.55054
433.5977	82.39431
433.7629	77.66082
433.928	69.69702
434.0931	71.72285
434.2582	77.52435
434.4233	81.63836
434.5884	85.66694
434.7535	89.62925
434.9186	90.66685
435.0837	89.77338
435.2488	89.68413
435.4138	89.39096
435.5789	84.27361
435.744	90.49911
435.909	90.8815
436.0741	89.2719
436.2391	91.33701
436.4042	92.89854
436.5692	90.47613
436.7342	93.50281
436.8992	90.34476
437.0643	90.9048
437.2293	98.69132
437.3943	90.73313
437.5593	88.66849
437.7243	88.35617
437.8893	95.72299
438.0542	89.90179
438.2192	89.84332
438.3842	87.09012
438.5491	82.42532
438.7141	82.15445
438.8791	88.50424
439.044	94.20403
439.209	90.38941
439.3739	91.05045
439.5388	95.33024
439.7037	98.12641
439.8687	98.69025
440.0336	98.77932
440.1985	99.19762
440.3634	95.05054
440.5283	95.15194
440.6932	91.02308
440.8581	93.20894
441.0229	102.9426
441.1878	104.1774
441.3527	103.7832
441.5175	100.5878
441.6824	98.83283
441.8472	107.5826
442.0121	108.57
442.1769	99.35674
442.3418	99.02347
442.5066	103.0747
442.6714	105.6449
442.8362	101.6455
443.001	103.9154
443.1659	103.9584
443.3307	104.9952
443.4955	104.7127
443.6602	102.3227
443.825	104.2085
443.9898	108.9745
444.1546	97.37077
444.3193	99.54123
444.4841	102.7164
444.6488	109.8927
444.8136	117.3999
444.9783	114.6497
445.1431	102.0257
445.3078	104.9544
445.4725	100.8959
445.6372	102.7252
445.802	102.172
445.9667	96.43791
446.1314	95.78151
446.2961	105.3916
446.4608	104.5534
446.6255	103.976
446.7901	102.3743
446.9548	102.6868
447.1195	105.3328
447.2841	109.5924
447.4488	119.6392
447.6134	114.2702
447.7781	111.6143
447.9427	109.4068
448.1074	111.0973
448.272	102.3248
448.4366	105.378
448.6012	107.9729
448.7658	111.2375
448.9305	112.3311
449.095	111.8232
449.2596	117.3613
449.4242	116.3038
449.5888	107.9922
449.7534	119.4873
449.9179	121.0826
450.0825	115.7779
450.2471	118.4332
450.4116	122.6277
450.5762	125.0111
450.7407	127.2248
450.9052	125.0027
451.0698	118.5625
451.2343	117.9701
451.3988	118.8077
451.5633	112.3626
451.7278	120.287
451.8923	123.2385
452.0568	121.8522
452.2213	121.3144
452.3858	117.9059
452.5503	119.6892
452.7148	118.7017
452.8792	114.2762
453.0437	110.0454
453.2081	117.593
453.3726	118.7924
453.537	119.3198
453.7015	120.7793
453.8659	126.3134
454.0303	125.3556
454.1947	124.8019
454.3592	129.8238
454.5236	131.7209
454.688	122.2125
454.8524	119.361
455.0168	119.2996
455.1811	122.8539
455.3455	124.2397
455.5099	129.409
455.6743	124.7411
455.8386	126.2607
456.003	130.6433
456.1673	132.3558
456.3317	131.1193
456.496	130.1073
456.6603	128.486
456.8246	135.6006
456.989	138.1394
457.1533	135.194
457.3176	135.1924
457.4819	131.7299
457.6462	132.4422
457.8105	127.3635
457.9748	137.2784
458.1391	132.0458
458.3033	131.0694
458.4676	130.9079
458.6319	135.9667
458.7961	135.4048
458.9604	129.9228
459.1246	137.1876
459.2888	133.6815
459.4531	129.3735
459.6173	124.665
459.7815	131.1147
459.9457	135.1433
460.11	130.2108
460.2741	128.9315
460.4384	129.3937
460.6025	135.4454
460.7667	138.2524
460.9309	135.1381
461.0951	126.2969
461.2592	131.9455
461.4234	136.1309
461.5876	134.8566
461.7517	131.2295
461.9159	131.4332
462.08	129.1941
462.2441	136.1691
462.4082	137.2955
462.5724	136.7755
462.7365	140.7578
462.9006	133.3104
463.0647	130.1098
463.2288	132.3962
463.3929	135.6103
463.557	136.436
463.721	132.9254
463.8851	131.0674
464.0492	130.3559
464.2132	133.3217
464.3773	134.927
464.5414	132.9307
464.7054	128.6316
464.8694	130.4934
465.0334	132.7771
465.1975	129.7365
465.3615	128.4865
465.5255	133.2559
465.6895	129.141
465.8535	132.4602
466.0175	137.0654
466.1815	138.5305
466.3455	142.2321
466.5095	134.6832
466.6734	120.8547
466.8374	124.675
467.0014	127.7897
467.1653	131.4564
467.3293	139.6229
467.4932	136.7346
467.6571	135.7064
467.8211	140.7915
467.985	136.0133
468.1489	137.6838
468.3128	139.9834
468.4767	136.8238
468.6406	139.3794
468.8045	142.5594
468.9684	145.4839
469.1323	138.9888
469.2962	141.4057
469.46	141.0955
469.6239	141.3174
469.7878	146.6306
469.9516	140.2423
470.1154	133.1567
470.2793	138.505
470.4431	141.3985
470.607	144.6744
470.7708	136.5062
470.9346	140.9024
471.0984	142.7268
471.2622	139.2351
471.426	138.4827
471.5898	145.097
471.7536	143.4182
471.9174	147.4889
472.0811	149.7355
472.2449	149.0976
472.4087	143.5186
472.5724	150.2619
472.7362	147.1562
472.8999	138.8933
473.0637	142.3647
473.2274	148.7075
473.3911	149.5576
473.5548	141.9048
473.7185	145.3757
473.8822	145.8454
474.0459	143.8499
474.2096	148.0398
474.3733	147.7446
474.537	152.3501
474.7007	150.6856
474.8643	145.2955
475.028	149.6964
475.1917	146.2307
475.3553	146.1374
475.519	154.4161
475.6826	146.4579
475.8463	141.3908
476.0099	147.7405
476.1735	141.9738
476.3371	143.7255
476.5007	139.8654
476.6643	141.5824
476.8279	148.7577
476.9915	155.7062
477.1551	153.8044
477.3187	155.4286
477.4823	152.0005
477.6458	151.8622
477.8094	151.4823
477.9729	160.1037
478.1365	155.0795
478.3	141.3158
478.4636	142.3458
478.6271	146.907
478.7906	147.1866
478.9541	145.9277
479.1176	145.6686
479.2812	146.225
479.4447	152.1247
479.6082	158.4108
479.7716	151.5006
479.9351	146.0129
480.0986	143.8251
480.2621	145.6428
480.4255	150.5012
480.589	151.879
480.7524	152.6274
480.9159	151.2072
481.0793	144.267
481.2428	149.418
481.4062	146.006
481.5696	146.0336
481.733	150.6662
481.8964	150.5054
482.0598	152.0629
482.2232	149.1379
482.3866	145.8652
482.55	143.3123
482.7134	149.2366
482.8768	154.5649
483.0401	149.6799
483.2035	146.9491
483.3668	150.4173
483.5302	149.8424
483.6935	148.4261
483.8568	143.0956
484.0202	143.3822
484.1835	147.6805
484.3468	145.2459
484.5101	152.6429
484.6734	156.8717
484.8367	149.4424
485	151.6832
485.1633	153.1845
485.3266	148.048
485.4899	146.5647
485.6531	142.3041
485.8164	136.6557
485.9796	125.4532
486.1429	123.6211
486.3061	127.8934
486.4694	131.6931
486.6326	140.8683
486.7958	142.7597
486.959	147.6236
487.1223	146.7442
487.2855	148.1879
487.4486	146.1002
487.6118	151.4094
487.775	152.7516
487.9382	150.1562
488.1014	158.0219
488.2646	154.2543
488.4277	157.9347
488.5909	157.2215
488.754	151.0648
488.9171	147.4066
489.0803	144.6112
489.2434	144.5192
489.4066	152.2989
489.5697	153.593
489.7328	163.1513
489.8959	170.1319
490.059	162.6988
490.2221	162.5977
490.3852	154.5188
490.5482	152.4227
490.7113	161.2768
490.8744	159.3033
491.0374	160.3055
491.2005	146.1745
491.3636	155.655
491.5266	163.5717
491.6896	161.9512
491.8527	162.2772
492.0157	153.9226
492.1787	152.9775
492.3417	157.2308
492.5047	164.2022
492.6677	165.439
492.8307	163.8299
492.9937	170.2628
493.1567	166.7943
493.3196	161.1799
493.4826	159.4678
493.6456	153.3698
493.8085	157.0279
493.9715	157.4044
494.1344	155.6994
494.2974	161.056
494.4603	163.373
494.6232	168.951
494.7861	171.91
494.949	175.4408
495.1119	169.1901
495.2748	168.5256
495.4377	167.2932
495.6006	165.7513
495.7635	161.6985
495.9264	155.4431
496.0892	164.2635
496.2521	168.0564
496.4149	166.6463
496.5778	168.5375
496.7407	167.2517
496.9035	161.7788
497.0663	166.1954
497.2291	163.7789
497.3919	167.9329
497.5547	173.7077
497.7176	170.2461
497.8804	169.6772
498.0432	174.3556
498.2059	169.1019
498.3687	162.5187
498.5315	162.771
498.6942	171.2363
498.857	169.2175
499.0198	171.904
499.1825	175.0394
499.3452	172.7821
499.508	168.1565
499.6707	170.6365
499.8334	164.9999
499.9962	164.6505
500.1589	167.7169
500.3216	164.6454
500.4843	168.0746
500.6469	163.9363
500.8096	158.4101
500.9723	168.1009
501.135	176.6264
501.2976	169.6864
501.4603	165.2504
501.623	170.6316
501.7856	173.8602
501.9482	171.2175
502.1109	164.4908
502.2735	174.7661
502.4361	174.6313
502.5987	176.4609
502.7614	175.4598
502.924	175.4208
503.0865	177.0318
503.2491	177.515
503.4117	176.4347
503.5743	176.2169
503.7368	176.3322
503.8994	170.8298
504.062	166.022
504.2245	169.8241
504.3871	180.6118
504.5496	189.412
504.7121	190.1301
504.8746	181.4671
505.0372	182.9029
505.1997	179.8722
505.3622	188.4798
505.5247	189.6078
505.6872	190.9882
505.8497	196.0679
506.0121	200.1376
506.1746	194.5525
506.3371	193.0794
506.4995	189.4207
506.662	186.7346
506.8244	190.966
506.9869	194.3731
507.1493	196.581
507.3117	201.701
507.4742	191.746
507.6366	186.0679
507.799	193.7942
507.9614	190.5313
508.1238	187.3252
508.2862	194.6448
508.4485	195.3707
508.6109	202.3538
508.7733	197.0227
508.9357	202.0762
509.098	205.0324
509.2604	210.6585
509.4227	210.6546
509.5851	213.92
509.7474	203.1348
509.9097	196.1803
510.072	199.0204
510.2343	204.9459
510.3966	210.6664
510.5589	210.9539
510.7212	200.5975
510.8835	199.7895
511.0458	197.4046
511.2081	204.1307
511.3703	216.3087
511.5326	222.5319
511.6949	215.6973
511.8571	215.533
512.0193	221.4887
512.1816	217.4547
512.3438	211.7138
512.506	210.0202
512.6682	208.1931
512.8304	208.2918
512.9926	209.8988
513.1548	214.1829
513.317	216.7133
513.4792	214.8822
513.6414	218.002
513.8035	212.9771
513.9657	212.711
514.1279	206.5566
514.29	209.1102
514.4521	209.3091
514.6143	217.29
514.7764	221.2297
514.9385	224.2033
515.1006	227.6749
515.2628	216.8114
515.4249	214.24
515.587	224.5939
515.7491	236.2611
515.9111	225.2905
516.0732	222.8717
516.2353	221.92
516.3973	221.339
516.5594	210.5001
516.7214	200.9903
516.8835	200.0384
517.0455	199.5202
517.2076	194.7007
517.3696	201.0521
517.5316	218.0719
517.6937	226.1881
517.8557	244.2982
518.0176	234.2525
518.1796	213.3547
518.3416	198.2439
518.5036	209.392
518.6656	215.48
518.8275	231.4802
518.9895	237.1722
519.1514	239.3585
519.3134	240.0831
519.4753	239.0006
519.6373	240.1698
519.7992	244.4521
519.9611	245.4836
520.123	251.8179
520.2849	243.607
520.4468	244.638
520.6087	240.3554
520.7706	237.68
520.9325	238.2383
521.0944	243.0396
521.2562	248.1322
521.4181	257.1161
521.58	257.615
521.7418	257.2302
521.9036	256.979
522.0655	262.1458
522.2273	266.8619
522.3891	264.2676
522.551	258.3308
522.7128	246.8043
522.8746	252.0336
523.0363	259.8625
523.1981	263.0472
523.3599	269.0685
523.5217	268.8898
523.6835	269.8517
523.8452	278.7647
524.007	282.2496
524.1687	282.6127
524.3304	288.4834
524.4922	277.8369
524.6539	283.9207
524.8157	280.0241
524.9774	283.1696
525.1391	283.0543
525.3008	288.9637
525.4625	286.8555
525.6241	290.7787
525.7858	293.9721
525.9475	288.6931
526.1092	278.2311
526.2709	266.9504
526.4325	274.83
526.5942	265.5247
526.7558	263.6062
526.9174	265.5884
527.079	263.9934
527.2407	271.7166
527.4023	281.4359
527.5639	287.5985
527.7255	294.6349
527.8871	302.0148
528.0487	300.2996
528.2103	293.3985
528.3718	293.3687
528.5334	302.2305
528.695	313.6408
528.8565	318.0247
529.0181	317.6431
529.1796	326.7039
529.3412	317.9337
529.5027	317.8331
529.6642	311.6858
529.8257	304.5689
529.9872	310.3313
530.1487	311.1304
530.3102	314.2926
530.4717	316.8414
530.6332	319.5509
530.7947	330.1852
530.9562	327.0345
531.1176	334.3689
531.2791	331.251
531.4405	329.5498
531.6019	317.6759
531.7634	315.6356
531.9248	318.5557
532.0862	321.1674
532.2477	329.0804
532.4091	314.0173
532.5704	303.721
532.7319	299.2218
532.8932	299.2846
533.0546	311.0267
533.216	314.2934
533.3774	320.7471
533.5388	324.5034
533.7001	323.9336
533.8615	321.6987
534.0228	318.4573
534.1841	313.3155
534.3455	317.8042
534.5068	325.8846
534.6681	328.896
534.8293	327.4215
534.9907	321.9468
535.152	327.3565
535.3132	333.2629
535.4745	336.6426
535.6358	331.5061
535.7971	335.4934
535.9583	337.2658
536.1196	332.4183
536.2808	326.9123
536.4421	321.8562
536.6033	319.8759
536.7645	315.9565
536.9258	320.5883
537.087	322.0161
537.2482	315.1393
537.4094	315.618
537.5706	324.3382
537.7318	331.3241
537.8929	332.0104
538.0541	337.7375
538.2153	323.0095
538.3764	328.4637
538.5376	330.6656
538.6987	333.2533
538.8599	330.0837
539.021	327.6501
539.1821	330.237
539.3432	326.2112
539.5043	318.3312
539.6655	318.1239
539.8265	312.5747
539.9876	323.5816
540.1487	327.5821
540.3098	317.6045
540.4708	315.8836
540.6319	309.4838
540.793	308.2832
540.954	309.9982
541.1151	314.8684
541.2761	317.6649
541.4371	323.2611
541.5981	322.3248
541.7592	330.622
541.9202	324.1959
542.0812	325.6895
542.2422	321.8464
542.4031	322.7456
542.5641	330.4843
542.7251	329.5828
542.886	323.7716
543.0471	323.2478
543.208	324.2422
543.369	315.1872
543.5298	313.2708
543.6908	323.377
543.8517	331.0601
544.0126	341.2515
544.1736	338.5728
544.3345	339.1777
544.4954	330.7507
544.6563	319.0525
544.8171	315.2971
544.978	332.5362
545.1389	340.9007
545.2997	333.7988
545.4606	329.1109
545.6215	334.1996
545.7823	331.8486
545.9432	335.0764
546.104	335.1232
546.2648	330.4952
546.4256	320.6626
546.5864	332.3006
546.7473	335.0118
546.908	332.9708
547.0688	331.1564
547.2296	337.7958
547.3904	331.8315
547.5511	325.4648
547.7119	317.5452
547.8727	320.2819
548.0334	332.2609
548.1942	331.0982
548.3549	330.5753
548.5156	337.7937
548.6763	337.4551
548.837	340.8432
548.9977	338.999
549.1584	342.4348
549.3192	337.8148
549.4798	338.9317
549.6405	341.5352
549.8011	337.7889
549.9619	334.9177
550.1225	334.9235
550.2831	336.3517
550.4438	340.3984
550.6044	341.5084
550.765	336.7401
550.9257	335.906
551.0863	336.7693
551.2469	333.807
551.4075	334.9152
551.5681	330.5004
551.7287	335.5487
551.8893	338.4236
552.0498	346.0005
552.2104	343.5295
552.371	353.7473
552.5315	345.5336
552.6921	338.6971
552.8526	330.8607
553.0131	333.5966
553.1736	336.3672
553.3342	340.2394
553.4947	339.8177
553.6552	334.8399
553.8157	334.211
553.9762	338.0602
554.1367	340.3849
554.2971	348.4651
554.4576	338.3167
554.618	340.0611
554.7785	345.3399
554.939	339.4025
555.0994	332.6055
555.2598	337.6978
555.4203	343.4645
555.5807	333.7488
555.7411	339.5175
555.9015	333.9185
556.0619	335.9157
556.2223	337.8665
556.3827	328.8844
556.5431	332.9981
556.7034	327.5714
556.8638	325.4265
557.0242	325.7899
557.1845	321.4694
557.3448	319.6263
557.5052	325.4324
557.6655	329.2425
557.8259	324.0869
557.9861	337.2223
558.1465	336.2773
558.3068	329.952
558.467	325.4202
558.6274	318.6172
558.7877	313.856
558.9479	306.8937
559.1082	304.9946
559.2684	304.4739
559.4287	311.152
559.5889	320.3044
559.7491	313.706
559.9094	316.9204
560.0696	310.2097
560.2299	308.6123
560.3901	312.8319
560.5502	312.1953
560.7104	319.0337
560.8707	326.757
561.0308	321.3369
561.191	325.0677
561.3511	317.2375
561.5114	309.9216
561.6714	307.4589
561.8316	305.3978
561.9918	306.8849
562.1519	311.3171
562.312	309.8326
562.4722	312.6077
562.6323	308.2223
562.7924	310.2288
562.9525	313.487
563.1125	321.3193
563.2726	315.2532
563.4327	310.3943
563.5928	307.8576
563.7528	307.2627
563.9129	308.0264
564.0729	307.7488
564.233	304.6988
564.393	314.2321
564.553	310.4525
564.7131	304.4828
564.873	305.9283
565.0331	306.3836
565.1931	305.9842
565.353	301.6538
565.5131	296.9594
565.673	303.8483
565.833	287.7422
565.9929	292.4451
566.1529	295.4886
566.3129	295.0493
566.4728	290.2668
566.6328	298.8808
566.7927	300.0132
566.9526	297.3374
567.1125	301.808
567.2724	297.7887
567.4323	299.5283
567.5922	297.9641
567.7521	302.4046
567.9119	295.5689
568.0718	294.6047
568.2317	294.993
568.3915	290.341
568.5514	289.9824
568.7112	294.1571
568.871	284.1784
569.0309	284.1447
569.1907	277.994
569.3505	287.2097
569.5103	292.3483
569.6701	286.5702
569.8299	287.2223
569.9897	279.1944
570.1495	283.1622
570.3092	277.6232
570.469	282.1338
570.6287	277.1486
570.7885	271.3709
570.9482	278.8504
571.108	266.0396
571.2677	264.7674
571.4274	274.1276
571.5871	276.022
571.7468	277.4816
571.9066	282.9517
572.0662	284.5491
572.2259	284.3596
572.3856	281.2869
572.5452	280.3221
572.7049	283.776
572.8646	285.6329
573.0242	279.3342
573.1838	285.0341
573.3435	285.4297
573.5031	281.4521
573.6627	280.8653
573.8223	279.4042
573.9819	268.8756
574.1415	266.9799
574.3011	280.0544
574.4607	278.3435
574.6203	278.0787
574.7798	273.9074
574.9394	274.3719
575.099	273.2453
575.2585	281.3734
575.418	274.1765
575.5776	268.2278
575.7371	272.4037
575.8966	269.2891
576.0562	267.1312
576.2156	267.9337
576.3751	269.2502
576.5346	264.3597
576.6941	259.5044
576.8536	266.7806
577.0131	267.8961
577.1725	263.9398
577.332	264.5748
577.4914	266.246
577.6508	263.8708
577.8103	260.6625
577.9697	255.1803
578.1291	246.6021
578.2885	250.4327
578.4479	256.8754
578.6073	259.8492
578.7667	256.9467
578.9261	255.0683
579.0854	260.1646
579.2448	256.193
579.4042	256.9016
579.5635	261.1277
579.7229	256.5222
579.8822	262.4919
580.0416	254.7801
580.2009	254.532
580.3602	255.5031
580.5195	253.7231
580.6788	255.5691
580.8381	256.821
580.9974	266.6521
581.1566	252.2826
581.3159	249.2169
581.4752	257.4291
581.6345	255.1169
581.7937	251.9933
581.9529	252.067
582.1122	257.8699
582.2714	252.4557
582.4306	243.116
582.5898	249.158
582.749	250.3886
582.9082	255.8155
583.0674	254.6761
583.2266	255.9839
583.3857	252.6607
583.5449	246.6486
583.7041	248.9766
583.8633	246.5219
584.0224	248.9924
584.1815	245.0017
584.3407	249.6756
584.4998	250.0759
584.6589	241.745
584.818	238.0975
584.9771	246.1927
585.1362	242.3197
585.2953	236.1174
585.4544	236.0687
585.6135	243.9839
585.7725	238.3159
585.9316	238.6502
586.0906	235.1703
586.2497	237.4332
586.4087	235.5505
586.5677	239.0625
586.7267	247.2189
586.8858	250.323
587.0448	243.1017
587.2038	236.735
587.3628	234.9794
587.5218	234.3751
587.6807	238.2583
587.8397	238.3096
587.9987	239.1709
588.1577	231.6745
588.3166	231.8096
588.4755	231.3282
588.6345	224.5818
588.7934	215.0387
588.9523	213.966
589.1112	221.3728
589.2701	215.9563
589.429	213.0981
589.5879	219.9597
589.7468	212.9141
589.9056	215.1502
590.0645	215.6748
590.2234	223.7182
590.3822	224.3129
590.5411	220.5207
590.6999	229.2994
590.8588	222.424
591.0176	221.3947
591.1764	222.6315
591.3352	222.0842
591.494	224.1558
591.6528	219.3484
591.8116	221.344
591.9703	223.2093
592.1291	215.6319
592.2878	217.9063
592.4467	219.2413
592.6053	219.9014
592.7641	226.57
592.9229	229.3148
593.0816	221.945
593.2403	221.589
593.399	229.7142
593.5577	219.0624
593.7164	225.1337
593.8751	221.0918
594.0338	218.1155
594.1924	213.007
594.3511	220.4462
594.5098	218.0143
594.6684	215.1159
594.8271	219.475
594.9857	220.4001
595.1443	223.369
595.303	220.6465
595.4615	219.067
595.6202	214.7856
595.7787	222.7394
595.9374	215.4363
596.0959	216.9017
596.2545	223.1031
596.4131	221.1228
596.5717	223.4897
596.7302	222.2162
596.8887	223.097
597.0473	222.1423
597.2058	222.8408
597.3644	224.1145
597.5229	222.1414
597.6814	220.9643
597.8399	216.2884
597.9984	221.8775
598.1569	226.0246
598.3154	225.5273
598.4738	219.3305
598.6323	218.3584
598.7908	216.9017
598.9492	218.0331
599.1076	219.4594
599.2661	214.8332
599.4245	220.2356
599.5829	222.4231
599.7413	223.1038
599.8997	222.2575
600.0581	213.9425
600.2165	213.3727
600.3749	217.5013
600.5333	218.5635
600.6917	226.0877
600.85	223.614
601.0084	219.8941
601.1667	221.3163
601.325	220.7806
601.4833	220.067
601.6417	213.8989
601.8	211.2747
601.9583	217.4189
602.1166	212.1828
602.2749	210.4169
602.4332	213.8875
602.5914	224.085
602.7498	225.1596
602.908	215.2708
603.0662	212.464
603.2245	212.3812
603.3828	207.3665
603.541	216.8817
603.6992	216.9184
603.8574	211.9441
604.0156	214.7888
604.1738	223.0472
604.332	217.0893
604.4902	211.9878
604.6484	216.8184
604.8065	207.9748
604.9647	219.3562
605.1229	214.438
605.281	214.2425
605.4391	210.8812
605.5973	210.1692
605.7554	207.937
605.9135	214.6169
606.0717	212.1514
606.2297	210.995
606.3878	204.5115
606.5459	202.4891
606.704	206.7985
606.8621	213.3671
607.0201	208.2835
607.1782	213.1926
607.3362	214.8879
607.4943	212.0881
607.6523	211.8872
607.8104	209.4247
607.9684	209.0277
608.1264	204.6423
608.2844	212.371
608.4424	216.7287
608.6003	209.4106
608.7584	205.0537
608.9163	204.0031
609.0743	203.5619
609.2322	207.424
609.3902	205.4872
609.5482	209.9876
609.7061	207.0689
609.864	204.9915
610.0219	196.6657
610.1798	196.6719
610.3377	200.0602
610.4956	203.5479
610.6535	204.4153
610.8114	205.2495
610.9693	202.7706
611.1271	196.982
611.285	203.6836
611.4429	200.7495
611.6007	204.6438
611.7585	210.4872
611.9164	211.9821
612.0742	201.5911
612.232	196.7731
612.3898	196.5857
612.5476	200.7239
612.7054	196.4696
612.8632	197.5101
613.0209	194.8736
613.1787	198.9407
613.3365	206.4173
613.4942	201.0433
613.652	195.2406
613.8097	194.4509
613.9674	194.5955
614.1252	194.8195
614.2829	192.0346
614.4406	195.5966
614.5983	200.661
614.756	197.7563
614.9136	197.6722
615.0714	189.2217
615.229	191.1335
615.3867	196.8472
615.5443	188.263
615.702	197.8307
615.8596	198.6994
616.0172	193.397
616.1748	184.31
616.3325	187.6195
616.4901	189.1597
616.6476	190.3283
616.8052	192.0554
616.9628	187.9211
617.1204	190.181
617.278	186.7336
617.4355	186.5877
617.5931	197.2695
617.7506	196.8795
617.9081	192.0451
618.0657	190.7287
618.2232	188.4107
618.3807	191.3109
618.5382	189.3516
618.6957	188.3953
618.8532	192.2468
619.0107	193.0459
619.1682	186.1977
619.3256	179.6485
619.4831	179.384
619.6406	182.7479
619.798	190.464
619.9554	190.8305
620.1129	193.7801
620.2703	186.1171
620.4277	187.6509
620.5851	191.0914
620.7425	185.1749
620.8998	191.7184
621.0573	185.6043
621.2146	179.8013
621.372	184.051
621.5294	181.0854
621.6867	179.6745
621.8441	182.7722
622.0013	179.5371
622.1587	187.3244
622.316	185.4825
622.4733	184.6717
622.6306	191.5906
622.7879	183.7832
622.9452	180.1993
623.1025	183.4055
623.2598	177.5481
623.4171	181.1722
623.5743	186.9658
623.7316	181.9341
623.8888	184.0707
624.046	190.417
624.2032	184.8823
624.3605	181.7444
624.5176	185.1686
624.6749	182.6481
624.8321	183.7562
624.9893	190.6093
625.1464	186.5486
625.3036	178.8425
625.4608	185.8078
625.6179	184.3934
625.7751	179.3123
625.9322	173.2303
626.0894	180.8365
626.2465	186.4113
626.4036	188.5723
626.5607	177.8977
626.7178	180.2988
626.8749	178.1763
627.032	182.9431
627.189	182.454
627.3461	183.2544
627.5032	180.7047
627.6602	178.0058
627.8173	170.9032
627.9743	168.1372
628.1313	170.001
628.2884	177.5689
628.4454	177.5894
628.6024	179.3098
628.7594	177.0951
628.9164	179.5728
629.0734	179.3911
629.2303	185.0506
629.3873	187.2521
629.5443	181.3228
629.7012	169.3827
629.8582	176.3488
630.0151	174.2648
630.172	180.6241
630.3289	178.5198
630.4858	178.1007
630.6428	179.0097
630.7996	178.0894
630.9565	177.8724
631.1134	181.0127
631.2703	181.4715
631.4272	179.6561
631.584	175.8968
631.7408	175.172
631.8977	179.2326
632.0546	176.5472
632.2114	168.5912
632.3682	176.6245
632.525	178.8711
632.6818	178.4618
632.8386	173.5525
632.9954	172.7035
633.1522	179.7951
633.3089	176.0479
633.4657	178.5323
633.6224	172.2489
633.7792	169.144
633.9359	172.5571
634.0927	180.8153
634.2494	180.4647
634.4061	175.6381
634.5628	171.832
634.7195	168.8869
634.8762	177.1539
635.0329	173.6645
635.1895	174.7648
635.3462	181.774
635.5029	179.5591
635.6595	173.9308
635.8162	168.691
635.9728	173.9408
636.1295	173.6598
636.2861	170.5533
636.4427	177.8785
636.5992	179.808
636.7559	169.2206
636.9124	177.4174
637.069	175.5056
637.2256	170.5127
637.3821	165.7621
637.5387	169.2041
637.6953	175.1636
637.8518	169.6481
638.0084	175.5076
638.1649	172.5544
638.3214	169.5689
638.4779	171.6981
638.6344	168.7605
638.7909	167.5678
638.9474	173.4133
639.1038	174.8651
639.2603	173.1707
639.4167	166.192
639.5732	166.3252
639.7297	166.9138
639.8861	169.6073
640.0425	165.8867
640.199	162.4889
640.3553	163.9799
640.5118	168.8277
640.6682	172.8819
640.8245	167.6192
640.981	161.1308
641.1373	164.9608
641.2936	163.2971
641.45	160.1344
641.6064	162.7358
641.7627	165.8198
641.9191	162.5343
642.0754	160.3521
642.2317	160.2183
642.388	164.777
642.5443	170.9647
642.7006	165.3761
642.8569	166.2531
643.0131	163.9448
643.1694	163.9309
643.3257	161.5606
643.4819	157.2646
643.6382	161.209
643.7944	158.8551
643.9506	153.1224
644.1069	161.5996
644.2631	163.2532
644.4193	159.561
644.5754	157.4643
644.7316	158.2919
644.8878	159.2664
645.044	153.8675
645.2002	153.8678
645.3563	152.8794
645.5125	162.4856
645.6686	159.5287
645.8248	156.444
645.9809	153.556
646.137	151.6555
646.2931	158.0978
646.4492	154.6498
646.6053	153.0371
646.7614	151.8976
646.9174	150.7822
647.0735	148.5373
647.2296	158.0103
647.3856	153.8399
647.5417	148.4163
647.6977	148.8217
647.8537	146.0884
648.0098	149.1571
648.1658	147.4594
648.3218	147.9887
648.4777	146.5376
648.6337	151.7391
648.7897	151.367
648.9457	150.6366
649.1016	152.6614
649.2576	152.7066
649.4135	144.1029
649.5695	142.3171
649.7254	142.4967
649.8813	146.6142
650.0372	142.5499
650.1932	144.1196
650.3491	150.3355
650.5049	153.9406
650.6608	157.1712
650.8167	148.8454
650.9725	146.4951
651.1284	154.8675
651.2842	148.5974
651.4401	150.4109
651.5959	144.3269
651.7518	139.4993
651.9076	146.6429
652.0634	151.6023
652.2192	146.1541
652.3749	144.5751
652.5308	148.6899
652.6865	148.6965
652.8423	145.4121
652.998	151.5143
653.1538	149.1164
653.3096	143.8033
653.4653	145.4278
653.621	147.6922
653.7767	153.7354
653.9324	150.3373
654.0881	143.1088
654.2438	145.4363
654.3995	144.147
654.5552	150.8969
654.7109	141.5805
654.8665	138.2678
655.0222	137.5087
655.1778	142.7026
655.3334	145.5297
655.4891	149.1954
655.6447	141.3055
655.8003	135.3083
655.9559	138.7385
656.1115	133.1357
656.2671	126.795
656.4227	125.8852
656.5782	131.8711
656.7338	138.0733
656.8893	142.7858
657.0449	145.5639
657.2004	137.4883
657.356	137.8432
657.5115	137.9937
657.667	140.9846
657.8225	142.2149
657.978	141.7695
658.1335	141.9253
658.289	145.0616
658.4445	144.2787
658.5999	137.7987
658.7554	142.2824
658.9108	139.3603
659.0663	141.9968
659.2217	143.6818
659.3771	145.76
659.5325	134.9647
659.6879	137.5153
659.8433	142.4836
659.9987	134.4308
660.1541	135.6269
660.3095	138.1905
660.4648	140.3555
660.6202	146.473
660.7756	139.9769
660.9309	136.6027
661.0862	138.4148
661.2416	144.0068
661.3969	136.9745
661.5522	139.2245
661.7075	139.7336
661.8628	136.8752
662.0181	135.8316
662.1733	131.7271
662.3286	136.3546
662.4839	130.1199
662.6391	130.5311
662.7944	132.2509
662.9496	132.797
663.1048	135.1039
663.26	141.1258
663.4152	139.3063
663.5704	136.2762
663.7256	137.1909
663.8808	134.4887
664.036	130.0963
664.1912	131.4013
664.3463	130.4283
664.5015	133.3835
664.6566	132.3439
664.8118	134.8765
664.9669	136.6091
665.122	133.8594
665.2771	136.6179
665.4322	134.2929
665.5873	132.9525
665.7424	132.562
665.8975	137.5875
666.0526	132.9642
666.2076	131.8719
666.3627	131.7673
666.5177	128.3588
666.6727	132.655
666.8278	135.8409
666.9828	132.6066
667.1378	135.9192
667.2928	133.1362
667.4478	135.3163
667.6028	137.3991
667.7578	131.8792
667.9127	134.0272
668.0677	125.4207
668.2226	131.1691
668.3776	131.137
668.5325	132.8477
668.6874	138.1112
668.8423	136.0824
668.9973	131.8521
669.1522	131.8209
669.3071	127.4851
669.4619	132.3383
669.6168	135.336
669.7717	130.2678
669.9265	124.001
670.0814	130.648
670.2362	130.2504
670.3911	127.122
670.5459	129.5371
670.7007	127.2071
670.8555	130.4816
671.0103	128.9983
671.1651	126.8327
671.3199	126.6871
671.4747	125.0284
671.6295	125.4239
671.7842	129.539
671.939	129.241
672.0937	127.5195
672.2484	125.5622
672.4031	121.9716
672.5579	126.4332
672.7126	129.9336
672.8673	130.9805
673.022	126.349
673.1767	129.8503
673.3314	128.3773
673.486	128.5999
673.6407	131.8749
673.7953	124.4261
673.95	116.5263
674.1046	123.5692
674.2592	129.4214
674.4138	127.3594
674.5684	116.6893
674.723	121.391
674.8776	121.0148
675.0322	127.5349
675.1868	121.4587
675.3414	124.214
675.4959	132.424
675.6505	122.4879
675.805	128.5811
675.9595	120.0435
676.1141	122.2003
676.2686	124.0351
676.4231	121.3339
676.5776	126.4994
676.7321	127.2945
676.8866	125.7997
677.041	122.2974
677.1955	117.8103
677.35	118.5006
677.5044	124.0385
677.6589	126.0931
677.8133	122.2273
677.9677	124.622
678.1221	124.5243
678.2766	118.704
678.4309	126.3903
678.5853	127.0437
678.7397	122.2591
678.8941	121.9522
679.0485	118.7353
679.2028	122.5795
679.3571	121.1543
679.5115	126.7349
679.6658	123.4177
679.8201	120.0589
679.9744	121.0792
680.1288	121.8889
680.2831	122.8839
680.4373	127.3689
680.5916	128.4105
680.7459	123.0508
680.9001	123.0671
681.0544	125.4871
681.2087	127.318
681.3629	122.4823
681.5171	120.1859
681.6713	119.3858
681.8256	124.6207
681.9797	122.33
682.134	122.9504
682.2881	120.7025
682.4423	124.5128
682.5965	125.6091
682.7507	133.9652
682.9048	121.6217
683.059	126.6965
683.2131	127.94
683.3672	130.5615
683.5213	120.1441
683.6754	120.32
683.8295	128.2934
683.9836	124.0864
684.1377	123.4668
684.2918	121.71
684.4459	115.1917
684.5999	120.6816
684.754	120.9931
684.908	126.8603
685.062	123.8389
685.2161	127.9076
685.3701	123.2009
685.5241	120.3601
685.6781	118.5491
685.8321	117.6676
685.9861	126.3437
686.14	128.6915
686.294	124.867
686.4479	126.5295
686.6019	120.3102
686.7559	116.5784
686.9098	108.368
687.0637	114.4293
687.2176	113.1437
687.3715	110.2421
687.5254	113.933
687.6793	125.4971
687.8332	119.9396
687.9871	119.672
688.1409	120.9984
688.2947	118.5044
688.4486	118.0324
688.6024	120.7202
688.7563	119.0488
688.9101	118.6349
689.0639	121.9855
689.2177	123.9586
689.3715	123.88
689.5253	121.5622
689.6791	121.2668
689.8328	128.7722
689.9866	124.8918
690.1403	127.2962
690.2941	127.8609
690.4478	121.8849
690.6015	131.4185
690.7552	126.1158
690.9089	124.1793
691.0626	125.0342
691.2164	127.3976
691.37	125.1279
691.5237	128.9929
691.6774	126.3048
691.831	121.9308
691.9847	131.8019
692.1383	130.7552
692.2919	130.86
692.4456	133.9416
692.5992	135.9948
692.7527	138.1811
692.9064	134.1494
693.0599	127.4587
693.2136	127.575
693.3671	128.8366
693.5207	135.0287
693.6742	134.0007
693.8278	136.2796
693.9813	131.2132
694.1348	136.1583
694.2883	135.3124
694.4418	135.5791
694.5953	129.4499
694.7488	132.8238
694.9023	133.0547
695.0558	132.8474
695.2093	134.5675
695.3627	137.157
695.5162	137.4375
695.6696	141.2921
695.8231	138.0369
695.9764	133.7053
696.1299	139.194
696.2833	144.377
696.4367	145.5884
696.5901	141.9988
696.7435	146.5766
696.8968	143.2924
697.0502	150.9182
697.2036	155.9521
697.3569	147.6928
697.5102	146.9183
697.6635	142.6491
697.8168	136.1973
697.9702	144.5276
698.1235	151.6748
698.2768	152.1537
698.4301	151.2155
698.5833	148.6689
698.7366	150.1603
698.8898	146.2082
699.0431	150.3541
699.1964	147.1164
699.3495	157.4583
699.5028	155.9917
699.656	151.728
699.8092	156.27
699.9624	158.5259
700.1156	160.1851
700.2688	156.3139
700.4219	145.8895
700.5751	152.0831
700.7283	156.3163
700.8814	157.6298
701.0345	159.5523
701.1877	152.8028
701.3408	160.1265
701.4939	159.0568
701.647	156.3562
701.8001	164.4748
701.9532	163.9444
702.1063	163.9748
702.2593	161.5982
702.4124	165.0498
702.5654	161.2579
702.7184	160.7849
702.8715	163.8075
703.0245	165.5952
703.1776	170.724
703.3305	169.24
703.4835	172.4981
703.6365	172.0235
703.7895	169.3479
703.9424	171.1313
704.0954	168.3615
704.2484	166.7427
704.4013	170.4346
704.5543	178.5941
704.7072	175.1671
704.8601	175.7162
705.013	173.9249
705.1659	176.1149
705.3188	178.5281
705.4717	174.2981
705.6246	177.5379
705.7774	177.9758
705.9303	173.1797
706.0831	176.3815
706.236	183.1055
706.3888	178.0635
706.5416	174.5605
706.6944	180.6575
706.8472	183.3207
707	182.528
707.1528	177.7637
707.3056	189.3414
707.4583	189.077
707.6111	186.1388
707.7639	185.8907
707.9166	188.3405
708.0693	182.6724
708.222	187.006
708.3748	191.6659
708.5275	182.7332
708.6802	188.3361
708.8328	189.9579
708.9855	181.8348
709.1382	192.3451
709.2909	187.82
709.4435	187.8914
709.5962	193.2767
709.7488	201.1669
709.9014	191.5925
710.054	190.1021
710.2067	193.4852
710.3593	195.5056
710.5118	198.8978
710.6644	201.6787
710.817	198.4375
710.9695	200.8299
711.1221	199.0978
711.2747	195.1014
711.4272	192.5992
711.5797	198.8139
711.7322	202.249
711.8848	200.4386
712.0373	199.5512
712.1898	201.5139
712.3422	196.5247
712.4948	199.7741
712.6472	204.9227
712.7996	203.3503
712.9521	201.8084
713.1046	203.5575
713.257	194.8744
713.4094	203.045
713.5618	207.5775
713.7142	202.3659
713.8666	199.3291
714.019	206.5302
714.1714	200.8326
714.3237	204.9155
714.4761	210.1495
714.6285	207.894
714.7808	205.7855
714.9331	206.8584
715.0854	205.7954
715.2378	209.5735
715.3901	216.0437
715.5424	209.4695
715.6947	210.7243
715.8469	210.0591
715.9992	203.5078
716.1515	201.2409
716.3037	199.8392
716.456	200.0408
716.6082	205.4089
716.7604	196.4943
716.9127	193.7326
717.0649	194.5166
717.2171	195.7113
717.3693	193.197
717.5214	195.33
717.6736	192.0674
717.8258	193.4953
717.978	195.742
718.1301	190.4817
718.2822	191.327
718.4344	190.7403
718.5865	183.3474
718.7386	180.3505
718.8907	185.7837
719.0428	181.6436
719.1949	180.0116
719.3469	180.1948
719.499	190.8901
719.6511	188.8414
719.8031	192.6714
719.9551	195.5715
720.1072	189.8481
720.2592	186.0695
720.4112	188.4872
720.5632	189.8271
720.7152	198.8533
720.8672	207.3888
721.0192	208.5258
721.1711	210.3767
721.3231	225.8728
721.475	221.2545
721.627	225.0572
721.7789	224.0575
721.9308	213.7027
722.0828	221.5899
722.2347	224.367
722.3866	221.0637
722.5385	217.7625
722.6903	222.0389
722.8422	213.991
722.9941	223.765
723.1459	217.148
723.2977	204.4181
723.4496	194.8663
723.6014	196.1271
723.7532	211.9063
723.905	213.6881
724.0568	206.6775
724.2086	203.7379
724.3604	199.3149
724.5121	206.7064
724.6639	216.4631
724.8157	222.3754
724.9674	217.9688
725.1191	211.5149
725.2709	198.3696
725.4226	204.371
725.5743	208.6782
725.726	218.4051
725.8777	226.4321
726.0294	223.7443
726.181	213.0939
726.3327	218.9294
726.4844	216.6617
726.636	208.1697
726.7877	216.9605
726.9393	225.1069
727.0909	228.3058
727.2425	230.1552
727.3941	222.7792
727.5457	214.9362
727.6973	207.9558
727.8488	208.5721
728.0004	213.2189
728.1519	225.0387
728.3035	231.4262
728.455	231.2571
728.6066	233.4942
728.7581	232.9605
728.9095	224.9038
729.0611	207.4371
729.2126	214.1995
729.364	221.9915
729.5155	224.371
729.667	232.5366
729.8184	241.1474
729.9698	241.4009
730.1213	232.9895
730.2727	229.3356
730.4241	227.5883
730.5756	225.7942
730.7269	238.951
730.8784	235.5283
731.0297	237.497
731.1811	239.7881
731.3325	235.1786
731.4838	242.7905
731.6351	242.9914
731.7865	234.6346
731.9378	238.2881
732.0891	239.4779
732.2404	243.3624
732.3917	249.0806
732.543	248.2435
732.6943	250.4927
732.8456	253.6337
732.9968	258.7449
733.1481	259.7331
733.2993	256.0277
733.4506	246.9251
733.6018	252.2714
733.753	254.5866
733.9042	264.9882
734.0554	265.0493
734.2066	262.851
734.3578	263.7267
734.509	267.0568
734.6602	262.059
734.8113	252.6705
734.9624	251.1207
735.1136	249.9185
735.2647	253.1311
735.4158	253.699
735.5669	259.0611
735.718	256.4578
735.8691	260.4572
736.0201	267.5963
736.1713	265.3575
736.3223	264.3573
736.4733	263.7545
736.6244	261.9559
736.7755	266.908
736.9265	265.9998
737.0775	270.8502
737.2285	268.7742
737.3795	268.8334
737.5305	267.6193
737.6815	272.3517
737.8324	269.8234
737.9834	263.6989
738.1343	264.6046
738.2853	271.2969
738.4362	266.1391
738.5871	260.7352
738.738	266.0428
738.8889	262.4602
739.0399	258.4487
739.1907	258.2496
739.3416	258.4586
739.4925	266.5212
739.6433	261.9413
739.7942	273.3289
739.945	267.9836
740.0958	267.0157
740.2467	270.1258
740.3975	273.4694
740.5483	267.2766
740.6991	267.0161
740.8499	267.0684
741.0007	267.3016
741.1514	266.3763
741.3022	269.3463
741.4529	260.7134
741.6036	262.6403
741.7544	268.9167
741.9051	266.6094
742.0558	269.8769
742.2065	270.542
742.3572	269.209
742.5079	268.2645
742.6586	275.2382
742.8093	271.546
742.9599	273.0405
743.1105	279.0576
743.2612	274.0928
743.4118	275.4221
743.5624	273.2113
743.7131	274.709
743.8636	270.5723
744.0142	275.4838
744.1648	270.7418
744.3154	267.5967
744.4659	272.2673
744.6165	259.63
744.767	265.2007
744.9176	261.7214
745.0681	276.3016
745.2186	275.7637
745.3691	279.9
745.5197	282.8289
745.6702	274.6268
745.8206	272.8783
745.9711	263.6111
746.1215	266.0921
746.272	271.5774
746.4224	265.5968
746.5729	265.094
746.7233	268.0975
746.8737	271.8799
747.0241	275.5266
747.1745	274.1174
747.3249	265.354
747.4753	268.3074
747.6257	271.3632
747.776	268.8515
747.9264	267.876
748.0767	268.3809
748.2271	269.0997
748.3774	265.9041
748.5276	267.0355
748.678	272.542
748.8282	270.5633
748.9786	274.6364
749.1288	267.5941
749.2791	264.9108
749.4294	268.6315
749.5796	258.7166
749.7299	256.8396
749.8801	264.8548
750.0303	268.0146
750.1805	270.7679
750.3307	268.7722
750.4809	267.748
750.6311	264.4824
750.7813	257.6913
750.9314	255.9215
751.0816	256.2153
751.2318	257.1606
751.3818	261.6129
751.532	260.8272
751.6821	258.9732
751.8322	262.1703
751.9823	258.1426
752.1324	258.2925
752.2825	259.0777
752.4326	259.2017
752.5826	252.9464
752.7327	252.7857
752.8827	252.7344
753.0327	254.3712
753.1827	266.3513
753.3328	263.6552
753.4828	255.5444
753.6328	255.4803
753.7828	254.4495
753.9327	248.5809
754.0827	251.7016
754.2327	248.3962
754.3826	251.602
754.5325	249.475
754.6825	257.6129
754.8324	251.3604
754.9823	254.4525
755.1322	253.2614
755.2821	255.2889
755.432	251.0482
755.5818	252.1898
755.7318	249.53
755.8816	251.0031
756.0314	253.9439
756.1813	244.1135
756.3311	244.608
756.4809	243.9483
756.6307	240.3929
756.7805	239.7392
756.9303	233.0184
757.0801	235.256
757.2299	239.9492
757.3796	241.9789
757.5294	236.7525
757.6791	238.5266
757.8289	251.6799
757.9786	243.2008
758.1283	246.1803
758.278	244.6049
758.4277	239.3616
758.5773	237.0657
758.7271	229.2096
758.8767	236.7034
759.0264	240.1967
759.176	230.62
759.3256	205.7649
759.4753	175.8418
759.6249	150.6004
759.7745	128.218
759.9241	115.6988
760.0737	103.7184
760.2233	96.29301
760.3729	89.37165
760.5224	87.93642
760.6719	90.26994
760.8215	89.89624
760.971	89.91053
761.1205	96.87653
761.2701	111.0572
761.4196	124.2404
761.5691	135.6434
761.7186	158.6528
761.868	170.9314
762.0175	173.5387
762.167	174.2568
762.3164	158.6865
762.4659	143.632
762.6153	134.7827
762.7647	130.1058
762.9141	128.3763
763.0635	126.3146
763.2129	127.8671
763.3623	134.6802
763.5117	129.3971
763.661	131.3772
763.8104	134.3561
763.9597	137.9864
764.1091	139.7575
764.2584	143.2543
764.4077	146.9464
764.557	151.4601
764.7063	156.0155
764.8556	160.4358
765.0049	155.7892
765.1541	164.8131
765.3034	167.3755
765.4526	162.7832
765.6019	164.0291
765.7511	171.6195
765.9003	167.8413
766.0496	173.8345
766.1987	176.3418
766.348	180.4809
766.4971	182.3092
766.6463	189.0689
766.7955	197.6671
766.9446	203.7847
767.0938	197.5694
767.2429	193.9573
767.392	200.4147
767.5411	200.3426
767.6902	203.0401
767.8394	201.0998
767.9884	198.5987
768.1375	212.6984
768.2866	203.7638
768.4356	207.3335
768.5847	208.9622
768.7337	204.338
768.8828	211.8061
769.0317	209.6797
769.1808	197.3933
769.3298	199.9678
769.4788	201.3813
769.6277	201.1873
769.7767	204.257
769.9257	208.4891
770.0746	208.0938
770.2236	205.3007
770.3725	207.1161
770.5214	209.5399
770.6703	200.5258
770.8193	200.7939
770.9681	204.319
771.1171	198.5335
771.2659	201.479
771.4148	198.4417
771.5637	201.0146
771.7125	202.8629
771.8613	199.7599
772.0101	202.4871
772.159	206.7542
772.3078	205.932
772.4566	206.9429
772.6054	200.3629
772.7542	193.5464
772.903	195.3192
773.0517	197.4054
773.2004	202.3511
773.3492	199.0475
773.4979	196.6786
773.6467	193.5877
773.7953	200.5961
773.944	192.4264
774.0928	194.7259
774.2415	188.7324
774.3901	195.4366
774.5388	196.424
774.6874	187.9101
774.8361	188.4227
774.9847	194.4013
775.1334	194.6318
775.282	190.3965
775.4305	187.1694
775.5792	188.0567
775.7277	198.1046
775.8763	196.2044
776.0249	195.9015
776.1735	193.0192
776.322	191.297
776.4705	193.5848
776.6191	193.1165
776.7676	194.2104
776.9161	192.7823
777.0646	193.1547
777.2131	194.9027
777.3616	185.8665
777.5101	193.0322
777.6585	193.0048
777.8069	188.2035
777.9554	192.5953
778.1038	186.9266
778.2523	176.6402
778.4007	183.5947
778.5491	193.5925
778.6974	194.789
778.8459	184.5733
778.9942	182.4659
779.1426	184.784
779.291	187.7088
779.4393	185.124
779.5876	183.584
779.736	186.6187
779.8843	184.4342
780.0326	188.3299
780.1809	185.5747
780.3292	183.9859
780.4775	180.6822
780.6257	185.1908
780.774	182.9661
780.9222	184.3716
781.0704	184.5911
781.2187	181.7525
781.3669	185.5952
781.5151	190.3839
781.6633	185.069
781.8115	184.2226
781.9597	189.2068
782.1078	185.2997
782.256	185.0906
782.4042	186.8893
782.5523	183.7114
782.7004	177.7726
782.8486	184.0601
782.9967	183.3868
783.1448	178.8345
783.2929	179.0033
783.441	173.9925
783.5891	171.1489
783.7371	182.0284
783.8851	182.258
784.0332	176.5748
784.1812	177.5316
784.3293	175.8196
784.4773	178.892
784.6253	180.5972
784.7733	179.3212
784.9213	176.7641
785.0692	173.8031
785.2172	176.7824
785.3652	179.9119
785.5131	180.7654
785.6611	180.5661
785.809	174.7334
785.9569	169.6918
786.1048	174.2958
786.2527	180.9916
786.4006	178.0806
786.5485	175.0671
786.6964	178.9995
786.8442	167.1081
786.9921	159.746
787.1399	170.7712
787.2877	167.29
787.4355	173.3856
787.5833	173.0372
787.7311	165.0091
787.8789	164.929
788.0267	167.6902
788.1745	172.9654
788.3223	173.9636
788.47	169.3865
788.6177	172.5921
788.7654	171.6856
788.9132	174.1492
789.0609	170.7931
789.2086	168.6071
789.3563	167.5218
789.504	168.0169
789.6517	164.6131
789.7993	167.7127
789.947	160.55
790.0946	158.0865
790.2422	160.502
790.3898	161.6876
790.5375	158.7964
790.6851	162.839
790.8326	162.3334
790.9802	162.4207
791.1278	163.8384
791.2754	165.5134
791.423	163.1786
791.5705	160.3365
791.718	162.4145
791.8655	161.2279
792.0131	156.0103
792.1606	158.0944
792.308	165.711
792.4556	165.3201
792.603	157.6498
792.7505	149.6604
792.8979	157.0476
793.0454	157.9623
793.1928	156.5276
793.3403	160.0138
793.4877	151.2286
793.6351	158.2457
793.7825	160.3302
793.9299	148.6935
794.0772	159.2918
794.2246	163.3853
794.3719	154.2309
794.5193	151.058
794.6666	151.6897
794.814	156.4893
794.9613	164.6923
795.1086	162.3135
795.2559	155.7505
795.4032	158.9395
795.5505	158.4461
795.6978	162.2871
795.845	159.6495
795.9922	157.1066
796.1395	154.9052
796.2867	155.6777
796.4339	149.1279
796.5811	149.3088
796.7283	154.7366
796.8755	154.6349
797.0227	155.1015
797.1699	155.4551
797.317	158.5515
797.4642	154.7158
797.6113	155.5111
797.7584	154.4477
797.9056	154.5703
798.0527	146.7681
798.1998	154.4987
798.3469	151.0951
798.494	152.9774
798.641	151.3467
798.7881	153.3829
798.9351	148.1972
799.0822	145.1753
799.2292	149.6007
799.3762	153.6021
799.5232	152.1023
799.6702	152.5193
799.8172	146.6687
799.9642	150.8222
800.1111	143.1551
800.2581	141.4123
800.4051	145.5821
800.552	147.8327
800.6989	150.9988
800.8458	146.4959
800.9927	142.9292
801.1396	143.2653
801.2866	145.3419
801.4334	146.7725
801.5803	143.836
801.7272	143.9461
801.874	144.0865
802.0209	144.5003
802.1677	137.3795
802.3145	142.9645
802.4613	142.2845
802.6081	137.3883
802.7549	140.107
802.9017	139.0168
803.0485	143.7917
803.1952	139.3846
803.342	140.0795
803.4887	143.466
803.6354	147.0754
803.7822	148.4003
803.9289	137.0367
804.0756	136.3833
804.2223	138.078
804.369	132.4264
804.5156	131.4701
804.6623	134.851
804.8089	133.0737
804.9556	138.8745
805.1022	140.4865
805.2488	139.0694
805.3954	140.2363
805.542	137.9134
805.6886	140.6622
805.8352	140.0461
805.9818	138.3689
806.1283	139.9977
806.2749	136.9891
806.4214	142.8194
806.5679	132.1206
806.7145	137.4519
806.861	133.9299
807.0074	135.6429
807.154	137.8996
807.3004	132.7946
807.4469	131.7275
807.5934	134.7411
807.7398	132.0983
807.8862	136.9766
808.0327	131.4008
808.1791	132.0174
808.3255	128.6282
808.4719	128.5175
808.6183	132.5882
808.7647	130.9271
808.9111	130.9113
809.0574	129.0906
809.2037	137.3184
809.3501	128.0272
809.4965	131.3438
809.6428	123.3937
809.7891	125.0166
809.9354	126.9749
810.0817	124.0035
810.2279	130.7859
810.3742	129.4921
810.5204	125.0483
810.6667	122.3088
810.8129	128.5709
810.9592	133.5201
811.1054	127.7553
811.2516	122.3986
811.3978	119.3755
811.5439	120.6529
811.6901	119.6739
811.8363	122.9407
811.9825	122.0562
812.1286	124.3024
812.2748	121.2171
812.4209	117.2302
812.567	121.2807
812.7131	125.8159
812.8592	121.1426
813.0053	118.0564
813.1514	109.1324
813.2974	109.58
813.4435	110.7271
813.5895	108.9334
813.7356	117.7038
813.8816	112.621
814.0276	107.9082
814.1736	110.1873
814.3196	114.7693
814.4656	108.061
814.6116	110.1955
814.7576	104.8285
814.9035	102.9808
815.0494	110.1715
815.1954	109.9982
815.3413	102.9394
815.4872	106.3518
815.6331	107.3157
815.779	101.5809
815.9249	99.56337
816.0707	99.3371
816.2166	98.1569
816.3625	93.23564
816.5083	95.14984
816.6542	102.1925
816.8	103.5458
816.9458	100.4522
817.0916	100.0699
817.2374	101.1516
817.3832	110.2151
817.5289	107.2291
817.6747	102.6482
817.8204	94.99284
817.9662	94.10463
818.1119	93.20132
818.2576	100.1895
818.4034	98.48131
818.5491	107.5299
818.6948	103.1702
818.8405	97.39739
818.9861	99.58108
819.1318	95.79372
819.2774	93.87331
819.423	94.83016
819.5687	97.41084
819.7143	98.8305
819.8599	96.67914
820.0055	97.85478
820.1511	97.88638
820.2967	99.93451
820.4422	101.4058
820.5878	100.4494
820.7333	104.5348
820.8788	107.0224
821.0244	101.3649
821.1699	104.0588
821.3154	105.5134
821.4609	101.0363
821.6064	99.85218
821.7519	102.2414
821.8973	101.4621
822.0428	101.66
822.1882	93.73508
822.3337	98.23442
822.4791	95.4749
822.6245	87.63649
822.7699	79.30626
822.9153	79.4184
823.0607	75.0685
823.2061	75.31683
823.3514	87.19878
823.4968	90.33089
823.6422	88.94427
823.7875	96.48801
823.9328	98.60574
824.0781	99.53558
824.2234	95.964
824.3687	95.59996
824.514	96.55877
824.6592	94.87518
824.8045	96.14342
824.9498	104.7541
825.095	104.9335
825.2402	96.66457
825.3854	97.68354
825.5306	93.69908
825.6758	94.64502
825.821	94.53243
825.9662	93.04388
826.1114	90.65405
826.2565	101.5177
826.4017	103.2529
826.5468	100.7292
826.692	104.0471
826.837	104.7037
826.9822	103.7866
827.1273	100.3981
827.2723	89.7992
827.4174	88.22604
827.5625	80.89552
827.7075	85.62294
827.8526	89.72704
827.9976	90.91459
828.1426	90.49937
828.2877	90.86184
828.4327	95.26929
828.5776	98.95917
828.7227	93.01981
828.8676	92.50794
829.0126	86.70318
829.1575	86.2834
829.3024	90.04733
829.4474	87.75842
829.5923	89.26765
829.7372	90.60112
829.8821	95.46374
830.027	96.82094
830.1719	90.18864
830.3168	90.68577
830.4616	85.82339
830.6064	85.80899
830.7513	86.24027
830.8961	92.04008
831.041	89.81229
831.1857	87.27106
831.3306	90.42381
831.4753	93.30836
831.6201	89.74461
831.7649	86.32591
831.9096	87.64573
832.0544	84.31087
832.1991	85.0573
832.3438	84.39611
832.4885	93.77383
832.6332	94.62606
832.778	91.55279
832.9226	90.14063
833.0673	87.31555
833.2119	87.4788
833.3566	87.66891
833.5012	91.49262
833.6459	85.36309
833.7905	85.15974
833.9351	89.2122
834.0797	89.96162
834.2243	93.51413
834.3688	96.36801
834.5134	93.83057
834.658	93.38334
834.8026	96.6278
834.9471	85.26113
835.0916	86.82431
835.2361	90.71001
835.3806	88.19831
835.5251	89.3543
835.6696	87.46159
835.8141	85.72471
835.9586	88.79103
836.103	85.28392
836.2474	87.46374
836.3918	96.71838
836.5363	93.06727
836.6807	90.03314
836.8251	89.42071
836.9695	94.46252
837.1138	89.53727
837.2582	92.35748
837.4026	89.45361
837.5469	85.64117
837.6913	91.74631
837.8356	89.59521
837.9799	93.18762
838.1242	94.80677
838.2686	88.59351
838.4128	87.13679
838.5571	84.32124
838.7014	86.61057
838.8456	87.38994
838.9899	85.99055
839.1341	86.26813
839.2783	85.5727
839.4225	90.68557
839.5667	91.36137
839.7109	90.16109
839.8551	89.63608
839.9993	85.84821
840.1434	85.0453
840.2876	87.78668
840.4317	85.83606
840.5759	85.65125
840.72	88.3897
840.8641	90.02781
841.0082	87.79742
841.1523	84.54704
841.2963	88.74047
841.4404	92.6452
841.5845	91.78615
841.7285	90.37156
841.8726	84.47612
842.0165	88.56602
842.1606	83.33627
842.3046	87.43703
842.4485	86.67352
842.5925	93.3595
842.7365	91.51582
842.8805	84.13503
843.0244	85.04189
843.1684	82.37743
843.3123	83.29153
843.4562	87.91879
843.6002	85.71065
843.744	83.44514
843.8879	87.3357
844.0318	82.01042
844.1757	80.9395
844.3195	88.93572
844.4634	89.34149
844.6072	90.02909
844.751	86.33739
844.8948	84.82901
845.0386	83.96302
845.1824	85.11036
845.3262	83.31106
845.47	82.25361
845.6138	88.24523
845.7575	89.36799
845.9012	83.3382
846.045	88.14427
846.1887	89.25481
846.3324	89.45356
846.4761	82.96913
846.6198	85.91608
846.7635	86.05671
846.9071	81.67228
847.0508	80.81665
847.1944	79.7646
847.3381	79.89007
847.4817	84.64967
847.6253	89.20825
847.7689	90.22166
847.9125	86.32999
848.0561	81.06451
848.1996	81.5452
848.3432	87.33353
848.4868	84.72714
848.6303	82.41599
848.7738	81.27124
848.9174	86.33435
849.0609	86.06734
849.2043	81.8602
849.3478	84.68504
849.4913	80.3171
849.6348	76.16144
849.7782	74.60252
849.9217	75.05903
850.0651	70.14858
850.2086	69.74116
850.3519	75.02528
850.4954	78.74295
850.6387	81.66333
850.7821	80.30338
850.9255	80.85317
851.0688	77.87901
851.2122	75.7373
851.3555	79.98428
851.4988	81.95726
851.6422	75.92538
851.7855	76.7087
851.9288	78.47453
852.0721	81.38591
852.2153	84.54357
852.3586	78.69743
852.5018	73.44807
852.6451	74.70428
852.7883	79.48946
852.9315	81.35683
853.0748	79.22704
853.218	81.07439
853.3611	75.14314
853.5043	79.67088
853.6475	75.57722
853.7906	71.02947
853.9338	72.68137
854.0769	63.51759
854.22	59.47214
854.3632	61.15064
854.5063	60.5933
854.6494	66.6799
854.7924	77.80968
854.9355	84.23778
855.0786	77.31042
855.2216	72.38902
855.3647	72.6909
855.5077	73.40527
855.6507	71.00395
855.7937	73.29964
855.9367	70.36251
856.0797	73.2111
856.2227	74.74791
856.3657	70.97235
856.5086	77.57966
856.6516	76.95499
856.7945	74.71149
856.9374	70.80894
857.0803	79.36552
857.2232	76.65371
857.3661	72.65533
857.509	73.58343
857.6519	76.55482
857.7947	75.62669
857.9376	74.97694
858.0804	76.5989
858.2232	75.67659
858.366	79.34876
858.5089	76.56705
858.6516	69.52983
858.7944	74.31471
858.9372	75.16881
859.08	68.92184
859.2227	67.873
859.3654	77.03141
859.5082	76.58375
859.6509	73.70972
859.7936	72.98276
859.9363	75.89547
860.079	75.40377
860.2217	71.39285
860.3643	71.2485
860.507	72.76685
860.6496	70.37099
860.7922	70.90623
860.9349	74.00217
861.0775	68.71468
861.2201	69.01702
861.3627	67.49084
861.5052	67.99441
861.6478	69.54417
861.7904	78.27896
861.9329	76.48613
862.0755	72.57613
862.218	71.56886
862.3605	72.02544
862.503	68.85285
862.6455	72.1029
862.788	70.22072
862.9305	73.84326
863.0729	71.25135
863.2154	67.64238
863.3578	69.50948
863.5002	69.93532
863.6426	70.65893
863.7851	65.28336
863.9275	72.73284
864.0698	66.17636
864.2122	69.51638
864.3546	70.59227
864.4969	69.58959
864.6393	67.23395
864.7816	68.02661
864.924	66.01323
865.0662	69.23937
865.2086	65.36568
865.3508	64.52454
865.4931	67.33205
865.6354	68.08119
865.7776	66.4137
865.9199	61.83527
866.0621	59.96519
866.2043	52.37177
866.3466	55.60678
866.4888	56.08368
866.6309	58.05536
866.7731	61.68194
866.9153	60.33709
867.0574	63.38032
867.1996	69.15076
867.3417	64.64408
867.4839	71.84964
867.626	65.25641
867.7681	57.35785
867.9102	62.45702
868.0522	66.04803
868.1943	67.19637
868.3364	69.77708
868.4785	64.86416
868.6205	61.84306
868.7625	61.30521
868.9045	62.5691
869.0465	63.14629
869.1885	62.5674
869.3305	62.92722
869.4725	69.08527
869.6144	64.39668
869.7564	67.93079
869.8983	66.42445
870.0403	62.06281
870.1822	64.96156
870.3241	64.74914
870.466	62.55169
870.6079	64.4053
870.7498	61.98107
870.8916	60.03467
871.0335	61.89587
871.1754	67.95468
871.3171	58.86129
871.459	61.2531
871.6008	58.74961
871.7426	60.55405
871.8844	61.51449
872.0262	65.62169
872.1679	59.06583
872.3097	61.10097
872.4514	61.31758
872.5931	64.74537
872.7349	61.74976
872.8766	59.73623
873.0183	61.68928
873.16	58.72451
873.3017	58.54238
873.4434	56.00874
873.585	61.01607
873.7266	58.39137
873.8683	59.68155
874.0099	61.77581
874.1516	60.84488
874.2932	61.02869
874.4348	58.69873
874.5763	61.21185
874.7179	60.15263
874.8594	60.02782
875.001	60.81638
875.1425	60.29961
875.2841	59.73716
875.4256	58.54397
875.5671	55.90604
875.7086	58.82267
875.85	57.21344
875.9915	58.39366
876.133	60.94706
876.2744	56.03017
876.4159	55.42596
876.5573	57.08764
876.6987	56.44818
876.8401	57.37483
876.9815	56.19803
877.1229	61.50212
877.2643	57.56505
877.4056	54.22429
877.547	55.09652
877.6884	52.22422
877.8297	59.69144
877.971	60.86306
878.1123	59.20188
878.2536	57.62384
878.3949	52.49416
878.5362	55.09678
878.6774	54.38857
878.8187	54.12413
878.9599	52.08619
879.1011	49.41019
879.2424	56.52633
879.3836	59.99836
879.5248	52.97281
879.666	54.05443
879.8071	51.95738
879.9483	56.56458
880.0895	55.07347
880.2306	54.23761
880.3718	52.35972
880.5129	46.64228
880.654	48.68988
880.7951	45.68642
880.9362	50.85918
881.0773	56.32654
881.2183	55.72287
881.3594	55.62328
881.5004	59.36944
881.6414	58.17817
881.7825	55.50087
881.9235	55.53423
882.0645	57.14959
882.2054	52.89704
882.3464	51.23508
882.4874	56.87439
882.6284	54.25277
882.7693	54.59911
882.9103	52.23918
883.0512	54.53635
883.1921	51.45845
883.333	54.9356
883.4739	58.78813
883.6147	54.66729
883.7556	55.89506
883.8965	50.37042
884.0374	55.28347
884.1782	54.01592
884.319	50.98639
884.4598	50.97558
884.6006	53.89679
884.7414	55.47569
884.8822	54.81744
885.0229	55.02851
885.1637	52.40944
885.3044	47.52265
885.4452	50.61391
885.5859	51.26472
885.7266	54.18238
885.8673	53.14645
886.008	50.88691
886.1487	49.36293
886.2894	48.57072
886.43	47.85894
886.5707	50.15671
886.7113	54.72297
886.8519	53.95856
886.9926	50.72221
887.1331	49.47449
887.2737	52.19067
887.4143	48.30806
887.5549	52.01331
887.6954	50.75651
887.836	52.8634
887.9765	50.27956
888.1171	50.44545
888.2576	45.20971
888.3981	46.62578
888.5386	48.45136
888.679	50.83047
888.8195	51.32527
888.96	47.51274
889.1004	50.6568
889.2408	47.64387
889.3813	50.50831
889.5217	55.63857
889.6621	50.96669
889.8025	51.34816
889.9429	43.85257
890.0833	48.60717
890.2236	53.6209
890.364	51.75026
890.5043	52.42144
890.6446	52.21399
890.7849	48.05119
890.9252	48.27738
891.0655	48.19932
891.2058	50.43055
891.3461	44.46954
891.4863	46.40052
891.6266	48.21487
891.7668	54.41395
891.907	49.67214
892.0472	48.06999
892.1874	50.24632
892.3276	48.35604
892.4678	46.40653
892.608	45.24815
892.7481	47.85246
892.8883	42.28581
893.0284	45.98454
893.1685	47.74715
893.3087	46.74463
893.4487	44.7754
893.5889	40.33984
893.7289	43.60349
893.869	50.27432
894.009	51.98233
894.1491	47.4688
894.2891	47.08277
894.4291	40.49745
894.5692	40.403
894.7092	42.97431
894.8491	44.34341
894.9891	39.27675
895.1291	43.95335
895.269	43.9033
895.409	40.51083
895.549	43.06891
895.6888	40.75551
895.8288	44.91106
895.9687	45.25618
896.1086	43.7519
896.2484	36.08301
896.3883	37.61889
896.5281	36.95575
896.668	40.09168
896.8079	36.7803
896.9476	39.65614
897.0875	42.24517
897.2272	37.69925
897.3671	33.43525
897.5068	31.10066
897.6466	33.83084
897.7864	36.36262
897.9261	41.87781
898.0658	40.55436
898.2056	42.28915
898.3453	43.58977
898.4849	40.432
898.6246	34.45394
898.7643	37.44345
898.904	31.54033
899.0436	30.56067
899.1833	31.89567
899.3229	37.41038
899.4625	41.23977
899.6021	39.03834
899.7417	41.16368
899.8813	46.64869
900.0209	44.97149
900.1605	34.06108
900.3	37.39682
900.4395	39.77596
900.579	43.35834
900.7186	36.94713
900.8581	38.27711
900.9976	34.05745
901.1371	37.59902
901.2766	39.80756
901.416	37.47441
901.5555	33.23642
901.6949	33.73439
901.8344	31.83556
901.9738	35.52102
902.1132	42.66856
902.2526	35.96569
902.3919	35.95126
902.5313	36.23407
902.6707	39.33387
