SPECTRUM DATA FILE
SpectrumCount:	1
PixelCount:	3648
UserName:	ToughBook User
SampleName:	
LightSource:	
Comments:	
DeviceName:	Qwave
DeviceManufacturer:	Broadcom
DeviceSerialNo:	11311

Name:	last spectrum
Date:	2024-05-02T14:52:26.0567887+02:00
ExposureTime:	0.02
TemporalAvg:	1
IntensityUnit:	normalizedCounts
CCDLoadLevel:	0.06494009
Temperature:	33.14276
DiagramColor:	200
ProcessingSteps:	335

Wavelength [nm]	Intensity1
334.421	13.54904
334.5891	12.69997
334.7573	11.48885
334.9254	10.01533
335.0935	16.43164
335.2616	12.64051
335.4297	8.137448
335.5978	9.763582
335.7659	8.128785
335.934	15.06224
336.1021	12.83516
336.2701	11.35012
336.4382	14.41113
336.6063	12.55388
336.7744	15.1336
336.9424	16.41859
337.1105	16.48718
337.2785	17.35658
337.4466	12.74068
337.6146	14.84205
337.7827	15.60836
337.9507	12.30605
338.1187	9.946976
338.2867	12.99535
338.4548	15.35548
338.6228	16.1442
338.7908	11.49879
338.9588	13.12046
339.1268	13.62599
339.2948	11.44739
339.4628	15.69928
339.6308	12.54164
339.7988	14.71247
339.9667	13.94456
340.1347	13.36452
340.3027	16.28195
340.4707	14.75006
340.6386	11.10828
340.8066	9.466974
340.9745	11.39767
341.1425	11.561
341.3104	10.60493
341.4784	11.99738
341.6463	14.89991
341.8142	14.76984
341.9821	9.377057
342.1501	12.29512
342.318	11.17084
342.4859	17.34695
342.6538	13.27268
342.8217	11.60439
342.9896	13.36063
343.1575	13.81355
343.3254	20.44589
343.4933	15.07114
343.6612	15.83158
343.829	9.233583
343.9969	12.24163
344.1648	11.49973
344.3326	11.79088
344.5005	10.84142
344.6683	8.40905
344.8362	13.2612
345.004	16.05185
345.1719	15.36032
345.3397	11.42255
345.5075	11.65843
345.6754	16.17255
345.8432	8.107633
346.011	9.147616
346.1788	15.18279
346.3466	15.09303
346.5144	11.3694
346.6822	11.23154
346.85	14.86258
347.0178	12.63905
347.1856	10.14012
347.3534	14.45857
347.5211	14.93768
347.6889	15.09
347.8567	11.90876
348.0244	9.132293
348.1922	9.895702
348.3599	14.66942
348.5277	13.38255
348.6954	11.93449
348.8632	8.513142
349.0309	10.8163
349.1986	17.16115
349.3663	10.28621
349.5341	11.9356
349.7018	13.41242
349.8695	13.72639
350.0372	13.35389
350.2049	13.44928
350.3726	10.85794
350.5403	11.32304
350.7079	13.20557
350.8756	12.87959
351.0433	15.51902
351.211	15.72523
351.3786	14.1759
351.5463	12.11239
351.714	10.78347
351.8816	12.19366
352.0493	12.10515
352.2169	13.92043
352.3846	9.711002
352.5522	11.4955
352.7198	12.91059
352.8875	13.45927
353.0551	14.44786
353.2227	18.09799
353.3903	12.3601
353.5579	15.00091
353.7255	12.2112
353.8931	11.19082
354.0607	12.28185
354.2283	12.35314
354.3958	14.58642
354.5634	14.37096
354.731	17.28295
354.8986	14.84235
355.0661	16.72444
355.2337	14.50718
355.4012	16.06338
355.5688	13.01296
355.7363	19.26245
355.9039	13.44394
356.0714	14.76739
356.239	8.404583
356.4065	12.52635
356.574	14.25124
356.7415	12.18445
356.909	12.01363
357.0765	11.46165
357.244	16.69116
357.4115	13.62554
357.579	15.63748
357.7465	15.98238
357.914	10.10351
358.0815	13.04789
358.249	11.17308
358.4164	12.27273
358.5839	11.05203
358.7513	9.468745
358.9188	15.5187
359.0862	16.68925
359.2537	14.61871
359.4211	13.69074
359.5886	15.28037
359.756	12.50392
359.9234	14.46562
360.0909	14.38884
360.2583	17.65011
360.4257	14.28271
360.5931	9.442277
360.7605	14.16209
360.9279	16.7221
361.0953	11.16187
361.2627	11.99059
361.4301	17.44163
361.5974	10.05489
361.7648	11.29825
361.9322	15.23844
362.0995	20.52716
362.2669	13.69921
362.4343	19.26233
362.6016	15.99449
362.769	11.68555
362.9363	14.97019
363.1036	16.5961
363.271	17.55113
363.4383	16.337
363.6056	19.52889
363.7729	15.72687
363.9402	22.39396
364.1075	20.80523
364.2748	18.50231
364.4421	21.6101
364.6094	15.03445
364.7767	17.51036
364.944	15.81052
365.1113	16.32675
365.2786	15.44139
365.4458	16.58067
365.6131	18.74858
365.7803	20.23921
365.9476	16.36978
366.1148	18.15976
366.2821	14.98105
366.4493	21.53995
366.6166	17.24179
366.7838	15.59096
366.951	23.66439
367.1182	22.11398
367.2855	20.41314
367.4527	15.95006
367.6199	17.51743
367.7871	15.52492
367.9543	16.82393
368.1215	13.90873
368.2886	16.55744
368.4558	18.32649
368.623	15.13661
368.7902	15.2918
368.9573	19.35964
369.1245	19.24285
369.2917	17.21318
369.4588	15.67723
369.6259	16.78989
369.7931	15.15633
369.9602	17.92266
370.1274	18.81064
370.2945	14.33793
370.4616	16.50335
370.6287	18.00808
370.7958	13.35646
370.963	14.76757
371.1301	16.15795
371.2971	20.8607
371.4643	21.04535
371.6313	14.88686
371.7984	17.52852
371.9655	18.81301
372.1326	17.43602
372.2997	20.67689
372.4667	22.51194
372.6338	14.32588
372.8008	17.10176
372.9679	21.95355
373.1349	23.322
373.3019	22.86509
373.469	19.46539
373.636	17.29051
373.803	19.80511
373.9701	16.95075
374.1371	18.48513
374.3041	19.40839
374.4711	14.66773
374.6381	19.63505
374.8051	19.55496
374.9721	21.51341
375.1391	18.32715
375.3061	22.41213
375.473	22.08768
375.64	25.58011
375.8069	20.60196
375.9739	18.82393
376.1409	18.55207
376.3078	20.83896
376.4748	18.73016
376.6417	17.76135
376.8087	14.62887
376.9756	16.75171
377.1425	17.27633
377.3094	22.69463
377.4763	21.26294
377.6432	24.89359
377.8102	20.80699
377.9771	21.04067
378.144	24.71554
378.3109	21.73498
378.4777	21.11215
378.6446	18.90307
378.8115	19.89443
378.9784	21.24641
379.1452	23.18754
379.3121	21.29668
379.4789	17.58935
379.6458	19.87357
379.8127	19.73925
379.9795	17.30044
380.1463	16.74799
380.3131	19.50026
380.48	20.65441
380.6468	20.10563
380.8136	18.14534
380.9804	16.89276
381.1472	16.21579
381.314	14.0405
381.4808	15.87813
381.6476	16.25357
381.8144	20.33419
381.9812	21.3603
382.148	20.48947
382.3147	19.84528
382.4815	16.37932
382.6483	16.04732
382.815	17.65459
382.9818	18.51082
383.1485	17.48773
383.3153	18.85388
383.482	16.4987
383.6487	20.98108
383.8155	19.82789
383.9822	19.22961
384.1489	19.83586
384.3156	22.54701
384.4823	21.02172
384.649	25.14048
384.8157	25.48649
384.9824	21.36352
385.1491	19.1554
385.3158	19.72574
385.4825	23.78275
385.6491	22.05724
385.8158	16.98346
385.9825	19.78559
386.1491	20.86897
386.3157	21.44689
386.4824	20.33932
386.649	27.95823
386.8157	26.63161
386.9823	23.72446
387.1489	20.82123
387.3156	26.82568
387.4821	22.18786
387.6488	23.40978
387.8154	22.77791
387.982	20.73052
388.1486	21.1057
388.3152	21.92826
388.4818	24.18179
388.6483	24.57399
388.8149	26.31058
388.9815	20.02168
389.148	20.54869
389.3146	21.53911
389.4811	24.23608
389.6477	24.40777
389.8142	27.67206
389.9808	26.83724
390.1473	25.07279
390.3138	22.9388
390.4804	20.76835
390.6469	26.43877
390.8134	25.9741
390.9799	21.77281
391.1464	22.73214
391.3129	24.35022
391.4794	19.87093
391.6459	24.51131
391.8124	24.22045
391.9789	20.13299
392.1453	24.00584
392.3118	20.97485
392.4782	21.57186
392.6447	24.99705
392.8112	18.79825
392.9776	22.42462
393.144	21.01186
393.3105	20.46957
393.4769	22.2632
393.6433	22.41599
393.8098	25.77123
393.9762	23.36088
394.1426	25.38546
394.309	20.12987
394.4754	23.97443
394.6418	26.85986
394.8082	30.32171
394.9746	25.48135
395.141	29.68938
395.3073	28.50208
395.4737	32.11339
395.64	28.9806
395.8064	22.02556
395.9728	30.11698
396.1391	24.49135
396.3055	25.49585
396.4718	27.19726
396.6381	21.77134
396.8045	23.71459
396.9708	23.21883
397.1371	26.26046
397.3034	28.27537
397.4697	22.25414
397.636	28.18844
397.8023	33.78497
397.9686	37.33075
398.1349	31.4846
398.3012	27.04943
398.4675	31.01251
398.6337	33.66309
398.8	30.27907
398.9662	31.72851
399.1325	32.91321
399.2988	35.74678
399.465	33.47824
399.6313	31.09598
399.7975	29.513
399.9637	32.49691
400.1299	33.6486
400.2961	33.35201
400.4624	30.36345
400.6286	30.80666
400.7948	31.98576
400.961	32.23199
401.1272	34.19835
401.2934	36.41571
401.4595	40.08798
401.6257	35.09491
401.7919	33.7472
401.9581	32.61029
402.1242	33.91434
402.2904	31.98961
402.4565	34.19497
402.6227	34.00872
402.7888	37.41061
402.955	35.33908
403.1211	35.28747
403.2872	32.52357
403.4533	36.02184
403.6194	37.76123
403.7856	34.89601
403.9517	36.36197
404.1177	38.13375
404.2838	29.71636
404.4499	33.60569
404.616	32.62714
404.7821	32.60413
404.9482	33.8857
405.1142	37.34338
405.2803	36.56719
405.4464	33.78238
405.6124	36.94409
405.7784	31.26183
405.9445	35.05042
406.1105	36.96213
406.2766	32.86581
406.4426	36.11475
406.6086	37.2393
406.7746	35.01157
406.9406	34.68473
407.1066	37.36573
407.2726	35.66169
407.4386	37.22567
407.6046	38.64262
407.7706	40.16404
407.9366	38.7005
408.1025	39.23348
408.2685	38.35579
408.4344	37.46478
408.6004	44.39193
408.7664	39.56809
408.9323	44.9638
409.0983	44.36894
409.2642	41.31963
409.4301	42.4389
409.596	41.63699
409.762	39.58952
409.9279	39.5016
410.0938	38.15555
410.2597	36.95615
410.4256	34.32698
410.5915	45.30381
410.7574	47.58925
410.9232	41.44559
411.0891	41.819
411.255	47.52752
411.4209	44.36121
411.5867	43.42536
411.7526	47.44491
411.9184	47.37551
412.0843	44.41478
412.2501	42.67844
412.4159	47.03481
412.5818	46.10879
412.7476	46.99004
412.9134	42.70969
413.0792	41.58286
413.245	40.82481
413.4108	44.98742
413.5766	42.80988
413.7424	47.35649
413.9082	52.26603
414.074	45.39998
414.2397	48.62044
414.4055	46.80559
414.5713	44.60226
414.737	42.11843
414.9028	43.84479
415.0685	47.29068
415.2343	48.92664
415.4	48.06778
415.5658	47.24506
415.7315	45.86544
415.8972	46.10257
416.0629	49.81375
416.2286	45.19234
416.3943	47.11289
416.56	46.8891
416.7257	48.2753
416.8914	42.70061
417.0571	42.99423
417.2228	45.25251
417.3884	47.99642
417.5541	43.89905
417.7198	41.63259
417.8854	48.3809
418.0511	50.97857
418.2167	49.78046
418.3824	45.58572
418.548	44.71322
418.7136	46.79863
418.8792	45.71651
419.0449	52.10505
419.2105	51.11913
419.3761	49.78229
419.5417	53.6948
419.7073	48.91678
419.8729	50.76761
420.0385	46.54986
420.204	49.92893
420.3696	50.93769
420.5352	51.97252
420.7007	53.95832
420.8663	55.74383
421.0319	52.78597
421.1974	55.78845
421.3629	55.89291
421.5285	48.98248
421.694	52.30998
421.8595	51.01787
422.0251	56.96559
422.1906	56.81189
422.3561	51.65184
422.5216	48.20674
422.6871	48.39505
422.8526	52.07499
423.0181	53.94625
423.1835	60.46964
423.349	57.04718
423.5145	53.54174
423.68	55.71512
423.8454	57.66423
424.0109	57.77184
424.1763	61.18155
424.3418	57.2486
424.5072	54.0784
424.6726	52.34162
424.838	52.34835
425.0035	54.32472
425.1689	49.5956
425.3343	54.17593
425.4997	59.59851
425.6651	61.60983
425.8305	63.04709
425.9959	59.10727
426.1613	56.49961
426.3267	54.20514
426.492	58.42089
426.6574	55.38455
426.8228	61.80569
426.9881	56.88903
427.1534	51.57827
427.3188	53.84384
427.4841	51.52342
427.6495	55.35791
427.8148	60.83685
427.9801	52.51082
428.1454	55.60859
428.3107	54.56026
428.476	64.43244
428.6414	65.47654
428.8066	57.36673
428.9719	55.17184
429.1372	56.0682
429.3025	55.40874
429.4678	60.30506
429.633	55.06183
429.7983	55.32182
429.9636	50.00911
430.1288	55.45245
430.294	48.70726
430.4593	47.60786
430.6245	51.73224
430.7897	53.03135
430.955	52.94335
431.1202	51.631
431.2854	53.15881
431.4506	55.84822
431.6158	62.67273
431.781	67.91509
431.9462	66.44272
432.1114	61.93447
432.2766	59.64518
432.4417	57.10474
432.6069	59.54316
432.772	61.5542
432.9372	62.24621
433.1024	62.77263
433.2675	64.22854
433.4326	61.16312
433.5977	64.14385
433.7629	58.566
433.928	58.67999
434.0931	55.48523
434.2582	57.2425
434.4233	63.94672
434.5884	67.07995
434.7535	70.03848
434.9186	66.63792
435.0837	63.09803
435.2488	62.74583
435.4138	68.6794
435.5789	69.62594
435.744	77.14119
435.909	70.73617
436.0741	72.03847
436.2391	74.2295
436.4042	71.8082
436.5692	76.10183
436.7342	70.67146
436.8992	74.54182
437.0643	75.92738
437.2293	74.78781
437.3943	71.94507
437.5593	69.50782
437.7243	68.70536
437.8893	70.95562
438.0542	71.86887
438.2192	65.39053
438.3842	68.32324
438.5491	63.21038
438.7141	61.98579
438.8791	72.64433
439.044	69.96547
439.209	70.74281
439.3739	70.62238
439.5388	72.28104
439.7037	74.74774
439.8687	77.26595
440.0336	74.63622
440.1985	74.82261
440.3634	67.22582
440.5283	73.88451
440.6932	78.7489
440.8581	81.72778
441.0229	84.80115
441.1878	83.33261
441.3527	77.64175
441.5175	79.76264
441.6824	73.89174
441.8472	74.18456
442.0121	78.55873
442.1769	84.37267
442.3418	80.87783
442.5066	78.81518
442.6714	81.84743
442.8362	84.54156
443.001	85.73401
443.1659	88.37522
443.3307	76.04553
443.4955	74.20396
443.6602	78.58977
443.825	85.07663
443.9898	83.57626
444.1546	78.22973
444.3193	80.37132
444.4841	77.2412
444.6488	83.11608
444.8136	83.54521
444.9783	83.23437
445.1431	86.86404
445.3078	81.9333
445.4725	76.37998
445.6372	82.94405
445.802	78.42267
445.9667	76.16829
446.1314	73.77152
446.2961	77.97234
446.4608	83.86762
446.6255	83.73138
446.7901	85.31935
446.9548	82.30671
447.1195	89.69688
447.2841	86.95338
447.4488	87.25236
447.6134	89.51271
447.7781	90.71376
447.9427	88.09951
448.1074	87.23363
448.272	85.98553
448.4366	87.86937
448.6012	93.0771
448.7658	88.80746
448.9305	84.32906
449.095	88.63081
449.2596	86.67099
449.4242	84.6808
449.5888	88.89498
449.7534	95.0291
449.9179	94.01247
450.0825	89.9366
450.2471	92.18314
450.4116	88.16444
450.5762	95.09861
450.7407	96.886
450.9052	91.04051
451.0698	94.24535
451.2343	92.75785
451.3988	91.52598
451.5633	96.13976
451.7278	95.65911
451.8923	87.43519
452.0568	86.48071
452.2213	89.84352
452.3858	95.22468
452.5503	97.48373
452.7148	89.22714
452.8792	83.70803
453.0437	84.83377
453.2081	84.78943
453.3726	88.09956
453.537	92.17372
453.7015	101.7909
453.8659	102.9433
454.0303	93.35985
454.1947	101.6522
454.3592	100.9358
454.5236	96.09968
454.688	94.90124
454.8524	91.87711
455.0168	92.86712
455.1811	90.36491
455.3455	92.22336
455.5099	93.48684
455.6743	92.76488
455.8386	99.69089
456.003	104.2439
456.1673	106.1268
456.3317	98.79109
456.496	97.00086
456.6603	98.85683
456.8246	104.1435
456.989	104.482
457.1533	102.7921
457.3176	103.081
457.4819	102.1138
457.6462	105.8893
457.8105	102.5976
457.9748	100.9653
458.1391	98.32029
458.3033	101.7872
458.4676	104.1334
458.6319	105.137
458.7961	100.1252
458.9604	97.18054
459.1246	93.44492
459.2888	98.93919
459.4531	102.9805
459.6173	101.2081
459.7815	93.28214
459.9457	103.9801
460.11	99.84942
460.2741	102.0468
460.4384	107.1099
460.6025	101.6937
460.7667	104.8844
460.9309	105.616
461.0951	103.6606
461.2592	103.3605
461.4234	108.0424
461.5876	107.0218
461.7517	101.5731
461.9159	103.1966
462.08	106.0174
462.2441	106.9602
462.4082	111.9223
462.5724	108.6368
462.7365	102.5642
462.9006	106.4384
463.0647	108.75
463.2288	107.3505
463.3929	102.1685
463.557	103.792
463.721	103.2441
463.8851	99.05474
464.0492	99.28954
464.2132	106.5132
464.3773	110.8425
464.5414	105.2022
464.7054	104.8239
464.8694	102.1275
465.0334	103.5594
465.1975	106.9696
465.3615	101.982
465.5255	101.4037
465.6895	108.256
465.8535	105.2682
466.0175	105.4524
466.1815	112.3152
466.3455	107.5621
466.5095	100.9331
466.6734	99.09541
466.8374	99.55336
467.0014	98.84011
467.1653	101.7489
467.3293	106.6571
467.4932	107.466
467.6571	106.199
467.8211	111.0661
467.985	103.9792
468.1489	102.7764
468.3128	110.3488
468.4767	107.9693
468.6406	108.3939
468.8045	103.0788
468.9684	109.6112
469.1323	112.4371
469.2962	111.3467
469.46	114.595
469.6239	113.7026
469.7878	113.1944
469.9516	106.7164
470.1154	108.1319
470.2793	107.5939
470.4431	105.5182
470.607	105.8709
470.7708	108.0481
470.9346	107.9584
471.0984	105.7713
471.2622	112.9413
471.426	113.2991
471.5898	114.6177
471.7536	118.2923
471.9174	115.5265
472.0811	117.993
472.2449	116.0163
472.4087	119.5755
472.5724	112.1481
472.7362	114.5346
472.8999	113.9503
473.0637	109.4884
473.2274	112.9698
473.3911	112.2936
473.5548	120.1836
473.7185	121.4735
473.8822	118.4806
474.0459	115.137
474.2096	117.4762
474.3733	115.3167
474.537	119.4883
474.7007	115.4282
474.8643	124.4038
475.028	124.5292
475.1917	116.6644
475.3553	114.929
475.519	116.1577
475.6826	117.7568
475.8463	113.83
476.0099	115.8024
476.1735	116.1952
476.3371	116.2938
476.5007	118.2712
476.6643	111.3291
476.8279	111.0655
476.9915	118.3592
477.1551	116.8014
477.3187	117.1724
477.4823	118.4424
477.6458	123.9168
477.8094	128.5247
477.9729	127.8148
478.1365	126.9747
478.3	116.3729
478.4636	110.4363
478.6271	120.1547
478.7906	116.9404
478.9541	115.5304
479.1176	113.2385
479.2812	118.3607
479.4447	122.1348
479.6082	116.672
479.7716	116.2955
479.9351	119.0783
480.0986	118.3114
480.2621	116.7566
480.4255	115.9038
480.589	119.8919
480.7524	121.7035
480.9159	118.8417
481.0793	116.9313
481.2428	117.2323
481.4062	119.0367
481.5696	123.6248
481.733	122.1617
481.8964	122.9102
482.0598	118.1897
482.2232	114.352
482.3866	113.4936
482.55	113.0672
482.7134	122.1327
482.8768	115.7935
483.0401	115.9599
483.2035	116.7349
483.3668	118.5363
483.5302	118.3799
483.6935	117.3121
483.8568	113.315
484.0202	111.6033
484.1835	115.2555
484.3468	122.1805
484.5101	115.7252
484.6734	115.6566
484.8367	117.3749
485	122.1607
485.1633	116.4109
485.3266	117.8003
485.4899	116.5429
485.6531	117.9227
485.8164	109.3693
485.9796	97.28951
486.1429	93.87591
486.3061	89.96611
486.4694	105.7493
486.6326	119.4189
486.7958	115.3455
486.959	115.1103
487.1223	112.1247
487.2855	109.5993
487.4486	119.2316
487.6118	116.252
487.775	115.7548
487.9382	118.8513
488.1014	120.6106
488.2646	118.1447
488.4277	119.6507
488.5909	124.0988
488.754	125.7217
488.9171	109.9454
489.0803	115.0392
489.2434	116.3982
489.4066	116.1717
489.5697	127.7281
489.7328	125.7335
489.8959	125.4482
490.059	131.503
490.2221	123.7458
490.3852	127.7959
490.5482	121.677
490.7113	122.7473
490.8744	122.8889
491.0374	122.7166
491.2005	123.163
491.3636	123.2034
491.5266	123.9343
491.6896	131.3053
491.8527	121.7485
492.0157	108.3849
492.1787	110.9476
492.3417	122.822
492.5047	125.0649
492.6677	125.7253
492.8307	129.9859
492.9937	128.4036
493.1567	127.4471
493.3196	125.0087
493.4826	131.1032
493.6456	117.5196
493.8085	123.3863
493.9715	128.0925
494.1344	131.8362
494.2974	130.4435
494.4603	134.1734
494.6232	131.9922
494.7861	133.9778
494.949	132.0539
495.1119	129.3656
495.2748	136.6035
495.4377	133.9098
495.6006	126.7275
495.7635	117.4607
495.9264	120.984
496.0892	127.1056
496.2521	128.4265
496.4149	127.4841
496.5778	128.6527
496.7407	132.2417
496.9035	132.0587
497.0663	133.8286
497.2291	130.2139
497.3919	137.9413
497.5547	139.4609
497.7176	133.297
497.8804	132.1227
498.0432	124.6048
498.2059	125.6542
498.3687	127.2285
498.5315	124.8212
498.6942	129.373
498.857	126.4721
499.0198	127.0948
499.1825	130.5626
499.3452	131.4355
499.508	133.3049
499.6707	134.1668
499.8334	131.3893
499.9962	134.6501
500.1589	139.7644
500.3216	136.1482
500.4843	132.2651
500.6469	126.472
500.8096	131.1379
500.9723	131.4393
501.135	136.23
501.2976	135.7225
501.4603	123.1449
501.623	125.2225
501.7856	131.8475
501.9482	132.6847
502.1109	132.2376
502.2735	133.612
502.4361	132.6681
502.5987	140.3587
502.7614	138.1909
502.924	137.2416
503.0865	140.1254
503.2491	148.2005
503.4117	140.3975
503.5743	142.8864
503.7368	140.0279
503.8994	135.8476
504.062	136.9239
504.2245	132.7489
504.3871	135.3739
504.5496	144.9794
504.7121	147.3531
504.8746	149.0794
505.0372	149.6499
505.1997	148.0838
505.3622	150.1581
505.5247	148.8088
505.6872	155.5611
505.8497	156.5752
506.0121	154.601
506.1746	153.8773
506.3371	157.6656
506.4995	158.2096
506.662	152.423
506.8244	148.1388
506.9869	156.1885
507.1493	156.1886
507.3117	154.9128
507.4742	158.4116
507.6366	153.7911
507.799	155.0445
507.9614	143.9227
508.1238	146.4729
508.2862	145.585
508.4485	146.6171
508.6109	155.3439
508.7733	164.8499
508.9357	164.7012
509.098	169.0877
509.2604	166.3148
509.4227	166.9039
509.5851	167.5379
509.7474	159.1155
509.9097	158.8689
510.072	164.7261
510.2343	166.7804
510.3966	166.3008
510.5589	165.8965
510.7212	156.1499
510.8835	163.156
511.0458	170.3528
511.2081	171.7776
511.3703	171.7334
511.5326	174.2013
511.6949	168.9329
511.8571	178.4032
512.0193	175.2381
512.1816	171.3233
512.3438	172.7236
512.506	168.8514
512.6682	170.4247
512.8304	169.1284
512.9926	173.359
513.1548	171.3537
513.317	169.6593
513.4792	181.2858
513.6414	177.3167
513.8035	173.5128
513.9657	168.8097
514.1279	168.29
514.29	170.7495
514.4521	174.8705
514.6143	174.6425
514.7764	176.8794
514.9385	180.949
515.1006	179.542
515.2628	178.9522
515.4249	180.5393
515.587	182.0048
515.7491	191.7735
515.9111	185.5854
516.0732	183.3108
516.2353	178.1284
516.3973	176.0143
516.5594	170.4274
516.7214	163.9422
516.8835	161.7135
517.0455	164.3574
517.2076	158.6575
517.3696	159.8174
517.5316	173.8384
517.6937	190.713
517.8557	194.1661
518.0176	197.8269
518.1796	176.5944
518.3416	168.4973
518.5036	167.2034
518.6656	177.1667
518.8275	190.2074
518.9895	188.8041
519.1514	192.3363
519.3134	188.8944
519.4753	195.4263
519.6373	202.091
519.7992	201.0076
519.9611	204.5647
520.123	206.0308
520.2849	203.3257
520.4468	206.1084
520.6087	198.3368
520.7706	197.2891
520.9325	202.8589
521.0944	206.878
521.2562	212.6124
521.4181	216.8956
521.58	214.4737
521.7418	216.5065
521.9036	208.9729
522.0655	215.5646
522.2273	224.124
522.3891	218.8036
522.551	210.1249
522.7128	207.7945
522.8746	200.6681
523.0363	209.6062
523.1981	218.5361
523.3599	219.8009
523.5217	217.6267
523.6835	224.9344
523.8452	233.276
524.007	241.7932
524.1687	242.4879
524.3304	238.6588
524.4922	240.8083
524.6539	243.0106
524.8157	240.5728
524.9774	234.2045
525.1391	231.7704
525.3008	233.1796
525.4625	241.4963
525.6241	243.3895
525.7858	246.9552
525.9475	249.7706
526.1092	233.5235
526.2709	228.4168
526.4325	229.6376
526.5942	221.8347
526.7558	218.5637
526.9174	224.3208
527.079	223.0822
527.2407	230.8576
527.4023	233.7867
527.5639	240.0123
527.7255	250.3913
527.8871	259.8101
528.0487	259.5209
528.2103	253.9718
528.3718	253.9808
528.5334	257.4968
528.695	265.3028
528.8565	270.3335
529.0181	267.5555
529.1796	272.7949
529.3412	274.0903
529.5027	271.571
529.6642	257.0093
529.8257	255.6902
529.9872	252.9832
530.1487	262.214
530.3102	269.534
530.4717	272.1268
530.6332	274.454
530.7947	283.0493
530.9562	278.942
531.1176	281.989
531.2791	279.9107
531.4405	274.6884
531.6019	281.8448
531.7634	271.6635
531.9248	276.12
532.0862	283.8098
532.2477	272.7939
532.4091	271.6683
532.5704	267.3951
532.7319	254.8893
532.8932	253.7051
533.0546	263.795
533.216	267.1154
533.3774	284.7632
533.5388	280.4305
533.7001	273.5114
533.8615	280.4574
534.0228	268.5662
534.1841	265.6629
534.3455	267.9053
534.5068	278.2979
534.6681	284.2567
534.8293	277.3747
534.9907	273.646
535.152	275.7488
535.3132	285.5863
535.4745	283.734
535.6358	290.1277
535.7971	285.8726
535.9583	279.4782
536.1196	283.7925
536.2808	279.8562
536.4421	273.1063
536.6033	269.1357
536.7645	277.143
536.9258	280.081
537.087	272.4193
537.2482	267.3691
537.4094	276.1577
537.5706	283.2396
537.7318	289.913
537.8929	284.4934
538.0541	277.2842
538.2153	280.4723
538.3764	287.9234
538.5376	287.6234
538.6987	288.7141
538.8599	289.7986
539.021	283.3192
539.1821	278.7479
539.3432	277.9712
539.5043	277.1184
539.6655	276.1316
539.8265	274.2219
539.9876	271.8749
540.1487	272.0855
540.3098	267.8428
540.4708	261.7587
540.6319	265.1081
540.793	272.4455
540.954	267.9283
541.1151	273.042
541.2761	274.4212
541.4371	278.588
541.5981	279.6105
541.7592	281.8671
541.9202	289.6892
542.0812	275.732
542.2422	280.3942
542.4031	284.3773
542.5641	279.8583
542.7251	277.727
542.886	282.8321
543.0471	278.7009
543.208	274.4455
543.369	277.751
543.5298	273.4712
543.6908	285.3119
543.8517	294.3614
544.0126	292.7339
544.1736	287.4209
544.3345	290.5028
544.4954	284.9785
544.6563	272.3351
544.8171	273.4648
544.978	280.8105
545.1389	282.9724
545.2997	285.4729
545.4606	283.0901
545.6215	284.2689
545.7823	289.6208
545.9432	290.0826
546.104	290.2103
546.2648	285.8781
546.4256	280.9604
546.5864	284.2207
546.7473	291.3598
546.908	291.0012
547.0688	294.8806
547.2296	295.6643
547.3904	284.3717
547.5511	275.9879
547.7119	276.7349
547.8727	273.3138
548.0334	286.0719
548.1942	285.6767
548.3549	294.6263
548.5156	303.3784
548.6763	293.8397
548.837	288.6627
548.9977	288.8221
549.1584	296.9637
549.3192	294.3632
549.4798	294.1114
549.6405	283.1087
549.8011	289.8589
549.9619	284.6232
550.1225	287.7541
550.2831	289.6451
550.4438	286.5159
550.6044	285.4047
550.765	288.8857
550.9257	292.8046
551.0863	296.6201
551.2469	289.8139
551.4075	288.2649
551.5681	294.2473
551.7287	297.742
551.8893	301.4752
552.0498	295.4817
552.2104	298.3095
552.371	291.4451
552.5315	291.1069
552.6921	279.9985
552.8526	281.306
553.0131	279.5974
553.1736	285.2878
553.3342	294.2222
553.4947	292.5912
553.6552	299.3726
553.8157	290.5446
553.9762	294.3318
554.1367	299.8803
554.2971	296.7676
554.4576	290.8645
554.618	288.1646
554.7785	292.2137
554.939	295.0814
555.0994	297.084
555.2598	293.5482
555.4203	284.1141
555.5807	285.4037
555.7411	286.4217
555.9015	289.9814
556.0619	293.9998
556.2223	287.8423
556.3827	279.5959
556.5431	281.7754
556.7034	283.0779
556.8638	269.5651
557.0242	282.9809
557.1845	282.9399
557.3448	274.8686
557.5052	276.3913
557.6655	282.071
557.8259	281.0947
557.9861	281.6471
558.1465	281.9319
558.3068	278.8947
558.467	266.2251
558.6274	260.5761
558.7877	256.9035
558.9479	254.4597
559.1082	266.7411
559.2684	268.521
559.4287	269.4005
559.5889	269.7058
559.7491	262.3535
559.9094	261.1665
560.0696	269.0617
560.2299	266.1198
560.3901	262.775
560.5502	267.353
560.7104	274.8913
560.8707	276.2023
561.0308	278.1559
561.191	282.8845
561.3511	268.9165
561.5114	256.9283
561.6714	253.4162
561.8316	259.2664
561.9918	273.7179
562.1519	267.8971
562.312	259.3345
562.4722	262.3412
562.6323	261.2919
562.7924	255.1167
562.9525	271.8759
563.1125	271.2343
563.2726	265.435
563.4327	268.2229
563.5928	265.7042
563.7528	263.6556
563.9129	257.4637
564.0729	250.9036
564.233	255.7073
564.393	253.7029
564.553	255.1999
564.7131	261.5011
564.873	261.6915
565.0331	255.7515
565.1931	258.6268
565.353	251.0565
565.5131	251.4294
565.673	248.643
565.833	246.6187
565.9929	247.5731
566.1529	247.9142
566.3129	246.7461
566.4728	240.5114
566.6328	243.0378
566.7927	251.7794
566.9526	250.3774
567.1125	256.1308
567.2724	249.6264
567.4323	247.9734
567.5922	257.9109
567.7521	254.5546
567.9119	244.4064
568.0718	244.3829
568.2317	226.2224
568.3915	238.1155
568.5514	240.0821
568.7112	241.1536
568.871	231.5275
569.0309	233.7029
569.1907	241.0507
569.3505	243.8727
569.5103	244.2417
569.6701	231.9512
569.8299	230.8608
569.9897	232.3483
570.1495	238.2408
570.3092	233.4719
570.469	221.453
570.6287	230.7758
570.7885	226.3476
570.9482	220.8563
571.108	225.0877
571.2677	219.6248
571.4274	221.6058
571.5871	230.3232
571.7468	232.7504
571.9066	229.8119
572.0662	227.6611
572.2259	229.0873
572.3856	232.7047
572.5452	227.0347
572.7049	226.4452
572.8646	228.9498
573.0242	234.2914
573.1838	230.0253
573.3435	223.6212
573.5031	224.3706
573.6627	223.8121
573.8223	231.6535
573.9819	225.187
574.1415	221.113
574.3011	224.3903
574.4607	230.9273
574.6203	223.4616
574.7798	224.2844
574.9394	226.1414
575.099	217.1232
575.2585	217.2862
575.418	210.9274
575.5776	212.4685
575.7371	216.5317
575.8966	213.3583
576.0562	216.6949
576.2156	218.8664
576.3751	213.044
576.5346	208.0558
576.6941	210.284
576.8536	214.504
577.0131	214.8256
577.1725	221.2609
577.332	218.4697
577.4914	215.4775
577.6508	210.4087
577.8103	211.7744
577.9697	210.5044
578.1291	203.3532
578.2885	196.4427
578.4479	207.2862
578.6073	205.0911
578.7667	206.588
578.9261	210.0527
579.0854	207.5727
579.2448	205.3663
579.4042	203.4442
579.5635	206.6726
579.7229	205.1667
579.8822	200.0775
580.0416	204.0901
580.2009	201.8137
580.3602	198.1069
580.5195	199.4787
580.6788	207.5747
580.8381	204.1723
580.9974	206.1319
581.1566	204.7187
581.3159	207.0118
581.4752	201.2117
581.6345	200.5916
581.7937	194.3143
581.9529	195.2682
582.1122	197.7946
582.2714	199.8391
582.4306	198.3122
582.5898	198.9702
582.749	198.986
582.9082	192.757
583.0674	191.0065
583.2266	198.1377
583.3857	199.4137
583.5449	197.238
583.7041	195.1784
583.8633	198.4905
584.0224	197.7014
584.1815	193.7074
584.3407	197.662
584.4998	196.516
584.6589	189.5578
584.818	188.0209
584.9771	190.1855
585.1362	192.931
585.2953	185.5447
585.4544	185.2639
585.6135	189.6363
585.7725	182.9515
585.9316	178.7602
586.0906	185.8369
586.2497	191.4162
586.4087	191.9097
586.5677	186.9096
586.7267	174.0339
586.8858	187.086
587.0448	186.9843
587.2038	189.9314
587.3628	188.9115
587.5218	191.3056
587.6807	189.7729
587.8397	185.7825
587.9987	175.62
588.1577	174.5572
588.3166	181.4817
588.4755	182.1783
588.6345	178.0058
588.7934	172.3447
588.9523	168.7448
589.1112	168.6126
589.2701	164.6823
589.429	170.1091
589.5879	171.8036
589.7468	164.0627
589.9056	174.3019
590.0645	176.7909
590.2234	172.1892
590.3822	173.2988
590.5411	171.0555
590.6999	176.2777
590.8588	175.3545
591.0176	172.7762
591.1764	170.5262
591.3352	172.8298
591.494	173.7318
591.6528	172.5993
591.8116	171.4693
591.9703	168.77
592.1291	170.6765
592.2878	171.7851
592.4467	169.7168
592.6053	168.6203
592.7641	170.2336
592.9229	166.4068
593.0816	166.7881
593.2403	171.4703
593.399	170.7832
593.5577	170.9644
593.7164	169.7601
593.8751	163.7593
594.0338	169.5372
594.1924	172.5257
594.3511	167.2886
594.5098	163.4915
594.6684	161.1909
594.8271	170.5377
594.9857	161.4877
595.1443	165.4618
595.303	172.2449
595.4615	163.8785
595.6202	167.4403
595.7787	165.9816
595.9374	165.9658
596.0959	171.2884
596.2545	167.173
596.4131	176.0237
596.5717	170.3381
596.7302	173.6257
596.8887	170.2194
597.0473	168.655
597.2058	168.7799
597.3644	168.6849
597.5229	160.4884
597.6814	163.569
597.8399	165.6622
597.9984	171.3524
598.1569	165.8451
598.3154	166.5576
598.4738	167.7724
598.6323	169.0401
598.7908	165.4339
598.9492	164.2116
599.1076	164.4239
599.2661	163.4016
599.4245	166.4539
599.5829	167.4939
599.7413	162.5262
599.8997	163.0923
600.0581	165.2778
600.2165	164.8224
600.3749	164.3038
600.5333	169.6615
600.6917	168.18
600.85	167.303
601.0084	167.1746
601.1667	170.262
601.325	168.6926
601.4833	167.6281
601.6417	163.3561
601.8	157.6901
601.9583	161.7845
602.1166	157.621
602.2749	152.435
602.4332	152.2403
602.5914	163.1221
602.7498	163.5249
602.908	164.1028
603.0662	163.1079
603.2245	162.2285
603.3828	159.4568
603.541	163.0257
603.6992	163.6714
603.8574	161.6135
604.0156	161.367
604.1738	162.1609
604.332	163.5441
604.4902	161.0052
604.6484	164.6712
604.8065	162.3555
604.9647	159.9472
605.1229	158.6942
605.281	160.4419
605.4391	154.9994
605.5973	156.4512
605.7554	155.6706
605.9135	162.1343
606.0717	162.6839
606.2297	156.2729
606.3878	156.3449
606.5459	158.5141
606.704	158.5591
606.8621	157.2312
607.0201	159.7334
607.1782	161.2999
607.3362	156.1771
607.4943	154.8003
607.6523	154.1135
607.8104	155.6438
607.9684	159.7491
608.1264	163.4911
608.2844	160.448
608.4424	154.2399
608.6003	158.7847
608.7584	151.8883
608.9163	155.1567
609.0743	152.7401
609.2322	150.2241
609.3902	144.7977
609.5482	150.8021
609.7061	149.8821
609.864	152.5139
610.0219	156.2538
610.1798	151.0907
610.3377	150.5899
610.4956	148.2403
610.6535	153.9691
610.8114	152.1786
610.9693	153.0066
611.1271	146.9824
611.285	149.4351
611.4429	149.8066
611.6007	151.4918
611.7585	151.2299
611.9164	145.1749
612.0742	144.9878
612.232	146.751
612.3898	148.3196
612.5476	144.7353
612.7054	141.6478
612.8632	145.8486
613.0209	146.7509
613.1787	145.4288
613.3365	146.3622
613.4942	142.5809
613.652	141.1266
613.8097	143.307
613.9674	150.1732
614.1252	148.0899
614.2829	141.1347
614.4406	141.52
614.5983	141.403
614.756	148.6461
614.9136	144.4517
615.0714	137.3262
615.229	136.372
615.3867	134.8851
615.5443	139.5614
615.702	144.1051
615.8596	134.1323
616.0172	140.0213
616.1748	135.7345
616.3325	128.2402
616.4901	135.8517
616.6476	138.8044
616.8052	135.1881
616.9628	138.4583
617.1204	132.2058
617.278	133.7997
617.4355	134.8184
617.5931	132.5676
617.7506	135.2093
617.9081	136.4523
618.0657	140.229
618.2232	135.56
618.3807	139.4752
618.5382	135.4438
618.6957	136.085
618.8532	132.011
619.0107	128.0241
619.1682	132.9005
619.3256	136.1448
619.4831	136.2386
619.6406	139.9984
619.798	137.8373
619.9554	140.9791
620.1129	143.1414
620.2703	135.5298
620.4277	137.8556
620.5851	130.1066
620.7425	135.4133
620.8998	140.6503
621.0573	134.1332
621.2146	142.0607
621.372	137.5391
621.5294	125.9195
621.6867	130.3209
621.8441	134.7381
622.0013	130.7313
622.1587	134.5319
622.316	130.7223
622.4733	132.8918
622.6306	133.658
622.7879	134.0999
622.9452	131.9202
623.1025	129.1234
623.2598	132.131
623.4171	132.8802
623.5743	125.9021
623.7316	131.1629
623.8888	135.891
624.046	132.9812
624.2032	130.1415
624.3605	124.2738
624.5176	123.6642
624.6749	123.3304
624.8321	124.4338
624.9893	125.0733
625.1464	129.0948
625.3036	121.209
625.4608	127.7004
625.6179	125.0132
625.7751	124.0741
625.9322	125.966
626.0894	122.4003
626.2465	128.2593
626.4036	128.4328
626.5607	135.448
626.7178	127.2904
626.8749	124.3722
627.032	128.351
627.189	123.0536
627.3461	120.534
627.5032	122.4285
627.6602	120.9508
627.8173	120.9366
627.9743	120.7971
628.1313	125.1123
628.2884	125.1047
628.4454	120.0381
628.6024	126.7981
628.7594	129.3864
628.9164	129.4068
629.0734	132.3866
629.2303	128.162
629.3873	121.2807
629.5443	119.3834
629.7012	121.9681
629.8582	119.1237
630.0151	116.3471
630.172	116.9019
630.3289	118.5323
630.4858	121.3752
630.6428	122.6708
630.7996	122.5599
630.9565	118.4314
631.1134	121.2009
631.2703	127.3534
631.4272	125.1625
631.584	126.0016
631.7408	120.1246
631.8977	113.8541
632.0546	115.4859
632.2114	115.4889
632.3682	122.8183
632.525	123.2702
632.6818	119.6008
632.8386	117.7568
632.9954	122.4534
633.1522	125.9005
633.3089	120.7675
633.4657	122.4154
633.6224	122.2165
633.7792	119.5757
633.9359	124.0426
634.0927	123.8109
634.2494	125.5402
634.4061	124.9503
634.5628	120.0968
634.7195	123.0061
634.8762	128.3248
635.0329	120.8859
635.1895	121.1789
635.3462	122.7155
635.5029	120.7898
635.6595	115.8683
635.8162	117.1298
635.9728	121.7653
636.1295	121.441
636.2861	118.3199
636.4427	121.9221
636.5992	121.9326
636.7559	118.8503
636.9124	122.6444
637.069	117.9678
637.2256	118.3922
637.3821	120.5026
637.5387	118.9408
637.6953	117.6458
637.8518	116.1682
638.0084	109.3709
638.1649	119.2643
638.3214	122.703
638.4779	120.1806
638.6344	117.0028
638.7909	114.3962
638.9474	109.9899
639.1038	117.2914
639.2603	120.442
639.4167	116.5364
639.5732	114.6416
639.7297	107.9719
639.8861	108.5697
640.0425	110.0902
640.199	107.1988
640.3553	111.9192
640.5118	113.9036
640.6682	110.7775
640.8245	108.3113
640.981	113.0019
641.1373	111.4816
641.2936	105.9924
641.45	106.3324
641.6064	110.7104
641.7627	104.7088
641.9191	110.2806
642.0754	112.6147
642.2317	109.8981
642.388	107.8335
642.5443	108.8307
642.7006	103.8052
642.8569	107.5088
643.0131	105.0397
643.1694	107.9826
643.3257	113.0927
643.4819	105.3705
643.6382	105.2022
643.7944	110.3337
643.9506	110.4442
644.1069	103.0569
644.2631	103.7143
644.4193	108.7592
644.5754	106.6806
644.7316	105.6658
644.8878	103.5644
645.044	100.2716
645.2002	102.8966
645.3563	109.4112
645.5125	101.1071
645.6686	101.5514
645.8248	98.55172
645.9809	101.9782
646.137	96.16624
646.2931	96.09898
646.4492	95.02683
646.6053	97.60806
646.7614	105.3466
646.9174	98.76589
647.0735	100.6975
647.2296	100.0592
647.3856	96.05786
647.5417	95.22686
647.6977	99.61485
647.8537	95.00906
648.0098	99.67273
648.1658	99.47429
648.3218	99.61047
648.4777	94.74436
648.6337	90.08298
648.7897	94.4455
648.9457	97.82215
649.1016	98.2806
649.2576	96.58864
649.4135	92.42811
649.5695	91.82704
649.7254	94.52817
649.8813	97.08458
650.0372	96.68518
650.1932	94.97839
650.3491	88.27499
650.5049	93.26244
650.6608	92.43138
650.8167	97.27823
650.9725	100.8362
651.1284	93.26658
651.2842	94.39254
651.4401	95.72411
651.5959	93.77351
651.7518	92.2093
651.9076	92.2952
652.0634	93.39045
652.2192	90.87782
652.3749	93.96117
652.5308	99.29276
652.6865	98.75113
652.8423	98.0359
652.998	95.56355
653.1538	92.74058
653.3096	93.99129
653.4653	92.90196
653.621	94.47478
653.7767	95.65482
653.9324	92.74483
654.0881	91.29635
654.2438	97.7579
654.3995	93.75302
654.5552	87.49273
654.7109	91.92612
654.8665	95.74415
655.0222	95.13879
655.1778	91.85961
655.3334	98.11511
655.4891	96.27579
655.6447	87.3388
655.8003	85.8605
655.9559	83.9865
656.1115	82.42889
656.2671	76.8175
656.4227	77.09847
656.5782	80.65285
656.7338	82.43506
656.8893	89.9343
657.0449	84.93433
657.2004	90.83527
657.356	96.17476
657.5115	93.86326
657.667	96.8849
657.8225	88.90009
657.978	90.83283
658.1335	91.07924
658.289	93.18084
658.4445	89.99863
658.5999	86.44136
658.7554	87.38464
658.9108	91.65219
659.0663	88.89305
659.2217	85.64925
659.3771	86.87516
659.5325	88.27312
659.6879	83.77308
659.8433	88.67817
659.9987	87.80895
660.1541	85.37967
660.3095	83.73982
660.4648	87.25677
660.6202	84.27773
660.7756	85.13297
660.9309	82.95178
661.0862	81.78079
661.2416	84.22903
661.3969	87.74482
661.5522	91.68504
661.7075	88.36947
661.8628	84.39418
662.0181	90.89626
662.1733	86.06335
662.3286	88.88627
662.4839	89.37457
662.6391	83.73618
662.7944	80.63141
662.9496	77.2562
663.1048	82.87038
663.26	84.66303
663.4152	79.96907
663.5704	83.97292
663.7256	80.1013
663.8808	82.53133
664.036	80.57523
664.1912	80.35486
664.3463	81.67788
664.5015	84.24953
664.6566	86.46294
664.8118	79.42476
664.9669	76.47652
665.122	77.66837
665.2771	79.64052
665.4322	84.77505
665.5873	83.77235
665.7424	83.67663
665.8975	77.85369
666.0526	87.20644
666.2076	80.09956
666.3627	86.5266
666.5177	83.19475
666.6727	83.04268
666.8278	84.25861
666.9828	80.93859
667.1378	83.24216
667.2928	90.52314
667.4478	85.00922
667.6028	84.31712
667.7578	82.65232
667.9127	80.67999
668.0677	78.69238
668.2226	78.53859
668.3776	79.94591
668.5325	79.2751
668.6874	80.02558
668.8423	86.2326
668.9973	81.84639
669.1522	77.86359
669.3071	82.39369
669.4619	80.85036
669.6168	78.26736
669.7717	76.09971
669.9265	75.37309
670.0814	71.18394
670.2362	72.00057
670.3911	72.23251
670.5459	76.97567
670.7007	77.99923
670.8555	78.54552
671.0103	79.7868
671.1651	72.90881
671.3199	70.8659
671.4747	74.04864
671.6295	74.88612
671.7842	75.13047
671.939	72.8714
672.0937	74.70261
672.2484	72.83894
672.4031	77.95043
672.5579	80.26589
672.7126	77.03757
672.8673	77.91785
673.022	73.79288
673.1767	70.22654
673.3314	78.44573
673.486	76.58201
673.6407	74.46673
673.7953	71.05427
673.95	77.57276
674.1046	79.61505
674.2592	71.56208
674.4138	72.43169
674.5684	76.05998
674.723	78.48849
674.8776	75.67564
675.0322	74.37971
675.1868	77.98568
675.3414	74.20054
675.4959	77.28485
675.6505	72.80238
675.805	77.95318
675.9595	77.33388
676.1141	73.33041
676.2686	77.27091
676.4231	72.52381
676.5776	74.47233
676.7321	74.91833
676.8866	73.21733
677.041	69.0998
677.1955	76.11015
677.35	77.50454
677.5044	72.3511
677.6589	69.84064
677.8133	72.49162
677.9677	69.34238
678.1221	69.10456
678.2766	74.51224
678.4309	79.89891
678.5853	71.06339
678.7397	73.9788
678.8941	72.71387
679.0485	72.8317
679.2028	71.56477
679.3571	75.60284
679.5115	71.44809
679.6658	71.8654
679.8201	70.43126
679.9744	71.51402
680.1288	71.27235
680.2831	74.01449
680.4373	72.53585
680.5916	70.02265
680.7459	66.79618
680.9001	69.37282
681.0544	63.56009
681.2087	66.2723
681.3629	68.806
681.5171	69.43422
681.6713	76.10674
681.8256	69.34756
681.9797	69.43583
682.134	76.05238
682.2881	74.32391
682.4423	75.10158
682.5965	73.31091
682.7507	73.66226
682.9048	69.95504
683.059	73.46107
683.2131	71.57668
683.3672	74.69841
683.5213	70.33121
683.6754	72.42867
683.8295	72.04453
683.9836	70.00054
684.1377	70.13048
684.2918	67.63034
684.4459	71.66448
684.5999	73.1902
684.754	72.3103
684.908	70.16673
685.062	66.90569
685.2161	70.23246
685.3701	69.67311
685.5241	72.26982
685.6781	70.07724
685.8321	71.59519
685.9861	73.08224
686.14	71.70619
686.294	72.3407
686.4479	70.44027
686.6019	69.17843
686.7559	68.31476
686.9098	54.37871
687.0637	59.62468
687.2176	69.09603
687.3715	62.19759
687.5254	59.7742
687.6793	64.0972
687.8332	61.9172
687.9871	63.30454
688.1409	70.32873
688.2947	68.75031
688.4486	65.89256
688.6024	69.16393
688.7563	75.36098
688.9101	65.20576
689.0639	69.99796
689.2177	73.77803
689.3715	69.31452
689.5253	67.28571
689.6791	74.98901
689.8328	70.36601
689.9866	71.15437
690.1403	67.29429
690.2941	68.41959
690.4478	69.41956
690.6015	69.73047
690.7552	69.91649
690.9089	69.37175
691.0626	70.92956
691.2164	71.47595
691.37	69.47448
691.5237	73.38207
691.6774	79.01289
691.831	76.70219
691.9847	81.39096
692.1383	74.36813
692.2919	73.39396
692.4456	71.00112
692.5992	78.0578
692.7527	78.87234
692.9064	78.00035
693.0599	74.42119
693.2136	72.92368
693.3671	75.40623
693.5207	74.75702
693.6742	79.89252
693.8278	83.42699
693.9813	82.49442
694.1348	83.15494
694.2883	83.28072
694.4418	82.67459
694.5953	88.47839
694.7488	85.90501
694.9023	80.97571
695.0558	83.40711
695.2093	87.00039
695.3627	80.8938
695.5162	81.45427
695.6696	84.61509
695.8231	82.3696
695.9764	84.72387
696.1299	91.15097
696.2833	92.33818
696.4367	92.23983
696.5901	93.23906
696.7435	91.68866
696.8968	95.61051
697.0502	89.55329
697.2036	95.14197
697.3569	96.854
697.5102	97.02366
697.6635	92.73523
697.8168	97.83813
697.9702	90.22833
698.1235	95.56255
698.2768	95.85807
698.4301	98.44939
698.5833	96.30431
698.7366	99.2893
698.8898	97.51364
699.0431	96.97021
699.1964	103.3058
699.3495	99.61987
699.5028	99.8082
699.656	103.5008
699.8092	107.0458
699.9624	104.2349
700.1156	104.5425
700.2688	101.3111
700.4219	96.70057
700.5751	100.4454
700.7283	109.1196
700.8814	106.9069
701.0345	104.0551
701.1877	100.2338
701.3408	105.4834
701.4939	104.1283
701.647	105.6251
701.8001	106.1787
701.9532	102.0058
702.1063	105.061
702.2593	108.2097
702.4124	103.7091
702.5654	106.1308
702.7184	105.6669
702.8715	110.7049
703.0245	112.7846
703.1776	113.1958
703.3305	117.0219
703.4835	114.6197
703.6365	116.6823
703.7895	119.1771
703.9424	117.2822
704.0954	114.4726
704.2484	123.2296
704.4013	120.9862
704.5543	122.0319
704.7072	123.8201
704.8601	120.3773
705.013	122.3941
705.1659	124.0051
705.3188	122.2259
705.4717	125.0567
705.6246	125.3107
705.7774	130.4882
705.9303	127.424
706.0831	120.0606
706.236	128.0916
706.3888	126.7016
706.5416	122.95
706.6944	127.5978
706.8472	128.3513
707	131.1947
707.1528	131.2755
707.3056	131.5018
707.4583	135.6612
707.6111	127.8216
707.7639	132.4263
707.9166	136.6809
708.0693	136.7651
708.222	134.0583
708.3748	134.6684
708.5275	135.5633
708.6802	133.7156
708.8328	144.6361
708.9855	134.7605
709.1382	135.3096
709.2909	143.5897
709.4435	137.7337
709.5962	140.9778
709.7488	142.6523
709.9014	147.2493
710.054	146.7365
710.2067	142.7039
710.3593	148.3104
710.5118	146.8255
710.6644	144.6631
710.817	140.3712
710.9695	144.2048
711.1221	147.0454
711.2747	147.4788
711.4272	143.2556
711.5797	145.8723
711.7322	142.2107
711.8848	143.1487
712.0373	149.7
712.1898	155.2098
712.3422	153.1734
712.4948	150.614
712.6472	151.4268
712.7996	149.7778
712.9521	151.8305
713.1046	148.931
713.257	150.3782
713.4094	148.2865
713.5618	152.8176
713.7142	152.2953
713.8666	152.1648
714.019	151.7519
714.1714	153.4039
714.3237	154.873
714.4761	158.0119
714.6285	155.3941
714.7808	150.7121
714.9331	148.8808
715.0854	149.24
715.2378	151.7871
715.3901	156.1877
715.5424	163.5286
715.6947	155.3119
715.8469	161.891
715.9992	153.5927
716.1515	153.6539
716.3037	154.1828
716.456	157.2111
716.6082	148.8215
716.7604	142.4288
716.9127	138.1796
717.0649	138.2847
717.2171	138.7965
717.3693	139.0408
717.5214	140.6668
717.6736	135.235
717.8258	140.3345
717.978	141.4381
718.1301	146.7548
718.2822	144.9234
718.4344	140.8977
718.5865	132.6099
718.7386	129.7987
718.8907	129.7579
719.0428	143.9333
719.1949	141.2519
719.3469	145.3573
719.499	137.1885
719.6511	133.511
719.8031	140.5018
719.9551	138.737
720.1072	141.4934
720.2592	141.2877
720.4112	138.9702
720.5632	141.3919
720.7152	146.696
720.8672	147.9713
721.0192	156.1138
721.1711	164.2934
721.3231	172.3279
721.475	176.1902
721.627	171.6661
721.7789	163.2041
721.9308	166.8769
722.0828	168.8801
722.2347	172.0918
722.3866	175.3375
722.5385	168.6753
722.6903	169.4372
722.8422	175.4784
722.9941	173.7895
723.1459	164.5718
723.2977	159.7038
723.4496	151.1817
723.6014	155.1388
723.7532	160.5135
723.905	163.2459
724.0568	153.9963
724.2086	153.8676
724.3604	161.7911
724.5121	163.1616
724.6639	159.1531
724.8157	172.0087
724.9674	168.1674
725.1191	162.9269
725.2709	159.4204
725.4226	162.9454
725.5743	162.9037
725.726	174.1723
725.8777	176.7332
726.0294	169.3247
726.181	170.9651
726.3327	166.0962
726.4844	165.6006
726.636	169.2621
726.7877	174.3093
726.9393	185.6412
727.0909	181.0183
727.2425	178.3561
727.3941	175.5331
727.5457	162.7945
727.6973	162.9953
727.8488	167.9907
728.0004	173.2394
728.1519	179.162
728.3035	180.1665
728.455	183.524
728.6066	192.0055
728.7581	182.1019
728.9095	177.223
729.0611	164.8935
729.2126	168.1956
729.364	165.3072
729.5155	180.8215
729.667	183.8165
729.8184	191.1095
729.9698	187.4193
730.1213	186.195
730.2727	181.6168
730.4241	174.8089
730.5756	185.2847
730.7269	190.5317
730.8784	189.1746
731.0297	181.827
731.1811	184.3445
731.3325	188.7476
731.4838	193.8027
731.6351	192.3515
731.7865	193.0506
731.9378	189.9306
732.0891	193.564
732.2404	203.8556
732.3917	206.3503
732.543	207.9389
732.6943	202.1448
732.8456	206.5234
732.9968	205.2836
733.1481	207.3043
733.2993	204.4257
733.4506	202.7626
733.6018	212.9902
733.753	207.3165
733.9042	217.0569
734.0554	222.601
734.2066	216.2826
734.3578	215.5834
734.509	212.9778
734.6602	212.6935
734.8113	213.6706
734.9624	211.977
735.1136	208.0971
735.2647	210.6062
735.4158	211.3155
735.5669	214.0639
735.718	217.1536
735.8691	211.8417
736.0201	212.4604
736.1713	214.8516
736.3223	208.7719
736.4733	209.8269
736.6244	217.267
736.7755	222.192
736.9265	221.9332
737.0775	219.0738
737.2285	227.0557
737.3795	228.0459
737.5305	222.3065
737.6815	231.66
737.8324	222.7132
737.9834	226.3213
738.1343	229.5181
738.2853	235.3772
738.4362	218.8554
738.5871	221.9053
738.738	222.4281
738.8889	220.9821
739.0399	221.2237
739.1907	211.6762
739.3416	216.8903
739.4925	218.8165
739.6433	226.1631
739.7942	228.2286
739.945	220.0838
740.0958	221.6052
740.2467	221.9719
740.3975	224.2866
740.5483	225.2835
740.6991	222.0593
740.8499	222.5002
741.0007	219.0843
741.1514	224.5605
741.3022	231.5314
741.4529	222.1096
741.6036	224.3384
741.7544	225.29
741.9051	227.5159
742.0558	227.0775
742.2065	223.7868
742.3572	219.3627
742.5079	221.0369
742.6586	229.8133
742.8093	239.1669
742.9599	237.0712
743.1105	229.2977
743.2612	232.1221
743.4118	231.7608
743.5624	234.8371
743.7131	235.7638
743.8636	230.6802
744.0142	233.0442
744.1648	226.2538
744.3154	227.586
744.4659	229.0307
744.6165	226.8502
744.767	227.6949
744.9176	234.7966
745.0681	231.7664
745.2186	227.9556
745.3691	225.1724
745.5197	227.1594
745.6702	234.2311
745.8206	236.7428
745.9711	229.2192
746.1215	225.1452
746.272	230.6768
746.4224	235.1928
746.5729	236.4506
746.7233	230.2931
746.8737	229.3271
747.0241	230.9577
747.1745	223.8028
747.3249	229.8416
747.4753	228.5796
747.6257	228.76
747.776	229.3571
747.9264	234.034
748.0767	225.1404
748.2271	224.6118
748.3774	225.9452
748.5276	232.1809
748.678	235.3686
748.8282	232.2975
748.9786	227.808
749.1288	228.1086
749.2791	226.5661
749.4294	225.1744
749.5796	219.2917
749.7299	221.2145
749.8801	220.8037
750.0303	224.1074
750.1805	223.737
750.3307	226.7403
750.4809	233.4118
750.6311	232.6021
750.7813	234.4142
750.9314	224.6584
751.0816	217.1244
751.2318	207.8891
751.3818	219.0027
751.532	220.3818
751.6821	223.8166
751.8322	221.1534
751.9823	223.4437
752.1324	220.3338
752.2825	221.7441
752.4326	215.8045
752.5826	220.7886
752.7327	218.4812
752.8827	220.4964
753.0327	219.5602
753.1827	219.5953
753.3328	213.5898
753.4828	215.3333
753.6328	212.5983
753.7828	219.2326
753.9327	220.459
754.0827	226.8501
754.2327	217.7627
754.3826	215.4324
754.5325	220.7621
754.6825	213.4728
754.8324	213.8713
754.9823	211.0276
755.1322	208.1396
755.2821	210.493
755.432	218.4394
755.5818	208.7193
755.7318	205.3474
755.8816	211.6686
756.0314	212.4368
756.1813	216.5006
756.3311	212.376
756.4809	210.0428
756.6307	208.6919
756.7805	206.7164
756.9303	203.4519
757.0801	198.9978
757.2299	204.0918
757.3796	207.7926
757.5294	206.4802
757.6791	202.8526
757.8289	198.7052
757.9786	201.1145
758.1283	200.332
758.278	200.1214
758.4277	199.7572
758.5773	197.9031
758.7271	203.4817
758.8767	200.1214
759.0264	193.3365
759.176	190.772
759.3256	169.3747
759.4753	137.4922
759.6249	112.465
759.7745	89.92039
759.9241	87.78381
760.0737	72.04539
760.2233	64.4468
760.3729	52.79885
760.5224	49.94938
760.6719	55.25562
760.8215	60.08586
760.971	67.09183
761.1205	69.10899
761.2701	73.09885
761.4196	83.41142
761.5691	104.3743
761.7186	120.5604
761.868	133.9457
762.0175	134.7818
762.167	125.6171
762.3164	116.2108
762.4659	105.2672
762.6153	96.10826
762.7647	101.1152
762.9141	95.89813
763.0635	93.95274
763.2129	101.591
763.3623	95.23705
763.5117	99.22095
763.661	101.3624
763.8104	97.32408
763.9597	103.5916
764.1091	105.9245
764.2584	110.5967
764.4077	111.2234
764.557	115.2801
764.7063	119.5319
764.8556	120.5706
765.0049	119.967
765.1541	125.3681
765.3034	133.6974
765.4526	131.3756
765.6019	131.529
765.7511	139.773
765.9003	149.1292
766.0496	142.2477
766.1987	145.1291
766.348	149.9785
766.4971	142.8965
766.6463	153.2238
766.7955	164.259
766.9446	160.9345
767.0938	154.4116
767.2429	157.4854
767.392	166.1459
767.5411	168.9221
767.6902	169.8249
767.8394	161.935
767.9884	170.52
768.1375	174.578
768.2866	165.4027
768.4356	169.9635
768.5847	173.0706
768.7337	170.3264
768.8828	167.2952
769.0317	162.9106
769.1808	170.1364
769.3298	173.9406
769.4788	170.0264
769.6277	168.0619
769.7767	168.0174
769.9257	174.4515
770.0746	171.758
770.2236	170.6026
770.3725	173.6284
770.5214	172.3358
770.6703	168.2722
770.8193	165.6425
770.9681	174.7721
771.1171	165.326
771.2659	168.4068
771.4148	166.4323
771.5637	162.4413
771.7125	165.3232
771.8613	165.9616
772.0101	165.2837
772.159	165.1293
772.3078	166.476
772.4566	163.8813
772.6054	165.4081
772.7542	164.5829
772.903	166.5126
773.0517	158.7334
773.2004	159.8472
773.3492	170.1514
773.4979	170.0818
773.6467	164.2094
773.7953	162.6615
773.944	167.2729
774.0928	165.7561
774.2415	162.3946
774.3901	161.067
774.5388	158.4187
774.6874	162.963
774.8361	150.8209
774.9847	155.676
775.1334	160.3244
775.282	157.3042
775.4305	160.8877
775.5792	161.3622
775.7277	161.9376
775.8763	158.9676
776.0249	161.1133
776.1735	160.7736
776.322	160.3757
776.4705	158.5554
776.6191	161.936
776.7676	163.5303
776.9161	165.2508
777.0646	161.407
777.2131	157.029
777.3616	156.0417
777.5101	152.6936
777.6585	159.041
777.8069	159.4326
777.9554	159.142
778.1038	155.021
778.2523	149.2293
778.4007	160.1561
778.5491	156.0309
778.6974	150.6741
778.8459	154.6325
778.9942	154.039
779.1426	148.2407
779.291	153.5858
779.4393	153.1559
779.5876	149.5896
779.736	156.5666
779.8843	152.3145
780.0326	154.5571
780.1809	153.1948
780.3292	151.3022
780.4775	156.7272
780.6257	156.078
780.774	151.9671
780.9222	149.5552
781.0704	150.0563
781.2187	154.1678
781.3669	154.2232
781.5151	157.6006
781.6633	149.7682
781.8115	147.5345
781.9597	154.1218
782.1078	151.6255
782.256	153.5237
782.4042	154.787
782.5523	146.0976
782.7004	142.9121
782.8486	147.1293
782.9967	149.5063
783.1448	156.3271
783.2929	151.4245
783.441	146.5087
783.5891	151.6338
783.7371	147.3345
783.8851	145.8541
784.0332	153.527
784.1812	152.7942
784.3293	145.8414
784.4773	141.738
784.6253	146.011
784.7733	151.2337
784.9213	153.0858
785.0692	145.3957
785.2172	146.6558
785.3652	149.477
785.5131	143.5648
785.6611	143.863
785.809	142.3326
785.9569	139.0014
786.1048	139.9541
786.2527	145.6872
786.4006	143.8398
786.5485	136.9342
786.6964	143.6096
786.8442	142.6348
786.9921	141.6762
787.1399	145.2115
787.2877	146.5681
787.4355	140.4662
787.5833	135.5564
787.7311	138.7262
787.8789	138.7184
788.0267	135.7371
788.1745	139.1332
788.3223	148.5824
788.47	150.2414
788.6177	142.8388
788.7654	140.2607
788.9132	136.2885
789.0609	139.7392
789.2086	134.9729
789.3563	135.142
789.504	131.9506
789.6517	136.4578
789.7993	133.4117
789.947	134.4713
790.0946	134.4942
790.2422	135.0298
790.3898	140.4867
790.5375	137.6617
790.6851	132.4332
790.8326	137.1842
790.9802	134.1493
791.1278	128.1266
791.2754	134.0267
791.423	137.2961
791.5705	131.6861
791.718	135.2093
791.8655	131.3006
792.0131	131.4132
792.1606	131.3211
792.308	135.3067
792.4556	130.2859
792.603	125.16
792.7505	131.7898
792.8979	131.3572
793.0454	127.9891
793.1928	125.2083
793.3403	130.4798
793.4877	128.5237
793.6351	128.1778
793.7825	129.2949
793.9299	123.1898
794.0772	126.7741
794.2246	127.3664
794.3719	123.763
794.5193	130.5097
794.6666	124.4797
794.814	119.8574
794.9613	121.6473
795.1086	128.9562
795.2559	129.1874
795.4032	126.3288
795.5505	123.2607
795.6978	120.6315
795.845	121.7374
795.9922	120.1069
796.1395	112.8871
796.2867	122.6273
796.4339	120.3296
796.5811	122.7278
796.7283	121.3768
796.8755	125.5521
797.0227	126.7458
797.1699	132.4962
797.317	128.7129
797.4642	126.3219
797.6113	123.6843
797.7584	126.9334
797.9056	129.4118
798.0527	127.7262
798.1998	125.1029
798.3469	123.9472
798.494	129.2056
798.641	120.9744
798.7881	124.4664
798.9351	126.0003
799.0822	123.9708
799.2292	126.8054
799.3762	126.6375
799.5232	126.7917
799.6702	124.3561
799.8172	114.892
799.9642	116.5703
800.1111	122.2358
800.2581	123.2386
800.4051	125.7383
800.552	120.758
800.6989	121.2655
800.8458	121.1437
800.9927	120.078
801.1396	119.9637
801.2866	119.6565
801.4334	117.9295
801.5803	112.73
801.7272	118.9125
801.874	121.4857
802.0209	120.7486
802.1677	116.0344
802.3145	115.7451
802.4613	116.1468
802.6081	119.3021
802.7549	118.9632
802.9017	111.4893
803.0485	114.3729
803.1952	113.6943
803.342	119.193
803.4887	115.7677
803.6354	122.9799
803.7822	118.3966
803.9289	115.5307
804.0756	113.3436
804.2223	114.329
804.369	114.2971
804.5156	113.6538
804.6623	111.7261
804.8089	105.4666
804.9556	101.4887
805.1022	105.1577
805.2488	111.2114
805.3954	106.6947
805.542	113.8115
805.6886	123.1492
805.8352	117.9777
805.9818	114.4274
806.1283	108.6275
806.2749	110.7746
806.4214	110.1391
806.5679	108.3601
806.7145	113.5885
806.861	115.6432
807.0074	114.9497
807.154	111.2262
807.3004	100.4144
807.4469	109.6961
807.5934	109.7368
807.7398	109.3998
807.8862	115.8774
808.0327	107.7507
808.1791	108.4268
808.3255	107.2836
808.4719	106.2637
808.6183	104.2471
808.7647	106.1221
808.9111	103.8848
809.0574	107.2299
809.2037	109.5178
809.3501	105.2716
809.4965	105.3313
809.6428	98.08558
809.7891	95.80968
809.9354	101.4552
810.0817	104.6296
810.2279	100.0914
810.3742	104.2268
810.5204	100.7981
810.6667	98.24991
810.8129	99.27481
810.9592	94.89696
811.1054	96.6512
811.2516	97.89885
811.3978	100.3602
811.5439	97.84601
811.6901	103.8893
811.8363	101.3578
811.9825	109.7834
812.1286	100.5246
812.2748	98.45084
812.4209	98.57747
812.567	97.63772
812.7131	94.70643
812.8592	90.87197
813.0053	92.57233
813.1514	91.3431
813.2974	85.85527
813.4435	89.96602
813.5895	83.12885
813.7356	83.72181
813.8816	90.48434
814.0276	87.74706
814.1736	81.96202
814.3196	82.77107
814.4656	82.60533
814.6116	86.2957
814.7576	85.5554
814.9035	79.42899
815.0494	77.38222
815.1954	82.16869
815.3413	83.17314
815.4872	74.85793
815.6331	81.94271
815.779	85.18285
815.9249	80.37731
816.0707	77.30277
816.2166	72.66912
816.3625	65.77663
816.5083	67.29581
816.6542	71.24892
816.8	80.83668
816.9458	77.78872
817.0916	76.37313
817.2374	83.83951
817.3832	83.14874
817.5289	83.12434
817.6747	77.98346
817.8204	78.37357
817.9662	76.57393
818.1119	73.13937
818.2576	75.16914
818.4034	82.16642
818.5491	76.12064
818.6948	83.32971
818.8405	84.8519
818.9861	80.54993
819.1318	76.18024
819.2774	79.9449
819.423	79.07729
819.5687	73.50394
819.7143	70.9047
819.8599	70.12724
820.0055	70.51648
820.1511	77.37295
820.2967	79.17421
820.4422	80.99017
820.5878	84.15704
820.7333	84.90269
820.8788	87.05376
821.0244	82.07048
821.1699	76.70434
821.3154	80.99536
821.4609	83.34541
821.6064	78.14272
821.7519	82.40614
821.8973	84.27854
822.0428	75.94547
822.1882	72.03175
822.3337	70.74348
822.4791	74.81302
822.6245	70.99306
822.7699	57.11146
822.9153	56.04021
823.0607	60.58869
823.2061	62.1176
823.3514	61.36131
823.4968	68.2571
823.6422	72.04206
823.7875	73.60729
823.9328	78.82101
824.0781	82.46294
824.2234	76.62685
824.3687	77.53205
824.514	75.88089
824.6592	81.59856
824.8045	77.1956
824.9498	86.43758
825.095	81.88803
825.2402	76.99622
825.3854	82.10215
825.5306	82.9808
825.6758	72.95651
825.821	74.23957
825.9662	79.02473
826.1114	76.60983
826.2565	77.42673
826.4017	74.37261
826.5468	78.97827
826.692	80.14612
826.837	76.19582
826.9822	75.53668
827.1273	79.75164
827.2723	72.65156
827.4174	69.08897
827.5625	69.5929
827.7075	69.79774
827.8526	69.34296
827.9976	69.39534
828.1426	63.48996
828.2877	71.62011
828.4327	74.30471
828.5776	74.6813
828.7227	72.09911
828.8676	71.39491
829.0126	68.76056
829.1575	72.29508
829.3024	71.90387
829.4474	68.77028
829.5923	63.65546
829.7372	68.72537
829.8821	74.58081
830.027	69.96251
830.1719	74.45553
830.3168	67.9256
830.4616	73.85764
830.6064	73.93895
830.7513	74.47038
830.8961	72.87331
831.041	72.92243
831.1857	80.07236
831.3306	77.28555
831.4753	75.75935
831.6201	75.62477
831.7649	74.23122
831.9096	72.97895
832.0544	69.16547
832.1991	68.62089
832.3438	68.96091
832.4885	75.59715
832.6332	75.40383
832.778	69.27041
832.9226	74.74877
833.0673	75.17869
833.2119	69.60828
833.3566	70.68945
833.5012	73.17028
833.6459	69.66985
833.7905	72.22504
833.9351	70.03917
834.0797	65.8709
834.2243	68.7513
834.3688	69.96411
834.5134	71.03137
834.658	73.4248
834.8026	70.0246
834.9471	74.10552
835.0916	74.98605
835.2361	73.2538
835.3806	74.05656
835.5251	73.38682
835.6696	68.80543
835.8141	71.4006
835.9586	73.56966
836.103	72.41624
836.2474	74.78916
836.3918	69.56502
836.5363	69.87064
836.6807	71.7935
836.8251	70.67298
836.9695	70.98373
837.1138	67.07024
837.2582	67.56694
837.4026	71.65912
837.5469	70.22385
837.6913	72.31866
837.8356	68.58368
837.9799	71.05949
838.1242	76.4543
838.2686	71.71453
838.4128	72.74534
838.5571	69.20931
838.7014	71.2244
838.8456	71.7671
838.9899	70.20306
839.1341	74.73584
839.2783	72.70182
839.4225	71.38431
839.5667	69.73847
839.7109	72.96756
839.8551	76.03586
839.9993	76.92407
840.1434	72.28442
840.2876	69.70666
840.4317	69.7318
840.5759	66.46374
840.72	70.68285
840.8641	66.76631
841.0082	70.10284
841.1523	73.09379
841.2963	71.06651
841.4404	69.18922
841.5845	69.41208
841.7285	69.95676
841.8726	71.23099
842.0165	65.97836
842.1606	71.72511
842.3046	71.11094
842.4485	69.66562
842.5925	69.44218
842.7365	69.2945
842.8805	70.73137
843.0244	68.18002
843.1684	70.96851
843.3123	68.80695
843.4562	64.54115
843.6002	68.96286
843.744	67.07911
843.8879	65.2931
844.0318	68.23293
844.1757	68.52522
844.3195	69.68934
844.4634	63.14018
844.6072	65.07325
844.751	65.84092
844.8948	65.45737
845.0386	65.09634
845.1824	68.40762
845.3262	68.48753
845.47	63.58579
845.6138	66.91225
845.7575	68.20064
845.9012	66.69975
846.045	72.97872
846.1887	64.97321
846.3324	61.98602
846.4761	67.61033
846.6198	68.97369
846.7635	67.6918
846.9071	69.05898
847.0508	66.92301
847.1944	67.51534
847.3381	69.20913
847.4817	64.12322
847.6253	65.64247
847.7689	67.09442
847.9125	65.15254
848.0561	66.92964
848.1996	69.19544
848.3432	65.64384
848.4868	63.90152
848.6303	64.68813
848.7738	66.63351
848.9174	62.61752
849.0609	65.4726
849.2043	67.84417
849.3478	61.53748
849.4913	62.34527
849.6348	57.57467
849.7782	54.51136
849.9217	57.18656
850.0651	53.78718
850.2086	58.44316
850.3519	60.48994
850.4954	62.53163
850.6387	64.25061
850.7821	65.85303
850.9255	66.5986
851.0688	63.41892
851.2122	58.00426
851.3555	60.65561
851.4988	64.02396
851.6422	63.98273
851.7855	64.67871
851.9288	58.69024
852.0721	60.96788
852.2153	60.92706
852.3586	66.02966
852.5018	69.19935
852.6451	68.79726
852.7883	59.60492
852.9315	61.01997
853.0748	58.6235
853.218	63.32983
853.3611	64.49564
853.5043	61.73453
853.6475	60.67581
853.7906	58.16101
853.9338	54.08722
854.0769	44.17296
854.22	41.9087
854.3632	46.81772
854.5063	44.9133
854.6494	51.10656
854.7924	55.13525
854.9355	61.95571
855.0786	59.55312
855.2216	61.40736
855.3647	60.92683
855.5077	59.93537
855.6507	57.38802
855.7937	57.02937
855.9367	56.94268
856.0797	57.67651
856.2227	65.56185
856.3657	62.2761
856.5086	63.43971
856.6516	56.38161
856.7945	57.66849
856.9374	58.20658
857.0803	59.55286
857.2232	59.50283
857.3661	58.62572
857.509	56.13312
857.6519	57.64222
857.7947	63.12677
857.9376	60.22443
858.0804	58.35182
858.2232	61.84912
858.366	60.34381
858.5089	59.97441
858.6516	58.87708
858.7944	53.9283
858.9372	59.39388
859.08	58.4967
859.2227	57.23102
859.3654	57.18143
859.5082	53.96799
859.6509	57.50651
859.7936	58.63059
859.9363	60.66225
860.079	55.57441
860.2217	53.23832
860.3643	62.47379
860.507	57.72345
860.6496	59.60858
860.7922	54.03001
860.9349	57.87699
861.0775	63.74845
861.2201	62.18375
861.3627	60.08808
861.5052	58.71594
861.6478	51.78814
861.7904	58.35336
861.9329	56.65932
862.0755	56.03048
862.218	52.42344
862.3605	54.81963
862.503	53.2206
862.6455	54.67141
862.788	57.61974
862.9305	59.47561
863.0729	52.07308
863.2154	54.93753
863.3578	57.11853
863.5002	59.3043
863.6426	56.43375
863.7851	56.52348
863.9275	60.09203
864.0698	61.32806
864.2122	55.91224
864.3546	53.04854
864.4969	52.17962
864.6393	55.12752
864.7816	51.31231
864.924	49.93978
865.0662	50.70422
865.2086	51.74216
865.3508	55.43521
865.4931	55.52416
865.6354	51.31181
865.7776	51.7201
865.9199	52.18971
866.0621	44.28854
866.2043	42.78735
866.3466	39.79711
866.4888	44.26064
866.6309	46.49261
866.7731	50.62873
866.9153	52.82564
867.0574	48.9826
867.1996	52.41344
867.3417	45.92486
867.4839	52.90369
867.626	52.33807
867.7681	49.47687
867.9102	57.17753
868.0522	55.95009
868.1943	46.45942
868.3364	52.12182
868.4785	47.88216
868.6205	54.56421
868.7625	52.06357
868.9045	47.07336
869.0465	50.56783
869.1885	53.25843
869.3305	52.64995
869.4725	50.98376
869.6144	48.28836
869.7564	53.38791
869.8983	55.05301
870.0403	52.82878
870.1822	49.76275
870.3241	51.43151
870.466	48.75271
870.6079	54.93507
870.7498	55.30754
870.8916	52.09271
871.0335	48.43818
871.1754	43.43958
871.3171	50.99856
871.459	47.20064
871.6008	46.32687
871.7426	45.73549
871.8844	54.07504
872.0262	55.29034
872.1679	51.12911
872.3097	49.27767
872.4514	46.63311
872.5931	41.34628
872.7349	45.86993
872.8766	47.60166
873.0183	51.39811
873.16	48.64333
873.3017	48.26532
873.4434	45.69648
873.585	48.12824
873.7266	49.7308
873.8683	45.91525
874.0099	46.72808
874.1516	47.91757
874.2932	48.96983
874.4348	45.74505
874.5763	41.74252
874.7179	47.06309
874.8594	45.44477
875.001	47.12276
875.1425	48.92419
875.2841	50.48407
875.4256	46.52569
875.5671	47.02338
875.7086	47.4503
875.85	49.30371
875.9915	47.19798
876.133	48.49396
876.2744	44.92924
876.4159	43.85435
876.5573	43.62476
876.6987	44.88022
876.8401	38.05882
876.9815	51.52754
877.1229	53.22995
877.2643	47.92125
877.4056	44.08152
877.547	45.00483
877.6884	43.31297
877.8297	40.06902
877.971	44.66592
878.1123	40.80469
878.2536	50.19154
878.3949	44.99306
878.5362	45.23408
878.6774	45.2352
878.8187	50.28037
878.9599	47.75352
879.1011	38.045
879.2424	40.26898
879.3836	42.2828
879.5248	40.9852
879.666	48.07712
879.8071	45.31023
879.9483	46.0658
880.0895	48.95289
880.2306	43.74441
880.3718	42.94967
880.5129	45.74383
880.654	44.54244
880.7951	40.62427
880.9362	42.84498
881.0773	47.68868
881.2183	47.39162
881.3594	43.48
881.5004	45.2112
881.6414	39.62399
881.7825	45.08395
881.9235	44.71911
882.0645	44.87109
882.2054	45.56436
882.3464	45.59122
882.4874	44.59122
882.6284	47.311
882.7693	45.65092
882.9103	45.39189
883.0512	46.22613
883.1921	45.43048
883.333	43.1826
883.4739	40.50173
883.6147	41.93473
883.7556	41.05084
883.8965	42.9612
884.0374	38.81168
884.1782	39.52952
884.319	43.21933
884.4598	45.16305
884.6006	43.66998
884.7414	38.33789
884.8822	44.50025
885.0229	43.90281
885.1637	46.59097
885.3044	43.36345
885.4452	43.52422
885.5859	45.12593
885.7266	39.7492
885.8673	42.3313
886.008	40.8617
886.1487	42.68915
886.2894	40.41753
886.43	37.14605
886.5707	35.58833
886.7113	37.5518
886.8519	38.0159
886.9926	35.83782
887.1331	36.62222
887.2737	41.28194
887.4143	42.33221
887.5549	40.5966
887.6954	43.21641
887.836	40.57142
887.9765	41.95152
888.1171	39.19433
888.2576	40.52917
888.3981	39.5838
888.5386	36.43874
888.679	44.01547
888.8195	39.73677
888.96	35.99445
889.1004	41.68793
889.2408	39.41669
889.3813	44.35688
889.5217	36.92997
889.6621	38.22524
889.8025	39.38511
889.9429	39.88544
890.0833	37.54712
890.2236	37.8805
890.364	39.81678
890.5043	43.14776
890.6446	43.32134
890.7849	34.22334
890.9252	36.48751
891.0655	34.35518
891.2058	41.60764
891.3461	37.23383
891.4863	39.15049
891.6266	39.68479
891.7668	39.15422
891.907	41.48831
892.0472	36.33287
892.1874	37.55359
892.3276	41.0239
892.4678	39.98889
892.608	36.76807
892.7481	37.01032
892.8883	34.39327
893.0284	38.96139
893.1685	37.95007
893.3087	33.03698
893.4487	37.53268
893.5889	39.42227
893.7289	38.01666
893.869	32.91508
894.009	37.67262
894.1491	38.34797
894.2891	34.81347
894.4291	35.73806
894.5692	34.27426
894.7092	36.05561
894.8491	39.08523
894.9891	31.87182
895.1291	35.14671
895.269	31.97061
895.409	35.25908
895.549	31.29612
895.6888	27.88682
895.8288	29.00788
895.9687	33.76781
896.1086	30.40405
896.2484	25.38566
896.3883	29.12785
896.5281	27.37692
896.668	30.1988
896.8079	32.2081
896.9476	29.26418
897.0875	29.17908
897.2272	30.67588
897.3671	25.41337
897.5068	24.68601
897.6466	30.45388
897.7864	25.81656
897.9261	33.59594
898.0658	33.87388
898.2056	32.98026
898.3453	32.99534
898.4849	32.60663
898.6246	29.71267
898.7643	21.94506
898.904	20.87703
899.0436	18.46889
899.1833	19.12967
899.3229	23.94198
899.4625	27.94705
899.6021	31.2763
899.7417	30.245
899.8813	31.01257
900.0209	28.53495
900.1605	31.6309
900.3	21.24281
900.4395	30.86158
900.579	26.1968
900.7186	25.67735
900.8581	27.62453
900.9976	24.59011
901.1371	25.5623
901.2766	29.72247
901.416	31.18882
901.5555	24.44366
901.6949	24.96152
901.8344	28.61561
901.9738	26.03941
902.1132	29.78389
902.2526	28.65162
902.3919	29.93776
902.5313	25.04536
902.6707	25.30105
