SPECTRUM DATA FILE
SpectrumCount:	1
PixelCount:	3648
UserName:	ToughBook User
SampleName:	
LightSource:	
Comments:	
DeviceName:	Qwave
DeviceManufacturer:	Broadcom
DeviceSerialNo:	11311

Name:	last spectrum
Date:	2024-05-02T14:52:02.5745557+02:00
ExposureTime:	0.02
TemporalAvg:	1
IntensityUnit:	normalizedCounts
CCDLoadLevel:	0.07356741
Temperature:	32.92099
DiagramColor:	200
ProcessingSteps:	335

Wavelength [nm]	Intensity1
334.421	26.18837
334.5891	19.68621
334.7573	19.35363
334.9254	24.78239
335.0935	23.42289
335.2616	21.11485
335.4297	23.65476
335.5978	19.93027
335.7659	18.89155
335.934	23.10013
336.1021	21.84242
336.2701	22.34046
336.4382	26.55788
336.6063	25.21708
336.7744	23.43672
336.9424	18.27898
337.1105	18.93989
337.2785	19.07572
337.4466	22.45389
337.6146	21.77171
337.7827	20.56219
337.9507	22.22523
338.1187	22.29655
338.2867	20.80032
338.4548	20.27315
338.6228	23.73352
338.7908	18.45739
338.9588	15.69339
339.1268	19.33927
339.2948	23.44069
339.4628	19.21753
339.6308	19.34356
339.7988	16.75073
339.9667	20.15128
340.1347	17.2573
340.3027	18.39996
340.4707	20.95744
340.6386	23.85355
340.8066	22.51182
340.9745	18.4901
341.1425	16.08534
341.3104	18.54487
341.4784	20.26565
341.6463	20.56631
341.8142	17.03841
341.9821	21.76208
342.1501	17.061
342.318	18.35983
342.4859	23.33297
342.6538	24.75624
342.8217	22.19928
342.9896	21.78273
343.1575	20.22825
343.3254	20.16534
343.4933	20.82825
343.6612	17.90783
343.829	20.02675
343.9969	21.34112
344.1648	21.71653
344.3326	19.50817
344.5005	24.34495
344.6683	21.96848
344.8362	25.31588
345.004	27.88582
345.1719	22.82275
345.3397	22.02752
345.5075	22.80824
345.6754	21.29377
345.8432	21.67193
346.011	30.51729
346.1788	21.25885
346.3466	22.29762
346.5144	20.18842
346.6822	20.6567
346.85	15.57519
347.0178	17.05553
347.1856	20.21122
347.3534	18.42756
347.5211	19.03491
347.6889	21.97895
347.8567	21.9618
348.0244	20.19376
348.1922	21.46881
348.3599	22.307
348.5277	22.25455
348.6954	26.31556
348.8632	23.00565
349.0309	24.9143
349.1986	18.3392
349.3663	15.29425
349.5341	19.47128
349.7018	18.21011
349.8695	18.30942
350.0372	22.66571
350.2049	23.51055
350.3726	22.05982
350.5403	22.07754
350.7079	22.79402
350.8756	22.05061
351.0433	25.60503
351.211	25.54079
351.3786	22.19755
351.5463	21.87258
351.714	22.10201
351.8816	23.14866
352.0493	19.6231
352.2169	22.48487
352.3846	22.30884
352.5522	19.07035
352.7198	26.14518
352.8875	24.48196
353.0551	26.18722
353.2227	22.28775
353.3903	22.48212
353.5579	21.78751
353.7255	24.59999
353.8931	28.28551
354.0607	25.89888
354.2283	26.79408
354.3958	22.43249
354.5634	25.62635
354.731	24.23983
354.8986	28.20113
355.0661	24.13339
355.2337	24.5357
355.4012	26.32618
355.5688	19.42158
355.7363	24.71232
355.9039	23.70082
356.0714	25.29279
356.239	26.38786
356.4065	21.48811
356.574	23.68499
356.7415	24.6517
356.909	25.58366
357.0765	27.17744
357.244	23.908
357.4115	26.00794
357.579	22.96618
357.7465	16.87534
357.914	20.60893
358.0815	20.91102
358.249	20.63536
358.4164	20.42356
358.5839	24.3571
358.7513	24.69236
358.9188	26.06257
359.0862	23.06542
359.2537	17.08054
359.4211	21.80089
359.5886	23.87904
359.756	18.47561
359.9234	23.6052
360.0909	22.09238
360.2583	22.98969
360.4257	20.86377
360.5931	20.51227
360.7605	22.16945
360.9279	23.79052
361.0953	26.86494
361.2627	26.24789
361.4301	26.13525
361.5974	27.28347
361.7648	23.96771
361.9322	24.19207
362.0995	26.53436
362.2669	23.25309
362.4343	21.84634
362.6016	25.02116
362.769	25.79743
362.9363	29.4137
363.1036	24.97744
363.271	21.91913
363.4383	29.76027
363.6056	29.82072
363.7729	28.58912
363.9402	32.40292
364.1075	27.38054
364.2748	28.73068
364.4421	28.64884
364.6094	26.2131
364.7767	26.90842
364.944	26.39616
365.1113	32.18966
365.2786	33.16505
365.4458	34.24062
365.6131	27.24492
365.7803	30.58467
365.9476	28.55443
366.1148	31.43145
366.2821	27.06742
366.4493	32.43201
366.6166	31.10331
366.7838	29.60349
366.951	32.61031
367.1182	31.30635
367.2855	25.49955
367.4527	26.10636
367.6199	24.45769
367.7871	26.11952
367.9543	25.34959
368.1215	23.92992
368.2886	30.29267
368.4558	26.67896
368.623	31.35328
368.7902	25.64047
368.9573	24.04316
369.1245	24.11004
369.2917	24.93521
369.4588	30.91701
369.6259	26.74403
369.7931	26.33294
369.9602	25.06443
370.1274	26.08176
370.2945	32.07163
370.4616	25.81628
370.6287	33.50911
370.7958	31.01658
370.963	27.86459
371.1301	30.97137
371.2971	30.30329
371.4643	29.23075
371.6313	31.0999
371.7984	26.52025
371.9655	27.22836
372.1326	28.66275
372.2997	30.28998
372.4667	30.73912
372.6338	32.11246
372.8008	27.40705
372.9679	34.38468
373.1349	27.60662
373.3019	29.44565
373.469	29.01918
373.636	32.84792
373.803	34.7322
373.9701	30.27183
374.1371	29.376
374.3041	33.42759
374.4711	28.87709
374.6381	29.57008
374.8051	30.0715
374.9721	33.81384
375.1391	32.63964
375.3061	33.27156
375.473	33.67062
375.64	30.50105
375.8069	30.07785
375.9739	31.63124
376.1409	33.13749
376.3078	31.61979
376.4748	30.99434
376.6417	27.17824
376.8087	27.67916
376.9756	33.92842
377.1425	31.55704
377.3094	29.6
377.4763	33.17218
377.6432	27.3052
377.8102	33.88361
377.9771	30.42318
378.144	35.53376
378.3109	33.62908
378.4777	32.04264
378.6446	26.00209
378.8115	29.20925
378.9784	30.79955
379.1452	29.50579
379.3121	29.81116
379.4789	28.94455
379.6458	25.5178
379.8127	29.33326
379.9795	31.97695
380.1463	33.98906
380.3131	30.41438
380.48	28.25414
380.6468	31.30973
380.8136	31.27342
380.9804	30.93082
381.1472	32.45849
381.314	30.30234
381.4808	27.42944
381.6476	29.94051
381.8144	32.00776
381.9812	29.52883
382.148	27.75157
382.3147	31.48608
382.4815	28.58243
382.6483	28.86073
382.815	30.78092
382.9818	29.98751
383.1485	28.2697
383.3153	21.69544
383.482	31.47809
383.6487	32.5971
383.8155	34.33495
383.9822	34.89676
384.1489	33.60964
384.3156	31.30407
384.4823	30.81158
384.649	33.73239
384.8157	34.86751
384.9824	38.8562
385.1491	34.47019
385.3158	36.6473
385.4825	30.36523
385.6491	30.68463
385.8158	37.60197
385.9825	37.18559
386.1491	33.30329
386.3157	35.46307
386.4824	34.16841
386.649	38.15501
386.8157	34.48367
386.9823	36.40639
387.1489	33.31232
387.3156	34.89894
387.4821	38.00091
387.6488	32.13066
387.8154	30.69429
387.982	31.8872
388.1486	37.2887
388.3152	40.03095
388.4818	35.041
388.6483	35.39149
388.8149	36.88418
388.9815	41.89873
389.148	39.32385
389.3146	35.09163
389.4811	37.10538
389.6477	39.7267
389.8142	37.38469
389.9808	35.64859
390.1473	35.44679
390.3138	33.51733
390.4804	36.19437
390.6469	37.08106
390.8134	35.04237
390.9799	33.63751
391.1464	35.31525
391.3129	40.15472
391.4794	40.31425
391.6459	38.27502
391.8124	37.35884
391.9789	37.22465
392.1453	35.52158
392.3118	32.43892
392.4782	34.61396
392.6447	31.87901
392.8112	35.82265
392.9776	33.87946
393.144	35.03199
393.3105	26.10457
393.4769	34.4488
393.6433	32.43677
393.8098	34.114
393.9762	35.36926
394.1426	34.7785
394.309	32.65393
394.4754	30.88092
394.6418	41.02783
394.8082	39.91539
394.9746	40.99277
395.141	42.38757
395.3073	36.74758
395.4737	39.2
395.64	44.16802
395.8064	42.51431
395.9728	41.12862
396.1391	39.25494
396.3055	34.48158
396.4718	35.65002
396.6381	33.45698
396.8045	38.55744
396.9708	38.31015
397.1371	40.57975
397.3034	40.95086
397.4697	36.00249
397.636	40.49685
397.8023	43.47247
397.9686	45.44884
398.1349	49.02298
398.3012	47.85046
398.4675	43.66521
398.6337	45.58539
398.8	45.31653
398.9662	46.87666
399.1325	50.89653
399.2988	46.70317
399.465	48.11107
399.6313	46.28602
399.7975	48.16366
399.9637	46.80918
400.1299	50.11298
400.2961	45.38725
400.4624	48.027
400.6286	44.99895
400.7948	45.46179
400.961	51.17645
401.1272	52.40714
401.2934	47.56971
401.4595	51.11612
401.6257	48.13604
401.7919	52.71902
401.9581	50.19293
402.1242	48.27158
402.2904	45.76784
402.4565	45.28954
402.6227	49.62521
402.7888	50.9157
402.955	50.14157
403.1211	45.43861
403.2872	41.58396
403.4533	43.5755
403.6194	45.674
403.7856	48.53857
403.9517	49.12299
404.1177	50.27848
404.2838	49.16959
404.4499	43.76194
404.616	46.21663
404.7821	46.78888
404.9482	47.30562
405.1142	46.68646
405.2803	48.16871
405.4464	51.24359
405.6124	46.88259
405.7784	46.12315
405.9445	49.29218
406.1105	45.90547
406.2766	46.48094
406.4426	54.81376
406.6086	53.72763
406.7746	47.80219
406.9406	53.25863
407.1066	52.66121
407.2726	51.22792
407.4386	49.14711
407.6046	47.07328
407.7706	54.66771
407.9366	56.77384
408.1025	55.31038
408.2685	60.55573
408.4344	56.59031
408.6004	56.10961
408.7664	53.6392
408.9323	56.71239
409.0983	65.271
409.2642	54.92631
409.4301	60.10139
409.596	56.46403
409.762	51.86961
409.9279	51.61108
410.0938	53.13705
410.2597	56.49834
410.4256	62.67922
410.5915	58.31234
410.7574	55.81141
410.9232	59.15839
411.0891	60.70289
411.255	62.69797
411.4209	61.2151
411.5867	62.66414
411.7526	57.07894
411.9184	64.47341
412.0843	63.18599
412.2501	57.71824
412.4159	57.22242
412.5818	61.07898
412.7476	62.83534
412.9134	61.41776
413.0792	62.39738
413.245	59.49529
413.4108	61.19726
413.5766	56.60125
413.7424	59.10033
413.9082	67.64945
414.074	66.98241
414.2397	66.62214
414.4055	60.34683
414.5713	56.56358
414.737	59.16264
414.9028	58.9861
415.0685	63.08018
415.2343	63.37568
415.4	60.70535
415.5658	60.95253
415.7315	63.71617
415.8972	60.78719
416.0629	59.62669
416.2286	63.3189
416.3943	66.70599
416.56	64.54996
416.7257	62.52563
416.8914	60.41578
417.0571	62.53643
417.2228	60.28045
417.3884	55.8237
417.5541	64.23782
417.7198	60.83979
417.8854	64.56435
418.0511	60.2892
418.2167	62.06493
418.3824	58.62504
418.548	65.90018
418.7136	60.74648
418.8792	58.32172
419.0449	63.72738
419.2105	65.62309
419.3761	62.50727
419.5417	60.1032
419.7073	64.96857
419.8729	65.55743
420.0385	61.02365
420.204	62.34668
420.3696	66.2551
420.5352	65.67581
420.7007	70.74101
420.8663	64.14941
421.0319	67.27191
421.1974	69.82983
421.3629	70.58081
421.5285	67.48158
421.694	67.22423
421.8595	70.72281
422.0251	65.81344
422.1906	72.39929
422.3561	77.38006
422.5216	69.34088
422.6871	63.71512
422.8526	67.55579
423.0181	71.60779
423.1835	75.38309
423.349	70.59063
423.5145	69.33752
423.68	71.29839
423.8454	75.60171
424.0109	75.88693
424.1763	77.08331
424.3418	75.12733
424.5072	76.65596
424.6726	74.14451
424.838	69.74217
425.0035	74.16665
425.1689	69.82934
425.3343	74.31927
425.4997	76.85223
425.6651	76.41873
425.8305	78.81907
425.9959	78.92733
426.1613	74.31223
426.3267	76.29152
426.492	82.02434
426.6574	80.84904
426.8228	76.06996
426.9881	65.73356
427.1534	68.0181
427.3188	65.99794
427.4841	71.22076
427.6495	72.70773
427.8148	76.60806
427.9801	79.19115
428.1454	80.16882
428.3107	76.17734
428.476	79.68757
428.6414	80.74841
428.8066	74.83125
428.9719	70.49741
429.1372	72.55421
429.3025	67.53812
429.4678	71.45403
429.633	72.77159
429.7983	66.43758
429.9636	68.2726
430.1288	69.55667
430.294	67.85347
430.4593	63.09428
430.6245	65.74326
430.7897	61.90229
430.955	63.20768
431.1202	65.81905
431.2854	72.32008
431.4506	79.13831
431.6158	80.29299
431.781	85.09331
431.9462	84.77394
432.1114	77.91182
432.2766	74.37891
432.4417	76.89859
432.6069	76.18784
432.772	76.60289
432.9372	77.80966
433.1024	85.84708
433.2675	83.78705
433.4326	76.95944
433.5977	79.40242
433.7629	73.37209
433.928	69.2785
434.0931	69.67205
434.2582	71.47963
434.4233	81.3203
434.5884	75.92551
434.7535	81.74033
434.9186	84.28237
435.0837	83.72036
435.2488	80.60455
435.4138	84.45221
435.5789	88.47639
435.744	86.62692
435.909	82.78892
436.0741	82.04008
436.2391	85.11416
436.4042	90.71953
436.5692	88.2888
436.7342	88.14499
436.8992	88.70196
437.0643	87.18789
437.2293	87.89496
437.3943	90.60165
437.5593	87.71232
437.7243	87.17827
437.8893	91.2354
438.0542	88.18243
438.2192	89.50576
438.3842	87.63872
438.5491	81.13557
438.7141	86.08775
438.8791	89.57883
439.044	89.40104
439.209	92.00264
439.3739	94.75044
439.5388	91.4482
439.7037	89.65073
439.8687	98.26051
440.0336	95.92939
440.1985	94.46077
440.3634	88.3497
440.5283	88.6948
440.6932	91.2934
440.8581	97.28577
441.0229	91.51411
441.1878	98.78317
441.3527	104.4471
441.5175	99.71697
441.6824	93.92679
441.8472	95.40811
442.0121	96.85588
442.1769	101.641
442.3418	100.4783
442.5066	99.08076
442.6714	100.5138
442.8362	96.34518
443.001	99.27997
443.1659	99.01189
443.3307	95.76865
443.4955	95.87459
443.6602	98.5566
443.825	98.06429
443.9898	101.7913
444.1546	101.8901
444.3193	97.43251
444.4841	96.91603
444.6488	98.08141
444.8136	100.3686
444.9783	106.8058
445.1431	104.1103
445.3078	97.06027
445.4725	95.03125
445.6372	95.98036
445.802	94.41222
445.9667	96.71414
446.1314	95.29929
446.2961	98.81452
446.4608	99.83482
446.6255	100.9387
446.7901	102.3401
446.9548	99.10284
447.1195	103.8136
447.2841	107.2204
447.4488	107.0742
447.6134	112.4403
447.7781	103.8538
447.9427	103.3003
448.1074	99.61478
448.272	103.453
448.4366	102.5523
448.6012	103.3662
448.7658	103.3161
448.9305	105.9538
449.095	107.5497
449.2596	106.7343
449.4242	106.6969
449.5888	106.5143
449.7534	104.9299
449.9179	109.8671
450.0825	114.2565
450.2471	112.6844
450.4116	112.404
450.5762	111.4084
450.7407	115.1431
450.9052	115.5215
451.0698	115.8908
451.2343	116.3368
451.3988	113.4654
451.5633	113.1478
451.7278	113.3901
451.8923	111.9727
452.0568	112.1367
452.2213	110.784
452.3858	114.7591
452.5503	107.3601
452.7148	108.7946
452.8792	110.4916
453.0437	113.2699
453.2081	109.3165
453.3726	110.0533
453.537	108.1897
453.7015	115.8258
453.8659	110.2731
454.0303	116.858
454.1947	117.2712
454.3592	115.6651
454.5236	114.0921
454.688	120.965
454.8524	116.175
455.0168	109.8274
455.1811	114.8525
455.3455	115.6118
455.5099	120.3642
455.6743	123.0408
455.8386	122.993
456.003	122.0357
456.1673	119.5143
456.3317	122.2367
456.496	123.0361
456.6603	120.3102
456.8246	125.5349
456.989	124.2706
457.1533	124.4893
457.3176	125.948
457.4819	130.3401
457.6462	123.9706
457.8105	120.9059
457.9748	121.3375
458.1391	119.7246
458.3033	128.0329
458.4676	122.0656
458.6319	123.6547
458.7961	123.4883
458.9604	123.3721
459.1246	126.2439
459.2888	121.4079
459.4531	120.7584
459.6173	124.2242
459.7815	123.6363
459.9457	122.3027
460.11	125.6826
460.2741	118.8471
460.4384	121.0583
460.6025	117.8978
460.7667	125.1582
460.9309	127.0412
461.0951	125.4455
461.2592	124.8376
461.4234	123.4259
461.5876	121.2695
461.7517	121.2449
461.9159	122.124
462.08	126.2148
462.2441	124.1678
462.4082	131.6191
462.5724	122.1954
462.7365	127.3154
462.9006	118.9023
463.0647	123.72
463.2288	121.4876
463.3929	121.4625
463.557	125.0378
463.721	121.9158
463.8851	123.4842
464.0492	128.6668
464.2132	126.0799
464.3773	122.3523
464.5414	124.7585
464.7054	124.2507
464.8694	120.5649
465.0334	120.4776
465.1975	126.5565
465.3615	116.9089
465.5255	124.2575
465.6895	130.5965
465.8535	124.9281
466.0175	123.4201
466.1815	129.0918
466.3455	128.4933
466.5095	125.4556
466.6734	119.3143
466.8374	120.0484
467.0014	127.4506
467.1653	131.2422
467.3293	129.2038
467.4932	125.7875
467.6571	122.4566
467.8211	122.303
467.985	125.831
468.1489	126.5199
468.3128	134.0066
468.4767	133.7472
468.6406	130.2181
468.8045	129.1613
468.9684	129.9663
469.1323	131.1691
469.2962	130.4781
469.46	133.8782
469.6239	135.9931
469.7878	132.6382
469.9516	131.8286
470.1154	124.8658
470.2793	123.4864
470.4431	131.7918
470.607	136.8173
470.7708	132.5537
470.9346	125.7307
471.0984	126.333
471.2622	130.8299
471.426	134.1771
471.5898	136.6163
471.7536	140.1692
471.9174	134.8634
472.0811	137.2968
472.2449	132.9702
472.4087	134.6681
472.5724	139.451
472.7362	136.1532
472.8999	136.8403
473.0637	133.9501
473.2274	135.8159
473.3911	129.6981
473.5548	135.2658
473.7185	138.2967
473.8822	136.0706
474.0459	137.9312
474.2096	140.9906
474.3733	133.6074
474.537	137.2855
474.7007	140.2567
474.8643	138.9691
475.028	143.0297
475.1917	150.9323
475.3553	140.7791
475.519	144.8182
475.6826	143.3156
475.8463	137.4208
476.0099	137.7984
476.1735	138.9727
476.3371	135.6708
476.5007	135.7474
476.6643	138.7673
476.8279	137.7672
476.9915	134.0709
477.1551	140.638
477.3187	140.892
477.4823	139.3481
477.6458	138.2515
477.8094	140.3057
477.9729	140.7211
478.1365	140.6849
478.3	138.5193
478.4636	139.9285
478.6271	136.6329
478.7906	133.642
478.9541	137.2123
479.1176	136.9435
479.2812	139.3695
479.4447	145.4279
479.6082	137.1725
479.7716	139.8791
479.9351	140.2381
480.0986	138.8382
480.2621	136.1326
480.4255	138.1445
480.589	135.7307
480.7524	135.2639
480.9159	133.792
481.0793	140.4094
481.2428	140.099
481.4062	144.5934
481.5696	146.4387
481.733	141.2456
481.8964	144.8471
482.0598	140.8015
482.2232	139.8534
482.3866	137.2559
482.55	136.4607
482.7134	139.4948
482.8768	140.789
483.0401	140.0637
483.2035	140.7571
483.3668	134.1256
483.5302	141.4454
483.6935	139.5478
483.8568	138.1546
484.0202	140.2975
484.1835	134.3864
484.3468	138.9583
484.5101	138.8253
484.6734	140.9399
484.8367	139.2332
485	139.8808
485.1633	142.9605
485.3266	140.0695
485.4899	129.4741
485.6531	124.5107
485.8164	125.3444
485.9796	116.606
486.1429	113.2412
486.3061	115.5345
486.4694	126.0081
486.6326	134.1107
486.7958	136.0669
486.959	134.0692
487.1223	132.7981
487.2855	133.2034
487.4486	136.0568
487.6118	138.238
487.775	145.3946
487.9382	141.1658
488.1014	149.6029
488.2646	149.3254
488.4277	146.8586
488.5909	144.4409
488.754	134.9049
488.9171	135.9334
489.0803	143.3834
489.2434	146.8492
489.4066	139.4301
489.5697	147.6937
489.7328	151.2445
489.8959	149.0821
490.059	148.1199
490.2221	147.3469
490.3852	142.8257
490.5482	152.5542
490.7113	150.911
490.8744	154.6824
491.0374	146.1196
491.2005	137.7993
491.3636	149.3112
491.5266	147.8385
491.6896	150.8466
491.8527	147.7934
492.0157	131.0947
492.1787	146.5737
492.3417	143.9546
492.5047	150.2341
492.6677	147.7
492.8307	153.0316
492.9937	154.1199
493.1567	156.7218
493.3196	154.9157
493.4826	147.6159
493.6456	148.17
493.8085	150.2166
493.9715	146.6262
494.1344	156.7967
494.2974	154.6756
494.4603	160.7143
494.6232	158.9588
494.7861	153.8441
494.949	152.1684
495.1119	154.8704
495.2748	155.2981
495.4377	154.1579
495.6006	153.9206
495.7635	149.398
495.9264	155.212
496.0892	156.4897
496.2521	162.4269
496.4149	166.8047
496.5778	163.5251
496.7407	157.2134
496.9035	155.1915
497.0663	160.5062
497.2291	162.0183
497.3919	153.8634
497.5547	159.574
497.7176	155.0164
497.8804	155.7446
498.0432	159.2011
498.2059	158.1551
498.3687	148.6149
498.5315	151.3698
498.6942	157.7202
498.857	149.7186
499.0198	155.2854
499.1825	155.6858
499.3452	166.7169
499.508	165.2286
499.6707	160.3449
499.8334	155.1374
499.9962	162.701
500.1589	153.9824
500.3216	156.5628
500.4843	159.2014
500.6469	156.0348
500.8096	155.2144
500.9723	159.6737
501.135	161.2927
501.2976	161.1123
501.4603	157.678
501.623	154.7433
501.7856	154.9137
501.9482	152.1316
502.1109	160.1386
502.2735	166.2999
502.4361	162.5782
502.5987	161.6662
502.7614	164.5354
502.924	164.5125
503.0865	167.5426
503.2491	167.7941
503.4117	162.4521
503.5743	166.8433
503.7368	165.6479
503.8994	166.7082
504.062	160.2292
504.2245	156.4147
504.3871	153.5626
504.5496	171.0066
504.7121	174.6828
504.8746	175.5527
505.0372	171.642
505.1997	173.3425
505.3622	179.2227
505.5247	178.4372
505.6872	177.1687
505.8497	178.6023
506.0121	179.522
506.1746	183.1051
506.3371	179.8621
506.4995	176.5944
506.662	179.321
506.8244	178.2214
506.9869	183.6607
507.1493	185.546
507.3117	181.773
507.4742	179.5678
507.6366	183.3078
507.799	179.8691
507.9614	178.0662
508.1238	176.475
508.2862	177.2823
508.4485	192.3777
508.6109	182.0711
508.7733	189.9466
508.9357	188.8602
509.098	191.0336
509.2604	198.6104
509.4227	194.9865
509.5851	193.4128
509.7474	188.6467
509.9097	184.9952
510.072	186.1183
510.2343	200.8843
510.3966	204.498
510.5589	190.5148
510.7212	195.0646
510.8835	189.961
511.0458	191.7477
511.2081	195.5081
511.3703	201.8064
511.5326	200.482
511.6949	204.0616
511.8571	206.8779
512.0193	197.2804
512.1816	200.1769
512.3438	200.104
512.506	197.3139
512.6682	206.7984
512.8304	206.6134
512.9926	201.6301
513.1548	202.8936
513.317	207.4596
513.4792	206.1759
513.6414	204.0081
513.8035	199.7271
513.9657	205.2647
514.1279	211.6371
514.29	206.9712
514.4521	208.534
514.6143	212.472
514.7764	207.899
514.9385	204.6892
515.1006	205.9727
515.2628	212.7489
515.4249	218.5467
515.587	223.3773
515.7491	223.1695
515.9111	221.3877
516.0732	213.0515
516.2353	215.1346
516.3973	215.8355
516.5594	206.2269
516.7214	195.3059
516.8835	196.9879
517.0455	196.933
517.2076	192.7439
517.3696	197.5746
517.5316	200.9406
517.6937	209.8359
517.8557	224.2254
518.0176	222.9941
518.1796	207.71
518.3416	200.912
518.5036	195.1654
518.6656	211.0278
518.8275	224.0146
518.9895	229.0842
519.1514	234.2038
519.3134	226.3614
519.4753	224.7828
519.6373	228.1819
519.7992	234.4505
519.9611	242.8093
520.123	246.6929
520.2849	239.6662
520.4468	239.4309
520.6087	239.8334
520.7706	239.1572
520.9325	231.3656
521.0944	243.8738
521.2562	249.9753
521.4181	250.0743
521.58	242.3006
521.7418	247.5846
521.9036	250.2762
522.0655	254.9323
522.2273	257.8779
522.3891	251.1109
522.551	242.3271
522.7128	243.5636
522.8746	250.3421
523.0363	253.0509
523.1981	254.7079
523.3599	256.5675
523.5217	257.006
523.6835	269.7566
523.8452	270.2088
524.007	264.6443
524.1687	275.3287
524.3304	273.3029
524.4922	269.869
524.6539	270.0534
524.8157	269.9934
524.9774	272.9404
525.1391	272.6951
525.3008	276.0563
525.4625	280.4983
525.6241	274.4915
525.7858	283.7062
525.9475	282.0383
526.1092	275.8779
526.2709	266.5188
526.4325	257.3966
526.5942	254.7054
526.7558	256.5752
526.9174	262.5876
527.079	270.9762
527.2407	271.4493
527.4023	277.142
527.5639	289.709
527.7255	289.4087
527.8871	295.3066
528.0487	296.475
528.2103	284.6026
528.3718	290.735
528.5334	305.5751
528.695	305.1111
528.8565	305.7628
529.0181	318.1568
529.1796	313.9737
529.3412	314.1065
529.5027	306.849
529.6642	297.8889
529.8257	291.9183
529.9872	296.4607
530.1487	300.6571
530.3102	304.7695
530.4717	317.0914
530.6332	313.0614
530.7947	323.268
530.9562	328.7505
531.1176	321.2641
531.2791	321.8258
531.4405	324.7138
531.6019	312.5605
531.7634	316.2345
531.9248	317.1219
532.0862	316.9095
532.2477	312.6862
532.4091	296.2136
532.5704	299.6278
532.7319	293.2244
532.8932	291.1885
533.0546	297.7913
533.216	312.5439
533.3774	322.4422
533.5388	327.5218
533.7001	320.8762
533.8615	322.8216
534.0228	317.1043
534.1841	315.0493
534.3455	316.224
534.5068	318.7968
534.6681	318.1187
534.8293	318.729
534.9907	320.3038
535.152	329.1257
535.3132	330.126
535.4745	329.8919
535.6358	338.5429
535.7971	347.8657
535.9583	342.6384
536.1196	325.4983
536.2808	324.9016
536.4421	315.1629
536.6033	328.1991
536.7645	326.5749
536.9258	311.1958
537.087	310.1911
537.2482	317.2502
537.4094	327.1051
537.5706	325.8107
537.7318	327.2234
537.8929	327.1037
538.0541	335.339
538.2153	329.6812
538.3764	335.2583
538.5376	337.6177
538.6987	331.5096
538.8599	333.2752
539.021	331.7081
539.1821	324.9577
539.3432	319.897
539.5043	314.4278
539.6655	317.1979
539.8265	322.7695
539.9876	319.3359
540.1487	324.2941
540.3098	326.8918
540.4708	318.6779
540.6319	306.5501
540.793	307.1168
540.954	314.7171
541.1151	324.0676
541.2761	318.5641
541.4371	320.8578
541.5981	325.5793
541.7592	326.4634
541.9202	327.3316
542.0812	321.5724
542.2422	322.2261
542.4031	320.1227
542.5641	326.2931
542.7251	327.4536
542.886	326.9465
543.0471	320.4378
543.208	318.2282
543.369	317.8893
543.5298	316.6709
543.6908	327.7587
543.8517	338.1211
544.0126	334.0343
544.1736	334.3031
544.3345	334.8909
544.4954	327.5335
544.6563	319.4574
544.8171	323.4271
544.978	326.5363
545.1389	330.2784
545.2997	321.7337
545.4606	320.4041
545.6215	328.1356
545.7823	332.9471
545.9432	342.0049
546.104	336.2856
546.2648	332.9699
546.4256	328.6216
546.5864	328.8226
546.7473	334.0771
546.908	335.5688
547.0688	335.4346
547.2296	334.1246
547.3904	330.8895
547.5511	324.146
547.7119	327.935
547.8727	326.2917
548.0334	324.7862
548.1942	329.7594
548.3549	333.1224
548.5156	341.5786
548.6763	343.9215
548.837	342.6835
548.9977	338.204
549.1584	335.2993
549.3192	336.9793
549.4798	341.2839
549.6405	338.2322
549.8011	339.1754
549.9619	339.7556
550.1225	336.3765
550.2831	337.2125
550.4438	340.7631
550.6044	336.1835
550.765	334.0513
550.9257	337.4209
551.0863	343.4875
551.2469	331.551
551.4075	337.4364
551.5681	333.2029
551.7287	341.5282
551.8893	342.3098
552.0498	340.7636
552.2104	342.5354
552.371	344.644
552.5315	337.9081
552.6921	330.5811
552.8526	330.3733
553.0131	333.7779
553.1736	333.8071
553.3342	333.2683
553.4947	333.1188
553.6552	335.7818
553.8157	337.3398
553.9762	346.8938
554.1367	346.3338
554.2971	346.1944
554.4576	336.7878
554.618	340.2032
554.7785	341.9918
554.939	343.4069
555.0994	341.4137
555.2598	343.654
555.4203	329.5442
555.5807	338.5098
555.7411	330.8094
555.9015	336.5254
556.0619	331.0769
556.2223	331.3304
556.3827	325.0816
556.5431	325.316
556.7034	326.0485
556.8638	321.6097
557.0242	328.1838
557.1845	324.6826
557.3448	326.1129
557.5052	323.6508
557.6655	319.27
557.8259	331.4016
557.9861	330.6385
558.1465	335.6087
558.3068	330.4117
558.467	324.1131
558.6274	317.4339
558.7877	312.9136
558.9479	302.3248
559.1082	309.1938
559.2684	313.568
559.4287	311.0052
559.5889	312.4276
559.7491	310.4027
559.9094	309.5204
560.0696	305.9588
560.2299	316.4088
560.3901	314.7565
560.5502	304.4937
560.7104	320.3315
560.8707	329.8406
561.0308	327.5603
561.191	314.4321
561.3511	316.1366
561.5114	312.5172
561.6714	305.1675
561.8316	308.7731
561.9918	310.7453
562.1519	325.1521
562.312	319.9096
562.4722	311.211
562.6323	309.1531
562.7924	312.4689
562.9525	316.0117
563.1125	316.3342
563.2726	315.3585
563.4327	305.4992
563.5928	301.7804
563.7528	303.1152
563.9129	309.0687
564.0729	302.8884
564.233	296.364
564.393	300.3576
564.553	296.8712
564.7131	308.3361
564.873	307.3443
565.0331	307.1472
565.1931	299.3887
565.353	297.9569
565.5131	295.2937
565.673	286.6347
565.833	285.6242
565.9929	290.6093
566.1529	288.5775
566.3129	290.1707
566.4728	290.6031
566.6328	288.8101
566.7927	292.4126
566.9526	292.0641
567.1125	294.7869
567.2724	294.7738
567.4323	294.0689
567.5922	296.4556
567.7521	292.8814
567.9119	291.8941
568.0718	284.731
568.2317	280.1992
568.3915	280.9523
568.5514	269.4296
568.7112	283.0889
568.871	278.8459
569.0309	276.2229
569.1907	279.2011
569.3505	285.4662
569.5103	286.9891
569.6701	277.0303
569.8299	278.2161
569.9897	285.0482
570.1495	276.3636
570.3092	274.6013
570.469	269.4919
570.6287	269.5339
570.7885	263.3233
570.9482	259.2915
571.108	266.1114
571.2677	265.5219
571.4274	267.7413
571.5871	275.1005
571.7468	274.0879
571.9066	273.205
572.0662	269.9761
572.2259	263.9849
572.3856	268.7812
572.5452	270.3173
572.7049	267.0717
572.8646	276.9055
573.0242	270.3976
573.1838	277.6331
573.3435	272.9034
573.5031	271.2822
573.6627	279.0885
573.8223	272.9927
573.9819	270.0134
574.1415	266.5933
574.3011	267.5251
574.4607	271.985
574.6203	267.5536
574.7798	273.4909
574.9394	270.4066
575.099	263.75
575.2585	266.3892
575.418	255.3414
575.5776	249.2155
575.7371	259.1561
575.8966	260.954
576.0562	257.0367
576.2156	248.6158
576.3751	248.9734
576.5346	254.6117
576.6941	258.4029
576.8536	253.8646
577.0131	253.6919
577.1725	252.5428
577.332	257.2214
577.4914	253.7099
577.6508	249.3575
577.8103	245.9315
577.9697	252.5636
578.1291	248.5428
578.2885	248.0782
578.4479	253.6411
578.6073	241.1292
578.7667	245.7883
578.9261	245.7953
579.0854	246.949
579.2448	245.6291
579.4042	250.1306
579.5635	245.6825
579.7229	241.2977
579.8822	247.5131
580.0416	247.9675
580.2009	249.8293
580.3602	252.2853
580.5195	249.4447
580.6788	243.8665
580.8381	240.8102
580.9974	237.9447
581.1566	239.0352
581.3159	243.5859
581.4752	242.2364
581.6345	240.7105
581.7937	245.8838
581.9529	240.187
582.1122	239.0202
582.2714	238.8584
582.4306	235.4514
582.5898	235.7541
582.749	243.4195
582.9082	242.2843
583.0674	241.9294
583.2266	233.4779
583.3857	242.8152
583.5449	237.0282
583.7041	231.7942
583.8633	236.3728
584.0224	242.7555
584.1815	240.1734
584.3407	231.0342
584.4998	231.7601
584.6589	231.4451
584.818	226.391
584.9771	234.7819
585.1362	229.2688
585.2953	230.2993
585.4544	228.3499
585.6135	230.4551
585.7725	229.3275
585.9316	228.8227
586.0906	232.3276
586.2497	233.1042
586.4087	226.82
586.5677	229.9233
586.7267	230.8929
586.8858	234.9352
587.0448	235.6372
587.2038	232.9105
587.3628	226.4435
587.5218	231.4002
587.6807	223.3499
587.8397	225.1668
587.9987	225.5692
588.1577	223.7306
588.3166	219.9562
588.4755	227.6474
588.6345	215.4629
588.7934	215.0363
588.9523	211.3377
589.1112	203.2859
589.2701	205.8304
589.429	214.0267
589.5879	208.0545
589.7468	212.8357
589.9056	213.2151
590.0645	209.3885
590.2234	213.9688
590.3822	217.8158
590.5411	212.5034
590.6999	214.9405
590.8588	216.7532
591.0176	213.5661
591.1764	214.1495
591.3352	218.0754
591.494	217.1641
591.6528	213.004
591.8116	213.4558
591.9703	211.9318
592.1291	209.0593
592.2878	213.7249
592.4467	208.1739
592.6053	208.6423
592.7641	209.9091
592.9229	210.0858
593.0816	216.4035
593.2403	213.4249
593.399	207.7886
593.5577	213.3664
593.7164	209.8526
593.8751	220.3569
594.0338	212.4718
594.1924	208.7974
594.3511	208.4157
594.5098	209.1124
594.6684	210.6768
594.8271	204.1062
594.9857	210.8629
595.1443	219.9084
595.303	215.6955
595.4615	212.6934
595.6202	214.0847
595.7787	206.0789
595.9374	211.3192
596.0959	216.703
596.2545	213.2256
596.4131	214.538
596.5717	203.7941
596.7302	207.9012
596.8887	205.1581
597.0473	204.0446
597.2058	212.8437
597.3644	212.312
597.5229	209.5037
597.6814	212.682
597.8399	213.1841
597.9984	203.7192
598.1569	209.7224
598.3154	211.5626
598.4738	206.6619
598.6323	207.4952
598.7908	212.7268
598.9492	215.4149
599.1076	208.5406
599.2661	203.8899
599.4245	207.5838
599.5829	208.2327
599.7413	204.8505
599.8997	210.9952
600.0581	202.972
600.2165	204.5845
600.3749	204.9461
600.5333	202.5552
600.6917	207.0049
600.85	213.1557
601.0084	205.1051
601.1667	203.8707
601.325	208.201
601.4833	206.2427
601.6417	203.5881
601.8	205.7696
601.9583	203.727
602.1166	204.4603
602.2749	215.1732
602.4332	207.7952
602.5914	198.8502
602.7498	198.9952
602.908	203.4327
603.0662	200.7973
603.2245	206.6227
603.3828	211.2361
603.541	204.7097
603.6992	204.0312
603.8574	204.2761
604.0156	204.5744
604.1738	207.8477
604.332	202.0123
604.4902	201.8432
604.6484	201.5909
604.8065	205.4362
604.9647	207.5296
605.1229	200.5331
605.281	200.1691
605.4391	202.1349
605.5973	205.391
605.7554	199.2269
605.9135	194.9315
606.0717	198.0096
606.2297	198.3678
606.3878	196.6302
606.5459	195.4532
606.704	195.2306
606.8621	200.3869
607.0201	199.016
607.1782	198.1938
607.3362	194.7184
607.4943	199.2398
607.6523	195.2579
607.8104	198.3513
607.9684	194.6016
608.1264	194.8034
608.2844	194.708
608.4424	196.4778
608.6003	187.4321
608.7584	192.264
608.9163	190.2093
609.0743	193.4136
609.2322	185.7783
609.3902	189.5339
609.5482	189.0975
609.7061	195.8173
609.864	195.1094
610.0219	190.5747
610.1798	194.7539
610.3377	193.3197
610.4956	194.4713
610.6535	189.9593
610.8114	183.026
610.9693	185.4834
611.1271	185.9082
611.285	182.1205
611.4429	187.6514
611.6007	181.2585
611.7585	182.7441
611.9164	180.4693
612.0742	188.7796
612.232	190.6431
612.3898	194.8628
612.5476	180.4793
612.7054	184.0507
612.8632	187.3308
613.0209	179.4371
613.1787	184.7442
613.3365	185.3477
613.4942	188.5302
613.652	185.0639
613.8097	183.3375
613.9674	181.0838
614.1252	189.4059
614.2829	186.856
614.4406	180.3403
614.5983	182.2442
614.756	183.5915
614.9136	179.3955
615.0714	184.9566
615.229	184.8788
615.3867	176.2168
615.5443	178.0653
615.702	184.8431
615.8596	176.7841
616.0172	184.0714
616.1748	176.3063
616.3325	169.6636
616.4901	172.607
616.6476	173.512
616.8052	175.9398
616.9628	179.7504
617.1204	174.6932
617.278	171.1026
617.4355	177.1616
617.5931	178.61
617.7506	179.5358
617.9081	175.3021
618.0657	173.4095
618.2232	176.7883
618.3807	179.487
618.5382	178.3514
618.6957	181.7836
618.8532	175.4391
619.0107	176.799
619.1682	176.5148
619.3256	175.1801
619.4831	177.3263
619.6406	173.4663
619.798	175.5057
619.9554	173.2217
620.1129	176.5889
620.2703	175.1077
620.4277	175.6492
620.5851	179.0872
620.7425	172.3729
620.8998	172.3547
621.0573	171.2778
621.2146	174.6712
621.372	169.3346
621.5294	169.6918
621.6867	166.597
621.8441	166.8537
622.0013	173.1102
622.1587	172.9689
622.316	177.7692
622.4733	173.9637
622.6306	177.5386
622.7879	170.7523
622.9452	169.4906
623.1025	166.1717
623.2598	170.1636
623.4171	165.8303
623.5743	172.9818
623.7316	166.4385
623.8888	176.2802
624.046	175.0315
624.2032	172.7823
624.3605	170.2073
624.5176	172.5314
624.6749	163.7046
624.8321	168.4552
624.9893	170.9309
625.1464	172.8257
625.3036	163.6955
625.4608	162.4598
625.6179	159.7668
625.7751	166.7569
625.9322	173.5344
626.0894	168.6774
626.2465	169.0118
626.4036	169.2607
626.5607	163.667
626.7178	164.9976
626.8749	168.6371
627.032	169.0294
627.189	164.7827
627.3461	166.4777
627.5032	157.9525
627.6602	161.289
627.8173	163.9103
627.9743	164.3216
628.1313	165.7038
628.2884	159.6108
628.4454	162.9078
628.6024	167.31
628.7594	164.8469
628.9164	163.8929
629.0734	166.3632
629.2303	161.6604
629.3873	164.5914
629.5443	169.4765
629.7012	163.3703
629.8582	162.7382
630.0151	159.3629
630.172	158.1691
630.3289	162.0861
630.4858	167.0956
630.6428	161.1698
630.7996	169.7787
630.9565	164.6009
631.1134	157.2859
631.2703	157.3324
631.4272	159.4455
631.584	162.2954
631.7408	156.4789
631.8977	158.9086
632.0546	168.0842
632.2114	167.0023
632.3682	166.6539
632.525	163.3422
632.6818	162.1316
632.8386	160.0418
632.9954	167.1686
633.1522	162.1345
633.3089	168.6288
633.4657	166.1751
633.6224	162.132
633.7792	157.923
633.9359	161.8818
634.0927	161.6251
634.2494	162.0299
634.4061	159.8208
634.5628	156.4198
634.7195	166.5696
634.8762	163.586
635.0329	166.5801
635.1895	169.5836
635.3462	166.7279
635.5029	162.049
635.6595	157.4905
635.8162	159.1194
635.9728	152.8802
636.1295	155.8479
636.2861	157.5549
636.4427	160.0225
636.5992	155.3202
636.7559	154.599
636.9124	163.4913
637.069	163.5337
637.2256	156.4193
637.3821	163.3614
637.5387	149.7756
637.6953	153.4908
637.8518	161.1731
638.0084	155.2507
638.1649	155.8053
638.3214	160.3189
638.4779	153.7486
638.6344	158.2817
638.7909	151.2182
638.9474	156.3638
639.1038	157.0573
639.2603	151.5519
639.4167	150.3082
639.5732	149.093
639.7297	150.4057
639.8861	153.4059
640.0425	148.3307
640.199	154.885
640.3553	156.1324
640.5118	154.2663
640.6682	149.8818
640.8245	149.4819
640.981	148.3866
641.1373	152.6975
641.2936	152.7736
641.45	152.726
641.6064	154.4432
641.7627	151.2923
641.9191	141.1708
642.0754	142.8628
642.2317	148.1293
642.388	145.4972
642.5443	144.0427
642.7006	148.1108
642.8569	149.513
643.0131	152.5586
643.1694	144.2697
643.3257	149.4071
643.4819	149.1626
643.6382	147.7576
643.7944	140.1225
643.9506	140.5841
644.1069	142.4936
644.2631	144.739
644.4193	147.9819
644.5754	146.8141
644.7316	147.6582
644.8878	141.9323
645.044	142.3716
645.2002	140.6691
645.3563	142.0359
645.5125	139.4714
645.6686	146.9071
645.8248	141.8367
645.9809	141.0234
646.137	143.5815
646.2931	137.9949
646.4492	134.6406
646.6053	138.5043
646.7614	136.8127
646.9174	142.433
647.0735	139.0552
647.2296	138.1553
647.3856	138.0936
647.5417	137.9345
647.6977	134.9347
647.8537	132.0069
648.0098	137.1555
648.1658	138.3227
648.3218	132.3321
648.4777	132.2523
648.6337	134.3035
648.7897	136.3712
648.9457	133.687
649.1016	132.5287
649.2576	138.3632
649.4135	137.2664
649.5695	130.8265
649.7254	132.1028
649.8813	129.1861
650.0372	133.749
650.1932	131.0186
650.3491	134.8083
650.5049	136.3838
650.6608	136.6454
650.8167	129.9511
650.9725	133.106
651.1284	135.5745
651.2842	128.5374
651.4401	125.8796
651.5959	126.7593
651.7518	129.3768
651.9076	132.7808
652.0634	125.6972
652.2192	130.4673
652.3749	129.8066
652.5308	130.5408
652.6865	135.3586
652.8423	132.3313
652.998	127.2133
653.1538	134.4238
653.3096	130.6558
653.4653	124.5865
653.621	129.1669
653.7767	136.3077
653.9324	133.3048
654.0881	136.3752
654.2438	140.372
654.3995	125.5625
654.5552	122.8175
654.7109	121.0096
654.8665	126.2201
655.0222	127.0458
655.1778	123.731
655.3334	122.9344
655.4891	128.3425
655.6447	127.571
655.8003	124.0119
655.9559	121.5946
656.1115	125.3866
656.2671	126.086
656.4227	119.1568
656.5782	122.1537
656.7338	120.0816
656.8893	123.399
657.0449	119.5982
657.2004	119.0354
657.356	126.8129
657.5115	122.7564
657.667	123.0502
657.8225	125.7926
657.978	130.4856
658.1335	127.5594
658.289	124.753
658.4445	125.4872
658.5999	123.669
658.7554	124.8358
658.9108	130.0228
659.0663	132.6487
659.2217	126.0606
659.3771	119.9497
659.5325	120.1424
659.6879	117.8311
659.8433	123.0632
659.9987	129.7357
660.1541	127.8333
660.3095	124.2274
660.4648	122.3037
660.6202	122.8479
660.7756	121.5437
660.9309	120.4398
661.0862	124.0027
661.2416	118.1897
661.3969	122.1011
661.5522	124.1231
661.7075	121.1486
661.8628	126.5295
662.0181	127.0671
662.1733	119.7563
662.3286	121.5214
662.4839	125.5796
662.6391	126.4512
662.7944	123.0369
662.9496	120.3894
663.1048	116.2188
663.26	116.7626
663.4152	122.0244
663.5704	117.829
663.7256	114.7962
663.8808	114.9295
664.036	115.5577
664.1912	116.3146
664.3463	118.1503
664.5015	119.9966
664.6566	111.5681
664.8118	114.208
664.9669	117.6209
665.122	116.529
665.2771	113.5931
665.4322	115.0814
665.5873	115.727
665.7424	111.9038
665.8975	109.3681
666.0526	116.0805
666.2076	113.1982
666.3627	116.7595
666.5177	116.449
666.6727	113.7748
666.8278	113.0352
666.9828	117.8706
667.1378	119.9945
667.2928	116.2419
667.4478	119.1924
667.6028	119.7872
667.7578	114.4506
667.9127	109.456
668.0677	111.2709
668.2226	119.5579
668.3776	118.9264
668.5325	107.9601
668.6874	110.8847
668.8423	115.6423
668.9973	117.5185
669.1522	113.349
669.3071	109.7572
669.4619	113.1951
669.6168	109.9198
669.7717	112.5017
669.9265	109.7545
670.0814	116.7215
670.2362	110.2234
670.3911	109.2058
670.5459	106.7079
670.7007	105.5897
670.8555	107.1673
671.0103	114.2868
671.1651	111.7319
671.3199	109.5092
671.4747	112.3281
671.6295	108.8805
671.7842	102.3525
671.939	103.3707
672.0937	106.7875
672.2484	105.4216
672.4031	106.4852
672.5579	109.5675
672.7126	108.7114
672.8673	103.3039
673.022	102.6825
673.1767	107.9859
673.3314	109.6208
673.486	108.4286
673.6407	107.2237
673.7953	108.3167
673.95	112.9984
674.1046	113.5157
674.2592	107.7663
674.4138	108.8989
674.5684	110.2452
674.723	108.7887
674.8776	114.6362
675.0322	104.549
675.1868	106.2694
675.3414	109.494
675.4959	111.285
675.6505	110.4283
675.805	109.1707
675.9595	108.4321
676.1141	107.8176
676.2686	111.9206
676.4231	109.5488
676.5776	107.4855
676.7321	105.6759
676.8866	113.2307
677.041	109.0288
677.1955	105.5564
677.35	98.63025
677.5044	101.2312
677.6589	105.8897
677.8133	105.7577
677.9677	104.9592
678.1221	109.5546
678.2766	109.7476
678.4309	106.6828
678.5853	107.4418
678.7397	106.7775
678.8941	104.389
679.0485	107.8343
679.2028	107.2883
679.3571	107.3879
679.5115	110.4935
679.6658	106.5552
679.8201	105.0986
679.9744	105.2869
680.1288	106.654
680.2831	104.4463
680.4373	104.3829
680.5916	103.8722
680.7459	104.8598
680.9001	102.3437
681.0544	101.4895
681.2087	102.7825
681.3629	101.2839
681.5171	106.0745
681.6713	103.4514
681.8256	104.2258
681.9797	108.9336
682.134	107.9613
682.2881	102.7691
682.4423	101.8903
682.5965	98.61927
682.7507	104.2857
682.9048	103.0708
683.059	109.0805
683.2131	107.9917
683.3672	104.7637
683.5213	102.6907
683.6754	107.223
683.8295	111.4275
683.9836	105.7941
684.1377	103.6215
684.2918	103.2863
684.4459	105.5586
684.5999	105.3406
684.754	103.0283
684.908	107.0069
685.062	103.6089
685.2161	106.8012
685.3701	110.2905
685.5241	112.2885
685.6781	105.7759
685.8321	105.3843
685.9861	110.4447
686.14	104.8765
686.294	100.6772
686.4479	103.4628
686.6019	99.29031
686.7559	99.38659
686.9098	98.13007
687.0637	94.22778
687.2176	94.42964
687.3715	95.99702
687.5254	101.2991
687.6793	104.5421
687.8332	105.5227
687.9871	97.0661
688.1409	97.86199
688.2947	99.51752
688.4486	101.6767
688.6024	105.4177
688.7563	102.2029
688.9101	109.2772
689.0639	111.7203
689.2177	106.4877
689.3715	105.8398
689.5253	105.0885
689.6791	108.2263
689.8328	111.8963
689.9866	101.8999
690.1403	108.0198
690.2941	106.3126
690.4478	112.665
690.6015	113.7487
690.7552	111.7185
690.9089	109.4977
691.0626	110.6344
691.2164	111.4183
691.37	107.2254
691.5237	108.9194
691.6774	106.2443
691.831	107.9279
691.9847	112.4641
692.1383	110.6077
692.2919	112.0404
692.4456	110.7374
692.5992	112.8669
692.7527	108.7669
692.9064	109.7485
693.0599	108.7823
693.2136	110.6279
693.3671	116.0636
693.5207	117.7342
693.6742	114.4281
693.8278	116.4292
693.9813	114.6946
694.1348	116.7517
694.2883	115.463
694.4418	116.5602
694.5953	119.3593
694.7488	118.262
694.9023	118.2029
695.0558	117.9576
695.2093	117.4618
695.3627	122.2374
695.5162	124.1244
695.6696	127.0539
695.8231	120.5344
695.9764	126.5739
696.1299	127.8458
696.2833	123.8823
696.4367	121.2892
696.5901	125.9437
696.7435	125.8296
696.8968	126.7383
697.0502	129.9043
697.2036	125.6094
697.3569	123.0267
697.5102	126.8036
697.6635	130.1418
697.8168	129.0153
697.9702	128.2701
698.1235	132.4564
698.2768	130.2553
698.4301	129.2548
698.5833	126.9297
698.7366	131.5853
698.8898	125.1458
699.0431	127.9718
699.1964	133.2374
699.3495	136.814
699.5028	134.8316
699.656	132.9861
699.8092	134.148
699.9624	134.1268
700.1156	137.03
700.2688	137.1911
700.4219	134.7746
700.5751	132.6147
700.7283	130.566
700.8814	135.938
701.0345	140.6506
701.1877	143.9252
701.3408	138.6642
701.4939	145.785
701.647	145.1656
701.8001	140.0167
701.9532	142.363
702.1063	147.8062
702.2593	146.8029
702.4124	144.277
702.5654	143.2601
702.7184	141.2617
702.8715	138.6641
703.0245	141.0086
703.1776	146.4812
703.3305	149.7874
703.4835	150.8534
703.6365	156.0116
703.7895	144.1097
703.9424	147.5241
704.0954	153.1976
704.2484	156.475
704.4013	156.1608
704.5543	156.5476
704.7072	158.1199
704.8601	159.243
705.013	151.5107
705.1659	154.0513
705.3188	158.8068
705.4717	158.8538
705.6246	152.5501
705.7774	158.3592
705.9303	153.8536
706.0831	155.9348
706.236	160.4135
706.3888	158.0518
706.5416	167.5776
706.6944	169.1098
706.8472	172.1983
707	167.7364
707.1528	166.9328
707.3056	166.5811
707.4583	170.6527
707.6111	169.0629
707.7639	168.673
707.9166	172.732
708.0693	174.4377
708.222	174.3663
708.3748	174.7871
708.5275	173.9143
708.6802	170.7781
708.8328	180.0219
708.9855	178.4354
709.1382	172.6515
709.2909	172.9076
709.4435	173.2839
709.5962	174.649
709.7488	181.8133
709.9014	178.7495
710.054	174.3472
710.2067	170.0531
710.3593	180.8734
710.5118	180.5467
710.6644	182.8619
710.817	182.4137
710.9695	182.594
711.1221	180.6213
711.2747	178.849
711.4272	181.8993
711.5797	186.6813
711.7322	184.5384
711.8848	178.3309
712.0373	186.8469
712.1898	184.933
712.3422	189.8009
712.4948	191.1575
712.6472	191.5111
712.7996	191.826
712.9521	188.6578
713.1046	185.0741
713.257	184.8723
713.4094	183.5941
713.5618	191.9651
713.7142	190.8707
713.8666	192.9952
714.019	191.9918
714.1714	191.2074
714.3237	197.4227
714.4761	193.4841
714.6285	191.1706
714.7808	191.1337
714.9331	195.3022
715.0854	193.3015
715.2378	195.3507
715.3901	198.0918
715.5424	195.3501
715.6947	191.3363
715.8469	193.7916
715.9992	197.8982
716.1515	200.5441
716.3037	197.3717
716.456	187.6481
716.6082	183.6256
716.7604	183.636
716.9127	187.0517
717.0649	177.7911
717.2171	173.6928
717.3693	180.9298
717.5214	176.3895
717.6736	181.0281
717.8258	175.5402
717.978	173.5777
718.1301	184.9131
718.2822	185.0003
718.4344	170.9119
718.5865	167.3743
718.7386	168.7802
718.8907	173.9987
719.0428	176.9168
719.1949	179.4711
719.3469	179.9585
719.499	176.2139
719.6511	182.922
719.8031	182.8881
719.9551	179.8114
720.1072	187.957
720.2592	182.6348
720.4112	179.8965
720.5632	177.4123
720.7152	183.6958
720.8672	196.6303
721.0192	196.5364
721.1711	203.7018
721.3231	210.2239
721.475	215.3459
721.627	207.3915
721.7789	215.0239
721.9308	214.3079
722.0828	218.6608
722.2347	214.039
722.3866	207.4792
722.5385	215.8108
722.6903	216.618
722.8422	214.684
722.9941	218.7048
723.1459	212.9131
723.2977	202.8695
723.4496	194.6373
723.6014	193.025
723.7532	200.4608
723.905	198.1415
724.0568	194.1344
724.2086	195.1531
724.3604	198.4296
724.5121	202.5898
724.6639	205.0502
724.8157	209.6114
724.9674	209.1137
725.1191	202.3573
725.2709	201.5629
725.4226	195.482
725.5743	203.1674
725.726	213.751
725.8777	208.2879
726.0294	213.2984
726.181	212.2892
726.3327	208.5125
726.4844	214.3148
726.636	218.1444
726.7877	224.3396
726.9393	226.9898
727.0909	230.2532
727.2425	223.0508
727.3941	207.5681
727.5457	204.192
727.6973	201.2336
727.8488	201.9761
728.0004	209.3468
728.1519	232.4029
728.3035	226.6316
728.455	224.0756
728.6066	228.4122
728.7581	222.4248
728.9095	215.2662
729.0611	212.8341
729.2126	202.6878
729.364	215.7885
729.5155	224.6001
729.667	226.5084
729.8184	236.6336
729.9698	234.1836
730.1213	229.6687
730.2727	224.2911
730.4241	219.1962
730.5756	228.0871
730.7269	230.0723
730.8784	226.6871
731.0297	234.7401
731.1811	233.3139
731.3325	231.3825
731.4838	235.8637
731.6351	241.2982
731.7865	237.7047
731.9378	243.9306
732.0891	242.1626
732.2404	248.1492
732.3917	248.767
732.543	250.7538
732.6943	247.4279
732.8456	250.1899
732.9968	255.2905
733.1481	251.5959
733.2993	249.9195
733.4506	255.9473
733.6018	254.1503
733.753	260.981
733.9042	270.0037
734.0554	272.1597
734.2066	268.0489
734.3578	265.773
734.509	261.1971
734.6602	260.7187
734.8113	263.4439
734.9624	250.7671
735.1136	257.4773
735.2647	266.2534
735.4158	274.7234
735.5669	262.7291
735.718	260.4413
735.8691	255.2833
736.0201	257.135
736.1713	262.7027
736.3223	267.1948
736.4733	259.9918
736.6244	265.5344
736.7755	268.087
736.9265	261.1761
737.0775	260.8128
737.2285	269.4673
737.3795	268.4313
737.5305	271.6828
737.6815	269.1877
737.8324	273.4314
737.9834	274.8401
738.1343	271.7218
738.2853	271.3704
738.4362	266.692
738.5871	262.3035
738.738	266.5385
738.8889	266.3319
739.0399	269.6183
739.1907	269.7768
739.3416	273.3905
739.4925	276.4503
739.6433	276.6301
739.7942	277.3018
739.945	278.3387
740.0958	277.0453
740.2467	277.7888
740.3975	267.3758
740.5483	268.5462
740.6991	272.4106
740.8499	274.7523
741.0007	268.8177
741.1514	275.5764
741.3022	273.1604
741.4529	274.5316
741.6036	270.8546
741.7544	273.3634
741.9051	277.729
742.0558	269.5499
742.2065	273.6083
742.3572	274.0152
742.5079	271.5976
742.6586	277.3691
742.8093	277.6577
742.9599	285.6109
743.1105	284.2098
743.2612	286.0107
743.4118	290.4808
743.5624	289.0913
743.7131	283.8059
743.8636	287.2079
744.0142	287.3994
744.1648	279.3305
744.3154	275.7811
744.4659	274.4727
744.6165	273.2281
744.767	274.7465
744.9176	279.9923
745.0681	282.4446
745.2186	286.103
745.3691	283.2619
745.5197	281.982
745.6702	291.2859
745.8206	289.6898
745.9711	287.8151
746.1215	288.0678
746.272	281.0563
746.4224	277.3121
746.5729	278.3063
746.7233	286.3609
746.8737	283.3581
747.0241	286.3798
747.1745	274.5173
747.3249	277.0905
747.4753	280.5422
747.6257	284.5433
747.776	284.2428
747.9264	281.9967
748.0767	286.9436
748.2271	289.4593
748.3774	294.4124
748.5276	290.5927
748.678	278.7085
748.8282	277.8113
748.9786	284.658
749.1288	281.1299
749.2791	276.2949
749.4294	278.6832
749.5796	272.1155
749.7299	277.7301
749.8801	275.9826
750.0303	279.5413
750.1805	279.5215
750.3307	278.3815
750.4809	279.2276
750.6311	282.7559
750.7813	269.3681
750.9314	266.7874
751.0816	260.5081
751.2318	261.8476
751.3818	273.7343
751.532	268.5627
751.6821	278.8273
751.8322	267.6469
751.9823	271.7034
752.1324	267.5424
752.2825	266.6437
752.4326	264.1424
752.5826	261.6642
752.7327	265.4282
752.8827	267.7477
753.0327	275.1548
753.1827	265.5276
753.3328	265.8926
753.4828	269.2708
753.6328	267.6547
753.7828	268.5302
753.9327	275.6293
754.0827	266.3316
754.2327	265.7552
754.3826	262.1608
754.5325	264.003
754.6825	262.8627
754.8324	264.9196
754.9823	265.8907
755.1322	263.0238
755.2821	255.9191
755.432	256.4841
755.5818	258.9259
755.7318	254.578
755.8816	260.815
756.0314	256.4315
756.1813	257.6575
756.3311	255.1987
756.4809	256.776
756.6307	255.1559
756.7805	253.2117
756.9303	257.7396
757.0801	252.4491
757.2299	250.8804
757.3796	246.6428
757.5294	247.161
757.6791	257.586
757.8289	253.6416
757.9786	248.0106
758.1283	249.415
758.278	251.2792
758.4277	253.3605
758.5773	245.2698
758.7271	243.7093
758.8767	241.6711
759.0264	247.217
759.176	241.4341
759.3256	216.7139
759.4753	184.2203
759.6249	147.1374
759.7745	125.6061
759.9241	116.1183
760.0737	107.8254
760.2233	93.55399
760.3729	87.41814
760.5224	85.95272
760.6719	78.93813
760.8215	84.86752
760.971	93.33585
761.1205	95.67198
761.2701	107.8193
761.4196	119.9298
761.5691	141.9708
761.7186	167.1074
761.868	182.8332
762.0175	180.7761
762.167	163.4276
762.3164	152.8795
762.4659	143.9735
762.6153	131.7662
762.7647	130.3213
762.9141	131.7091
763.0635	128.6748
763.2129	129.9259
763.3623	129.0589
763.5117	130.6553
763.661	130.6918
763.8104	136.2641
763.9597	138.0961
764.1091	143.0995
764.2584	149.9161
764.4077	148.7859
764.557	152.2
764.7063	157.6731
764.8556	158.3273
765.0049	163.7939
765.1541	166.2771
765.3034	172.2292
765.4526	177.2826
765.6019	178.2124
765.7511	174.5703
765.9003	177.8878
766.0496	177.8539
766.1987	178.7368
766.348	184.3077
766.4971	193.7909
766.6463	190.9666
766.7955	193.3492
766.9446	197.7458
767.0938	194.6133
767.2429	204.1082
767.392	202.9055
767.5411	199.8606
767.6902	204.4375
767.8394	209.071
767.9884	209.5461
768.1375	210.0718
768.2866	212.1193
768.4356	210.1157
768.5847	211.7623
768.7337	212.6166
768.8828	212.2003
769.0317	210.8963
769.1808	209.4723
769.3298	209.3706
769.4788	211.582
769.6277	208.146
769.7767	204.6839
769.9257	208.188
770.0746	208.3719
770.2236	210.2633
770.3725	215.1072
770.5214	217.1652
770.6703	215.5302
770.8193	215.5055
770.9681	213.4593
771.1171	212.1509
771.2659	212.5928
771.4148	207.801
771.5637	209.941
771.7125	214.0639
771.8613	207.8232
772.0101	204.9506
772.159	206.7516
772.3078	204.1848
772.4566	206.2934
772.6054	209.7981
772.7542	208.1533
772.903	204.5357
773.0517	206.9716
773.2004	206.8217
773.3492	198.4925
773.4979	206.1159
773.6467	207.8436
773.7953	201.8768
773.944	205.7634
774.0928	204.9155
774.2415	196.1613
774.3901	200.0602
774.5388	197.6455
774.6874	197.7337
774.8361	195.9092
774.9847	197.3944
775.1334	198.8583
775.282	198.5936
775.4305	199.3456
775.5792	207.4566
775.7277	202.8571
775.8763	202.8589
776.0249	201.1972
776.1735	203.587
776.322	199.2152
776.4705	205.6391
776.6191	205.2863
776.7676	209.5774
776.9161	201.0795
777.0646	195.5914
777.2131	194.5278
777.3616	203.7745
777.5101	197.9644
777.6585	192.3629
777.8069	189.7885
777.9554	189.551
778.1038	193.7479
778.2523	198.4356
778.4007	196.8724
778.5491	197.7327
778.6974	190.017
778.8459	187.9604
778.9942	186.2683
779.1426	199.4239
779.291	195.5596
779.4393	188.9368
779.5876	190.6364
779.736	196.6405
779.8843	198.4839
780.0326	189.5459
780.1809	190.214
780.3292	191.5574
780.4775	189.7122
780.6257	182.1378
780.774	190.9857
780.9222	188.1682
781.0704	193.4366
781.2187	198.121
781.3669	197.6769
781.5151	186.7868
781.6633	185.1194
781.8115	188.692
781.9597	190.5062
782.1078	192.7107
782.256	186.466
782.4042	182.6286
782.5523	187.4837
782.7004	186.9869
782.8486	188.5268
782.9967	183.7603
783.1448	177.3975
783.2929	181.5424
783.441	180.539
783.5891	182.8734
783.7371	183.4716
783.8851	179.3716
784.0332	184.6496
784.1812	186.3167
784.3293	184.6159
784.4773	180.9467
784.6253	185.9143
784.7733	182.1121
784.9213	184.7881
785.0692	186.933
785.2172	185.9595
785.3652	184.8718
785.5131	179.6214
785.6611	180.3879
785.809	180.9588
785.9569	179.1684
786.1048	180.4226
786.2527	171.2257
786.4006	179.6517
786.5485	177.4925
786.6964	173.1166
786.8442	179.1043
786.9921	171.0648
787.1399	174.7687
787.2877	173.2314
787.4355	167.6284
787.5833	173.5999
787.7311	170.3292
787.8789	171.0168
788.0267	174.3301
788.1745	172.6711
788.3223	174.1116
788.47	170.974
788.6177	174.3846
788.7654	176.8763
788.9132	170.2142
789.0609	172.2018
789.2086	173.8789
789.3563	168.5872
789.504	164.5269
789.6517	168.4658
789.7993	166.7467
789.947	169.496
790.0946	168.2256
790.2422	164.4944
790.3898	166.6813
790.5375	174.7028
790.6851	174.3149
790.8326	164.3144
790.9802	163.9081
791.1278	162.8387
791.2754	165.3731
791.423	165.1044
791.5705	170.797
791.718	166.9645
791.8655	167.6349
792.0131	162.9046
792.1606	162.0702
792.308	167.7352
792.4556	172.5755
792.603	164.3625
792.7505	160.7846
792.8979	160.023
793.0454	158.987
793.1928	156.4593
793.3403	164.2699
793.4877	157.1402
793.6351	160.1269
793.7825	167.5515
793.9299	163.7513
794.0772	165.2974
794.2246	167.2124
794.3719	161.5622
794.5193	158.9008
794.6666	160.0078
794.814	164.7534
794.9613	160.4736
795.1086	164.4137
795.2559	162.0073
795.4032	159.0342
795.5505	161.5001
795.6978	160.0022
795.845	154.0645
795.9922	155.9092
796.1395	151.7291
796.2867	159.3285
796.4339	157.1736
796.5811	155.223
796.7283	154.7748
796.8755	156.8506
797.0227	152.9392
797.1699	152.247
797.317	158.3538
797.4642	157.8236
797.6113	158.0305
797.7584	158.3126
797.9056	155.714
798.0527	157.9866
798.1998	159.2003
798.3469	161.9342
798.494	161.8875
798.641	151.652
798.7881	157.8512
798.9351	159.1637
799.0822	162.5316
799.2292	154.377
799.3762	153.2549
799.5232	159.5025
799.6702	155.0688
799.8172	152.5446
799.9642	144.8131
800.1111	146.8485
800.2581	144.7051
800.4051	142.9624
800.552	148.0336
800.6989	140.8255
800.8458	147.8182
800.9927	151.2401
801.1396	150.6284
801.2866	143.8747
801.4334	143.7602
801.5803	148.6958
801.7272	144.3505
801.874	148.332
802.0209	148.2154
802.1677	147.7843
802.3145	141.1549
802.4613	146.5454
802.6081	139.8406
802.7549	135.8713
802.9017	138.8713
803.0485	145.6647
803.1952	147.2857
803.342	144.9416
803.4887	136.442
803.6354	139.3925
803.7822	143.1638
803.9289	149.9362
804.0756	143.4908
804.2223	138.5897
804.369	141.7561
804.5156	139.876
804.6623	139.5769
804.8089	142.0937
804.9556	137.1814
805.1022	135.1604
805.2488	135.1991
805.3954	134.7906
805.542	141.6228
805.6886	144.0623
805.8352	144.5816
805.9818	146.3907
806.1283	147.7112
806.2749	150.2427
806.4214	146.2526
806.5679	137.462
806.7145	139.7888
806.861	139.7416
807.0074	142.5378
807.154	137.3488
807.3004	134.4959
807.4469	139.2379
807.5934	138.8942
807.7398	137.7808
807.8862	140.2452
808.0327	133.7673
808.1791	134.8391
808.3255	130.9683
808.4719	127.8175
808.6183	128.3087
808.7647	133.7279
808.9111	135.2605
809.0574	134.3864
809.2037	131.4302
809.3501	128.5391
809.4965	124.5466
809.6428	127.2491
809.7891	130.7115
809.9354	128.8393
810.0817	122.3061
810.2279	131.881
810.3742	132.0676
810.5204	125.7195
810.6667	122.3995
810.8129	124.4361
810.9592	127.4583
811.1054	130.5797
811.2516	131.7964
811.3978	125.8577
811.5439	125.0948
811.6901	129.2836
811.8363	125.0588
811.9825	126.0516
812.1286	120.8429
812.2748	116.2819
812.4209	115.9449
812.567	117.7613
812.7131	121.6003
812.8592	119.6151
813.0053	117.2487
813.1514	116.7237
813.2974	113.4722
813.4435	107.463
813.5895	104.1078
813.7356	111.329
813.8816	113.3438
814.0276	110.6804
814.1736	112.5034
814.3196	113.8361
814.4656	111.3368
814.6116	105.2767
814.7576	105.5665
814.9035	101.8155
815.0494	98.8875
815.1954	102.9018
815.3413	108.6266
815.4872	104.9181
815.6331	101.786
815.779	107.523
815.9249	112.3548
816.0707	103.687
816.2166	98.66502
816.3625	89.58562
816.5083	91.86673
816.6542	99.0761
816.8	103.0147
816.9458	99.1538
817.0916	94.66766
817.2374	100.4054
817.3832	113.8054
817.5289	108.2181
817.6747	101.8324
817.8204	94.10976
817.9662	99.4379
818.1119	97.58776
818.2576	95.10579
818.4034	100.259
818.5491	108.6819
818.6948	101.1734
818.8405	99.41058
818.9861	102.3221
819.1318	99.4288
819.2774	95.06267
819.423	98.66426
819.5687	100.7702
819.7143	97.78409
819.8599	97.3763
820.0055	94.78078
820.1511	95.51312
820.2967	98.11213
820.4422	107.117
820.5878	109.1517
820.7333	107.1383
820.8788	111.6801
821.0244	108.5444
821.1699	107.2284
821.3154	104.6237
821.4609	101.7777
821.6064	106.4572
821.7519	102.8327
821.8973	98.2695
822.0428	104.1378
822.1882	99.9713
822.3337	96.4111
822.4791	89.15439
822.6245	87.13564
822.7699	81.22137
822.9153	72.19245
823.0607	74.40922
823.2061	75.15246
823.3514	81.15656
823.4968	90.05367
823.6422	96.83475
823.7875	97.8144
823.9328	98.70021
824.0781	103.5921
824.2234	102.9014
824.3687	103.2958
824.514	99.11784
824.6592	103.5921
824.8045	106.3313
824.9498	105.1906
825.095	109.9351
825.2402	103.8628
825.3854	100.1914
825.5306	94.15693
825.6758	96.39807
825.821	93.18023
825.9662	98.67852
826.1114	101.0737
826.2565	103.7602
826.4017	103.744
826.5468	96.76038
826.692	98.84611
826.837	102.9735
826.9822	100.2539
827.1273	98.87913
827.2723	92.74154
827.4174	95.24864
827.5625	90.27913
827.7075	86.60526
827.8526	84.47785
827.9976	91.68229
828.1426	91.69724
828.2877	93.31074
828.4327	95.46323
828.5776	95.5137
828.7227	92.37981
828.8676	89.58207
829.0126	84.22878
829.1575	90.18993
829.3024	89.28288
829.4474	92.13328
829.5923	91.35424
829.7372	98.25182
829.8821	97.56115
830.027	91.61373
830.1719	90.43015
830.3168	89.23063
830.4616	90.2407
830.6064	90.10607
830.7513	90.11098
830.8961	92.84145
831.041	94.57638
831.1857	97.02284
831.3306	97.73022
831.4753	96.62149
831.6201	93.82131
831.7649	91.60992
831.9096	94.58739
832.0544	89.00719
832.1991	84.30161
832.3438	89.96426
832.4885	90.44681
832.6332	91.64839
832.778	95.20985
832.9226	91.91835
833.0673	89.36454
833.2119	92.95414
833.3566	89.29039
833.5012	90.20744
833.6459	87.27917
833.7905	87.28101
833.9351	87.83208
834.0797	86.8624
834.2243	90.15605
834.3688	91.11738
834.5134	91.27758
834.658	89.19269
834.8026	92.05812
834.9471	89.14767
835.0916	96.20361
835.2361	90.3104
835.3806	90.49278
835.5251	93.79383
835.6696	89.17441
835.8141	85.11783
835.9586	89.8965
836.103	87.80589
836.2474	93.75756
836.3918	95.95791
836.5363	89.99456
836.6807	94.92154
836.8251	89.24187
836.9695	90.33315
837.1138	93.69451
837.2582	91.33991
837.4026	94.97379
837.5469	86.53213
837.6913	86.60674
837.8356	89.77113
837.9799	87.20433
838.1242	95.62849
838.2686	94.69411
838.4128	92.31199
838.5571	88.9537
838.7014	89.72363
838.8456	90.20051
838.9899	92.01502
839.1341	93.84676
839.2783	93.79227
839.4225	91.24081
839.5667	87.85986
839.7109	86.8424
839.8551	93.88123
839.9993	91.17722
840.1434	90.46838
840.2876	91.05545
840.4317	86.48818
840.5759	90.24659
840.72	90.27873
840.8641	89.56107
841.0082	93.19502
841.1523	91.90516
841.2963	93.96532
841.4404	89.65932
841.5845	88.79968
841.7285	89.41412
841.8726	84.24903
842.0165	89.83664
842.1606	87.98071
842.3046	89.54355
842.4485	93.44675
842.5925	91.02384
842.7365	83.95151
842.8805	85.26884
843.0244	89.85856
843.1684	90.57812
843.3123	84.42862
843.4562	85.72766
843.6002	88.5388
843.744	81.79073
843.8879	80.02123
844.0318	86.14113
844.1757	82.74731
844.3195	86.42979
844.4634	86.75896
844.6072	82.17103
844.751	82.64922
844.8948	86.20696
845.0386	86.52597
845.1824	87.71584
845.3262	83.78699
845.47	83.27788
845.6138	84.12151
845.7575	87.89475
845.9012	87.17648
846.045	87.52299
846.1887	84.52379
846.3324	87.87913
846.4761	86.84252
846.6198	86.32623
846.7635	89.94076
846.9071	91.7422
847.0508	84.65314
847.1944	83.21524
847.3381	86.5473
847.4817	84.03127
847.6253	81.28001
847.7689	82.25681
847.9125	81.14105
848.0561	82.36588
848.1996	84.35423
848.3432	92.07111
848.4868	81.89429
848.6303	85.34614
848.7738	82.52578
848.9174	84.11349
849.0609	85.29859
849.2043	86.3448
849.3478	85.36777
849.4913	77.58524
849.6348	75.1994
849.7782	69.84557
849.9217	69.08599
850.0651	69.82104
850.2086	73.68795
850.3519	78.72334
850.4954	78.74411
850.6387	81.70623
850.7821	82.69335
850.9255	79.90343
851.0688	80.02618
851.2122	84.46577
851.3555	81.49677
851.4988	78.26361
851.6422	75.61616
851.7855	75.77162
851.9288	80.56291
852.0721	84.48418
852.2153	83.36214
852.3586	74.57825
852.5018	76.15661
852.6451	84.62151
852.7883	83.05138
852.9315	82.99484
853.0748	76.66675
853.218	76.46351
853.3611	79.42968
853.5043	78.60564
853.6475	74.43713
853.7906	69.30972
853.9338	69.89315
854.0769	70.229
854.22	62.21399
854.3632	59.6509
854.5063	60.00877
854.6494	61.95285
854.7924	65.7404
854.9355	71.16389
855.0786	76.40125
855.2216	76.26443
855.3647	79.60251
855.5077	80.01558
855.6507	79.56426
855.7937	78.43806
855.9367	71.27374
856.0797	79.37675
856.2227	72.89178
856.3657	72.93751
856.5086	74.41052
856.6516	76.91518
856.7945	82.49443
856.9374	76.16566
857.0803	75.57148
857.2232	79.30572
857.3661	74.90173
857.509	78.08958
857.6519	74.23579
857.7947	79.16672
857.9376	73.14064
858.0804	72.55877
858.2232	73.81958
858.366	74.30526
858.5089	74.23786
858.6516	73.7275
858.7944	76.58662
858.9372	77.12923
859.08	73.06841
859.2227	73.20729
859.3654	76.02515
859.5082	72.34171
859.6509	72.04704
859.7936	71.23683
859.9363	70.72747
860.079	64.55768
860.2217	73.16572
860.3643	75.03963
860.507	71.13107
860.6496	73.99568
860.7922	75.05504
860.9349	76.51334
861.0775	76.47898
861.2201	70.09547
861.3627	70.30917
861.5052	76.04188
861.6478	74.72879
861.7904	72.3662
861.9329	73.55552
862.0755	71.16483
862.218	72.02656
862.3605	73.49899
862.503	69.16344
862.6455	71.54601
862.788	71.47295
862.9305	73.33714
863.0729	69.89227
863.2154	69.57713
863.3578	64.26682
863.5002	67.79253
863.6426	70.22349
863.7851	68.56281
863.9275	68.67131
864.0698	73.24519
864.2122	71.62653
864.3546	68.55819
864.4969	73.03665
864.6393	68.81373
864.7816	67.69807
864.924	61.68672
865.0662	63.84839
865.2086	66.09608
865.3508	72.56499
865.4931	68.56074
865.6354	63.06134
865.7776	60.60096
865.9199	61.53053
866.0621	61.17755
866.2043	57.60182
866.3466	55.08553
866.4888	60.24307
866.6309	63.14433
866.7731	65.34126
866.9153	64.98379
867.0574	67.77399
867.1996	64.4274
867.3417	65.52515
867.4839	63.3415
867.626	67.01739
867.7681	61.67832
867.9102	64.17354
868.0522	62.38983
868.1943	60.57597
868.3364	62.35354
868.4785	66.39182
868.6205	66.33064
868.7625	66.26159
868.9045	63.12146
869.0465	64.99973
869.1885	66.436
869.3305	65.51414
869.4725	62.96722
869.6144	61.61739
869.7564	59.41578
869.8983	64.74026
870.0403	63.7459
870.1822	61.14368
870.3241	61.26491
870.466	68.54607
870.6079	64.65286
870.7498	65.01176
870.8916	63.50709
871.0335	62.28122
871.1754	64.87961
871.3171	59.27267
871.459	60.43187
871.6008	64.71612
871.7426	60.21358
871.8844	60.20876
872.0262	63.61063
872.1679	67.95458
872.3097	66.08181
872.4514	60.17467
872.5931	62.3785
872.7349	64.36394
872.8766	63.47546
873.0183	61.83603
873.16	64.7405
873.3017	63.65512
873.4434	65.0323
873.585	65.63645
873.7266	65.50017
873.8683	59.16814
874.0099	62.31795
874.1516	63.40925
874.2932	64.3749
874.4348	61.31869
874.5763	59.26938
874.7179	61.34627
874.8594	63.88712
875.001	58.16676
875.1425	61.32575
875.2841	56.08005
875.4256	57.30677
875.5671	58.63818
875.7086	64.60954
875.85	56.57679
875.9915	61.64793
876.133	58.74794
876.2744	54.80987
876.4159	59.56273
876.5573	57.15909
876.6987	56.49458
876.8401	57.59454
876.9815	54.98981
877.1229	57.61212
877.2643	57.60344
877.4056	58.77102
877.547	57.21909
877.6884	57.13097
877.8297	58.11051
877.971	54.56411
878.1123	58.02249
878.2536	62.28174
878.3949	61.53961
878.5362	62.54856
878.6774	55.66509
878.8187	58.1679
878.9599	57.01212
879.1011	54.1713
879.2424	57.1963
879.3836	58.34992
879.5248	54.89653
879.666	57.68895
879.8071	53.58365
879.9483	52.1221
880.0895	59.05754
880.2306	58.89266
880.3718	55.48911
880.5129	52.82837
880.654	56.77069
880.7951	50.39476
880.9362	53.85511
881.0773	56.86031
881.2183	58.99329
881.3594	55.67817
881.5004	57.96486
881.6414	56.83189
881.7825	57.05823
881.9235	57.54385
882.0645	53.90216
882.2054	56.73995
882.3464	56.46141
882.4874	53.52683
882.6284	52.10992
882.7693	51.77381
882.9103	60.5596
883.0512	55.80072
883.1921	54.30429
883.333	54.05386
883.4739	55.11499
883.6147	57.92626
883.7556	51.2114
883.8965	58.60112
884.0374	54.98527
884.1782	55.42461
884.319	49.80146
884.4598	48.47172
884.6006	51.93131
884.7414	50.89327
884.8822	56.7291
885.0229	56.05847
885.1637	57.09136
885.3044	55.5993
885.4452	55.85908
885.5859	55.89332
885.7266	51.06411
885.8673	53.77853
886.008	54.58641
886.1487	54.72824
886.2894	53.45484
886.43	56.14906
886.5707	53.05867
886.7113	50.45874
886.8519	50.25233
886.9926	49.47305
887.1331	50.8527
887.2737	50.00135
887.4143	52.72428
887.5549	52.24135
887.6954	54.32983
887.836	49.99895
887.9765	52.93876
888.1171	51.69135
888.2576	50.358
888.3981	47.1414
888.5386	52.61373
888.679	50.48361
888.8195	52.8667
888.96	54.45644
889.1004	51.63655
889.2408	54.17709
889.3813	48.0598
889.5217	47.95768
889.6621	49.62172
889.8025	54.30579
889.9429	54.99396
890.0833	50.58256
890.2236	50.60968
890.364	48.75798
890.5043	54.56027
890.6446	51.38832
890.7849	50.70996
890.9252	50.55601
891.0655	51.05834
891.2058	49.85891
891.3461	49.51872
891.4863	48.60506
891.6266	50.74622
891.7668	49.01352
891.907	54.05169
892.0472	52.00428
892.1874	53.65789
892.3276	49.68423
892.4678	44.7117
892.608	41.23651
892.7481	46.35578
892.8883	45.39184
893.0284	42.49525
893.1685	45.33619
893.3087	49.54085
893.4487	47.5098
893.5889	45.59653
893.7289	51.43144
893.869	48.39224
894.009	45.96374
894.1491	46.60011
894.2891	47.72047
894.4291	49.1009
894.5692	41.42563
894.7092	44.39241
894.8491	45.79782
894.9891	44.4402
895.1291	40.56776
895.269	42.15267
895.409	45.82127
895.549	41.09798
895.6888	42.0106
895.8288	42.33339
895.9687	43.01361
896.1086	50.75545
896.2484	41.03305
896.3883	35.66162
896.5281	36.56248
896.668	38.80781
896.8079	42.18992
896.9476	36.05974
897.0875	40.92162
897.2272	42.71511
897.3671	40.48419
897.5068	37.2809
897.6466	42.40722
897.7864	42.30564
897.9261	39.06586
898.0658	40.32676
898.2056	41.41216
898.3453	39.83957
898.4849	40.91247
898.6246	35.41493
898.7643	35.6249
898.904	27.99676
899.0436	25.35826
899.1833	30.45893
899.3229	37.28084
899.4625	35.66161
899.6021	41.19178
899.7417	43.80173
899.8813	40.70481
900.0209	37.8324
900.1605	31.39356
900.3	35.43894
900.4395	40.5696
900.579	34.99417
900.7186	33.25916
900.8581	37.07092
900.9976	42.86519
901.1371	35.24862
901.2766	37.37575
901.416	35.62566
901.5555	32.49831
901.6949	38.3847
901.8344	42.41525
901.9738	38.84612
902.1132	43.4784
902.2526	39.95296
902.3919	37.18716
902.5313	38.57714
902.6707	38.70893
