SPECTRUM DATA FILE
SpectrumCount:	1
PixelCount:	3648
UserName:	ToughBook User
SampleName:	
LightSource:	
Comments:	
DeviceName:	Qwave
DeviceManufacturer:	Broadcom
DeviceSerialNo:	11311

Name:	last spectrum
Date:	2024-05-02T14:52:14.5884268+02:00
ExposureTime:	0.02
TemporalAvg:	1
IntensityUnit:	normalizedCounts
CCDLoadLevel:	0.07402353
Temperature:	33.0318
DiagramColor:	200
ProcessingSteps:	335

Wavelength [nm]	Intensity1
334.421	20.72802
334.5891	23.82416
334.7573	20.21754
334.9254	17.56662
335.0935	23.86844
335.2616	23.19805
335.4297	20.53963
335.5978	19.43173
335.7659	20.15907
335.934	25.78242
336.1021	25.33814
336.2701	20.59406
336.4382	15.43099
336.6063	23.67996
336.7744	19.81548
336.9424	19.19356
337.1105	19.64122
337.2785	20.3642
337.4466	22.34586
337.6146	18.78752
337.7827	20.29599
337.9507	19.68342
338.1187	18.72194
338.2867	23.81447
338.4548	22.54575
338.6228	23.66747
338.7908	22.57235
338.9588	21.85627
339.1268	23.0552
339.2948	22.88863
339.4628	20.23147
339.6308	17.84838
339.7988	26.13032
339.9667	19.61175
340.1347	17.51965
340.3027	21.94139
340.4707	21.45967
340.6386	20.48697
340.8066	16.99314
340.9745	23.93708
341.1425	20.31972
341.3104	20.9297
341.4784	18.71438
341.6463	19.90179
341.8142	24.68632
341.9821	18.82305
342.1501	18.95344
342.318	21.48183
342.4859	24.95937
342.6538	27.0571
342.8217	20.78174
342.9896	22.65619
343.1575	24.94333
343.3254	25.86772
343.4933	25.14688
343.6612	22.07578
343.829	24.1865
343.9969	25.25449
344.1648	25.73323
344.3326	24.89174
344.5005	28.90294
344.6683	23.22779
344.8362	24.04552
345.004	24.45191
345.1719	24.0655
345.3397	29.52499
345.5075	29.0118
345.6754	23.85634
345.8432	23.10119
346.011	20.9342
346.1788	25.08665
346.3466	30.26392
346.5144	21.00699
346.6822	21.48034
346.85	25.20163
347.0178	23.66776
347.1856	21.90575
347.3534	22.76654
347.5211	23.56801
347.6889	23.72062
347.8567	27.09996
348.0244	21.87542
348.1922	17.76301
348.3599	18.5954
348.5277	19.87011
348.6954	22.29651
348.8632	24.55942
349.0309	25.15182
349.1986	23.08644
349.3663	21.67805
349.5341	22.09335
349.7018	18.90335
349.8695	24.3996
350.0372	21.56274
350.2049	20.01028
350.3726	19.39833
350.5403	22.0092
350.7079	21.49456
350.8756	22.1747
351.0433	21.83981
351.211	23.55837
351.3786	25.83599
351.5463	25.57853
351.714	20.63706
351.8816	19.12746
352.0493	22.55218
352.2169	24.3329
352.3846	24.48061
352.5522	23.67443
352.7198	22.09598
352.8875	24.05543
353.0551	18.26104
353.2227	23.8497
353.3903	31.2534
353.5579	24.32135
353.7255	24.57448
353.8931	25.49608
354.0607	27.71639
354.2283	30.48556
354.3958	27.26119
354.5634	25.38867
354.731	29.26441
354.8986	26.48853
355.0661	23.64354
355.2337	20.25826
355.4012	21.00084
355.5688	22.74218
355.7363	25.37974
355.9039	27.13267
356.0714	23.85884
356.239	23.52713
356.4065	18.73737
356.574	24.59268
356.7415	26.77992
356.909	31.211
357.0765	27.00335
357.244	23.79236
357.4115	25.11427
357.579	25.24408
357.7465	24.09665
357.914	23.19837
358.0815	21.45273
358.249	19.8702
358.4164	25.31119
358.5839	24.19553
358.7513	22.10608
358.9188	26.58913
359.0862	21.81879
359.2537	23.14526
359.4211	27.27837
359.5886	27.77308
359.756	24.24974
359.9234	26.9454
360.0909	23.58773
360.2583	25.14686
360.4257	24.73289
360.5931	27.82111
360.7605	24.90519
360.9279	23.71404
361.0953	20.98282
361.2627	20.45826
361.4301	22.94114
361.5974	24.79463
361.7648	25.59962
361.9322	31.15998
362.0995	27.32984
362.2669	27.33984
362.4343	28.80198
362.6016	27.24072
362.769	30.17298
362.9363	22.46524
363.1036	30.28287
363.271	29.1305
363.4383	27.35229
363.6056	24.43071
363.7729	28.22657
363.9402	24.05807
364.1075	22.14087
364.2748	32.61794
364.4421	29.53445
364.6094	29.44387
364.7767	29.0828
364.944	28.81882
365.1113	30.59193
365.2786	31.57959
365.4458	25.72826
365.6131	30.59494
365.7803	33.20262
365.9476	31.86686
366.1148	25.41609
366.2821	28.3686
366.4493	27.19674
366.6166	28.51597
366.7838	28.57067
366.951	28.05221
367.1182	30.30986
367.2855	28.19153
367.4527	24.78774
367.6199	29.0197
367.7871	26.70784
367.9543	25.87983
368.1215	29.98357
368.2886	25.9464
368.4558	30.68937
368.623	29.04402
368.7902	27.6543
368.9573	28.77466
369.1245	27.34179
369.2917	27.46395
369.4588	27.4171
369.6259	26.71794
369.7931	29.30769
369.9602	27.44604
370.1274	28.14524
370.2945	29.52597
370.4616	25.8682
370.6287	25.67346
370.7958	28.7759
370.963	28.99829
371.1301	31.12211
371.2971	27.99293
371.4643	27.91406
371.6313	29.16385
371.7984	29.05499
371.9655	29.97707
372.1326	28.23235
372.2997	30.48071
372.4667	31.71258
372.6338	30.03237
372.8008	32.63336
372.9679	33.74249
373.1349	32.90244
373.3019	33.81956
373.469	26.10181
373.636	29.30365
373.803	32.3659
373.9701	31.19868
374.1371	32.01474
374.3041	35.60684
374.4711	35.22046
374.6381	30.6065
374.8051	32.69053
374.9721	35.46342
375.1391	35.98711
375.3061	36.52128
375.473	32.27345
375.64	28.16006
375.8069	33.75387
375.9739	29.94415
376.1409	31.434
376.3078	32.82752
376.4748	34.12084
376.6417	30.94611
376.8087	29.80236
376.9756	30.83369
377.1425	31.60731
377.3094	33.89176
377.4763	32.61967
377.6432	35.98397
377.8102	32.19884
377.9771	31.71659
378.144	34.80573
378.3109	36.61883
378.4777	33.29642
378.6446	29.68143
378.8115	27.82174
378.9784	28.79688
379.1452	29.75735
379.3121	29.77887
379.4789	30.74023
379.6458	32.18178
379.8127	31.49433
379.9795	33.02857
380.1463	35.79518
380.3131	34.90453
380.48	29.9983
380.6468	30.02011
380.8136	30.52272
380.9804	31.73004
381.1472	29.07946
381.314	26.97352
381.4808	30.18919
381.6476	34.18561
381.8144	28.35649
381.9812	30.51779
382.148	33.62433
382.3147	33.37706
382.4815	31.05143
382.6483	34.23843
382.815	31.48379
382.9818	30.98001
383.1485	34.71692
383.3153	35.2219
383.482	30.48856
383.6487	30.52228
383.8155	34.88736
383.9822	33.66471
384.1489	31.36866
384.3156	37.09947
384.4823	30.15741
384.649	32.98531
384.8157	35.8696
384.9824	39.06578
385.1491	39.00119
385.3158	36.72961
385.4825	40.57061
385.6491	32.44427
385.8158	34.56178
385.9825	33.85831
386.1491	29.68064
386.3157	39.09942
386.4824	37.63853
386.649	36.78367
386.8157	38.56748
386.9823	39.8768
387.1489	36.04542
387.3156	33.55476
387.4821	37.51195
387.6488	39.93359
387.8154	35.76091
387.982	34.73645
388.1486	34.65459
388.3152	37.17799
388.4818	37.11529
388.6483	39.56308
388.8149	39.24083
388.9815	37.17384
389.148	34.88971
389.3146	39.10234
389.4811	35.78002
389.6477	36.80416
389.8142	41.37338
389.9808	42.42804
390.1473	43.54131
390.3138	40.43787
390.4804	37.42592
390.6469	36.71765
390.8134	38.18217
390.9799	39.83581
391.1464	38.12115
391.3129	38.38173
391.4794	36.11078
391.6459	37.4443
391.8124	34.19646
391.9789	40.0776
392.1453	37.73409
392.3118	37.72876
392.4782	38.99041
392.6447	39.01363
392.8112	35.78018
392.9776	32.89566
393.144	30.83462
393.3105	27.58166
393.4769	31.23412
393.6433	34.81178
393.8098	33.5136
393.9762	37.86881
394.1426	35.13715
394.309	39.91279
394.4754	37.74636
394.6418	39.925
394.8082	40.29876
394.9746	44.38391
395.141	42.0675
395.3073	38.63092
395.4737	38.3513
395.64	41.71655
395.8064	42.43723
395.9728	45.51348
396.1391	42.52798
396.3055	40.26299
396.4718	37.64259
396.6381	38.92364
396.8045	39.1524
396.9708	44.93612
397.1371	40.62312
397.3034	40.41463
397.4697	45.90231
397.636	42.50695
397.8023	44.13647
397.9686	41.92898
398.1349	47.28067
398.3012	48.63923
398.4675	55.30939
398.6337	48.34222
398.8	48.79232
398.9662	47.40685
399.1325	49.78517
399.2988	49.29092
399.465	48.27629
399.6313	50.51588
399.7975	51.77201
399.9637	46.56435
400.1299	43.98028
400.2961	45.82794
400.4624	46.44781
400.6286	43.85691
400.7948	51.56646
400.961	52.34454
401.1272	50.47089
401.2934	51.00823
401.4595	53.249
401.6257	49.61193
401.7919	53.14523
401.9581	51.79952
402.1242	52.7928
402.2904	50.6151
402.4565	50.52524
402.6227	54.066
402.7888	50.89473
402.955	46.71208
403.1211	48.30588
403.2872	43.13718
403.4533	51.21704
403.6194	49.66951
403.7856	51.63517
403.9517	48.2436
404.1177	49.51488
404.2838	49.34082
404.4499	44.61749
404.616	48.00406
404.7821	50.56789
404.9482	48.71633
405.1142	50.50946
405.2803	53.45197
405.4464	46.06524
405.6124	46.58507
405.7784	49.5629
405.9445	53.0751
406.1105	51.95965
406.2766	47.57076
406.4426	45.23895
406.6086	50.81513
406.7746	48.00468
406.9406	53.7024
407.1066	57.19886
407.2726	55.21878
407.4386	54.20908
407.6046	52.59793
407.7706	47.82068
407.9366	54.54819
408.1025	55.05992
408.2685	58.63433
408.4344	55.45435
408.6004	57.40908
408.7664	57.74467
408.9323	58.93235
409.0983	59.53092
409.2642	57.25591
409.4301	56.89196
409.596	59.44504
409.762	59.10696
409.9279	61.05246
410.0938	63.63811
410.2597	56.86948
410.4256	51.23821
410.5915	54.59765
410.7574	59.43269
410.9232	63.83135
411.0891	67.07289
411.255	64.87482
411.4209	61.97379
411.5867	67.55582
411.7526	66.82687
411.9184	59.2569
412.0843	59.59669
412.2501	64.71946
412.4159	64.16923
412.5818	64.45943
412.7476	67.38343
412.9134	63.14656
413.0792	63.10189
413.245	68.15038
413.4108	65.28379
413.5766	61.65368
413.7424	64.3764
413.9082	62.0266
414.074	60.96279
414.2397	64.87082
414.4055	64.49603
414.5713	66.52283
414.737	61.73433
414.9028	65.81647
415.0685	65.62168
415.2343	63.20901
415.4	64.0222
415.5658	63.91837
415.7315	66.93562
415.8972	66.28845
416.0629	67.98016
416.2286	70.19055
416.3943	72.01665
416.56	66.52122
416.7257	62.61739
416.8914	62.43812
417.0571	65.94931
417.2228	63.88364
417.3884	60.92846
417.5541	61.79831
417.7198	66.45157
417.8854	66.38301
418.0511	67.18474
418.2167	68.50953
418.3824	67.90358
418.548	64.01492
418.7136	67.30316
418.8792	66.1926
419.0449	68.83722
419.2105	64.77917
419.3761	66.15552
419.5417	63.88224
419.7073	65.09389
419.8729	63.82737
420.0385	61.23704
420.204	65.76306
420.3696	63.94421
420.5352	65.26996
420.7007	73.82178
420.8663	80.9622
421.0319	73.93974
421.1974	71.52245
421.3629	71.95663
421.5285	73.05782
421.694	69.10149
421.8595	68.7002
422.0251	69.39873
422.1906	68.97448
422.3561	68.46027
422.5216	64.17129
422.6871	72.87629
422.8526	71.28044
423.0181	75.69674
423.1835	76.57487
423.349	76.0677
423.5145	74.17326
423.68	73.90276
423.8454	69.69099
424.0109	71.72617
424.1763	77.11119
424.3418	80.84211
424.5072	79.07533
424.6726	76.67174
424.838	71.50747
425.0035	78.29812
425.1689	76.77615
425.3343	74.71973
425.4997	78.22948
425.6651	82.54158
425.8305	81.30096
425.9959	74.51821
426.1613	76.23269
426.3267	74.57491
426.492	79.9058
426.6574	80.73222
426.8228	72.50797
426.9881	72.91334
427.1534	74.72871
427.3188	76.42847
427.4841	75.59541
427.6495	82.2347
427.8148	82.73429
427.9801	85.28033
428.1454	84.98362
428.3107	78.01022
428.476	73.74456
428.6414	76.55743
428.8066	76.66551
428.9719	73.21676
429.1372	79.0863
429.3025	75.90216
429.4678	74.60056
429.633	73.60123
429.7983	72.70011
429.9636	71.35896
430.1288	70.56951
430.294	72.24898
430.4593	72.98143
430.6245	68.40306
430.7897	69.65543
430.955	66.0041
431.1202	71.69543
431.2854	68.27738
431.4506	77.90145
431.6158	85.68648
431.781	83.44891
431.9462	82.63347
432.1114	82.74564
432.2766	80.7366
432.4417	73.50813
432.6069	71.04604
432.772	75.79963
432.9372	82.97801
433.1024	85.67465
433.2675	80.86122
433.4326	86.8007
433.5977	78.06819
433.7629	78.26732
433.928	71.62801
434.0931	70.09734
434.2582	72.72869
434.4233	80.08361
434.5884	85.69191
434.7535	87.30234
434.9186	89.6021
435.0837	86.79739
435.2488	82.20254
435.4138	79.96677
435.5789	88.59933
435.744	90.31367
435.909	83.40431
436.0741	94.5054
436.2391	91.89037
436.4042	95.69415
436.5692	96.13572
436.7342	93.94775
436.8992	94.78442
437.0643	96.07299
437.2293	93.00841
437.3943	91.08086
437.5593	93.8482
437.7243	87.00899
437.8893	92.32327
438.0542	93.42621
438.2192	88.80298
438.3842	79.07068
438.5491	85.26866
438.7141	90.85529
438.8791	92.14614
439.044	95.89225
439.209	96.53036
439.3739	94.20824
439.5388	96.51373
439.7037	99.51597
439.8687	101.0301
440.0336	99.23772
440.1985	96.73949
440.3634	89.15583
440.5283	90.42077
440.6932	95.9254
440.8581	96.29706
441.0229	106.555
441.1878	111.9558
441.3527	107.1911
441.5175	99.52731
441.6824	103.6615
441.8472	105.2439
442.0121	106.4475
442.1769	102.4139
442.3418	101.5618
442.5066	110.3335
442.6714	105.91
442.8362	106.5216
443.001	106.7164
443.1659	111.0289
443.3307	100.9562
443.4955	95.33619
443.6602	99.74226
443.825	108.3916
443.9898	109.3124
444.1546	101.6382
444.3193	96.00201
444.4841	108.4372
444.6488	108.359
444.8136	110.3329
444.9783	107.5065
445.1431	107.4418
445.3078	103.3206
445.4725	100.2623
445.6372	98.53488
445.802	102.7303
445.9667	98.50726
446.1314	99.47237
446.2961	100.3613
446.4608	105.6296
446.6255	99.8672
446.7901	103.9261
446.9548	104.7711
447.1195	105.4367
447.2841	104.7683
447.4488	112.3358
447.6134	115.2708
447.7781	112.5195
447.9427	103.0723
448.1074	102.3098
448.272	103.7731
448.4366	110.2323
448.6012	111.1527
448.7658	111.5053
448.9305	108.1852
449.095	107.4534
449.2596	116.4693
449.4242	113.4914
449.5888	116.4896
449.7534	110.0979
449.9179	111.8486
450.0825	113.9169
450.2471	115.8402
450.4116	116.5036
450.5762	115.0597
450.7407	118.4106
450.9052	122.0542
451.0698	119.1947
451.2343	117.3572
451.3988	115.1679
451.5633	116.9243
451.7278	115.9966
451.8923	113.4882
452.0568	117.6224
452.2213	121.3715
452.3858	119.7014
452.5503	119.8555
452.7148	112.7436
452.8792	106.3161
453.0437	109.9647
453.2081	114.697
453.3726	119.1623
453.537	117.6217
453.7015	119.8502
453.8659	120.3989
454.0303	126.2306
454.1947	127.8871
454.3592	120.1834
454.5236	123.7761
454.688	122.2004
454.8524	122.3765
455.0168	121.3948
455.1811	124.5687
455.3455	123.1398
455.5099	128.2074
455.6743	124.167
455.8386	129.7654
456.003	128.5297
456.1673	127.8263
456.3317	120.7446
456.496	125.3351
456.6603	123.9373
456.8246	130.211
456.989	126.4498
457.1533	136.0926
457.3176	134.3495
457.4819	127.5238
457.6462	123.7641
457.8105	125.623
457.9748	121.9223
458.1391	126.5339
458.3033	125.9646
458.4676	125.969
458.6319	124.1273
458.7961	125.3388
458.9604	130.2
459.1246	130.7931
459.2888	133.5359
459.4531	132.6594
459.6173	130.1489
459.7815	128.7883
459.9457	127.9057
460.11	132.1248
460.2741	131.9589
460.4384	123.8127
460.6025	131.7342
460.7667	130.5942
460.9309	130.1344
461.0951	128.8679
461.2592	130.3719
461.4234	131.5519
461.5876	129.7256
461.7517	134.1859
461.9159	129.9817
462.08	123.1087
462.2441	129.7314
462.4082	129.0075
462.5724	125.9672
462.7365	130.4791
462.9006	134.3473
463.0647	132.5056
463.2288	135.5597
463.3929	134.3275
463.557	131.5712
463.721	128.58
463.8851	124.1786
464.0492	125.7585
464.2132	133.5072
464.3773	126.2796
464.5414	124.9702
464.7054	128.1449
464.8694	123.6603
465.0334	133.9331
465.1975	134.638
465.3615	135.2985
465.5255	134.7068
465.6895	134.1313
465.8535	136.8685
466.0175	134.0901
466.1815	135.4087
466.3455	134.9167
466.5095	131.1057
466.6734	124.5512
466.8374	122.0462
467.0014	129.1653
467.1653	135.9142
467.3293	131.5831
467.4932	126.8959
467.6571	133.6207
467.8211	133.1957
467.985	130.0905
468.1489	128.0805
468.3128	130.9347
468.4767	133.5989
468.6406	135.2853
468.8045	136.2589
468.9684	141.1042
469.1323	140.2188
469.2962	131.0862
469.46	134.9613
469.6239	136.2208
469.7878	130.8104
469.9516	131.909
470.1154	127.8121
470.2793	133.1387
470.4431	133.5934
470.607	132.7162
470.7708	133.3252
470.9346	132.3078
471.0984	130.8044
471.2622	136.3279
471.426	142.4748
471.5898	141.8657
471.7536	141.5044
471.9174	144.8737
472.0811	146.6219
472.2449	146.252
472.4087	146.9093
472.5724	145.221
472.7362	139.664
472.8999	137.9358
473.0637	132.3695
473.2274	136.0659
473.3911	140.9125
473.5548	145.8852
473.7185	150.0043
473.8822	141.0249
474.0459	140.9596
474.2096	143.6173
474.3733	143.3354
474.537	147.1238
474.7007	148.9436
474.8643	147.0926
475.028	140.9756
475.1917	145.3838
475.3553	135.4095
475.519	138.3002
475.6826	145.8582
475.8463	141.2566
476.0099	138.6034
476.1735	138.9217
476.3371	135.9389
476.5007	139.4052
476.6643	140.1313
476.8279	145.8712
476.9915	143.883
477.1551	143.4205
477.3187	144.7275
477.4823	147.9185
477.6458	144.6586
477.8094	147.3204
477.9729	147.7514
478.1365	148.9046
478.3	143.5003
478.4636	146.3833
478.6271	147.3551
478.7906	140.1684
478.9541	138.6284
479.1176	136.5734
479.2812	142.8112
479.4447	148.7335
479.6082	152.6543
479.7716	146.4423
479.9351	144.8097
480.0986	143.211
480.2621	147.9411
480.4255	141.8932
480.589	143.5245
480.7524	142.8359
480.9159	139.0165
481.0793	145.8864
481.2428	144.9232
481.4062	151.7005
481.5696	150.3343
481.733	149.6665
481.8964	147.2133
482.0598	150.8946
482.2232	151.2379
482.3866	143.4767
482.55	140.2712
482.7134	141.0038
482.8768	140.7511
483.0401	142.7961
483.2035	146.4723
483.3668	143.9448
483.5302	147.4532
483.6935	142.9135
483.8568	141.8614
484.0202	137.3118
484.1835	138.8284
484.3468	141.5041
484.5101	146.0811
484.6734	147.0724
484.8367	150.1812
485	148.1642
485.1633	153.5482
485.3266	151.0655
485.4899	139.3115
485.6531	138.6698
485.8164	128.6138
485.9796	125.6934
486.1429	127.895
486.3061	126.8125
486.4694	127.7123
486.6326	136.071
486.7958	141.1666
486.959	140.5236
487.1223	138.0473
487.2855	144.7442
487.4486	144.598
487.6118	144.682
487.775	149.8113
487.9382	150.0364
488.1014	151.9997
488.2646	156.5916
488.4277	151.0738
488.5909	147.1766
488.754	144.5866
488.9171	144.4739
489.0803	142.8065
489.2434	148.098
489.4066	154.1991
489.5697	159.307
489.7328	157.868
489.8959	156.3792
490.059	158.1492
490.2221	157.0697
490.3852	154.4827
490.5482	158.1991
490.7113	161.3538
490.8744	155.6864
491.0374	151.6956
491.2005	150.9503
491.3636	156.5435
491.5266	162.4918
491.6896	152.3649
491.8527	154.5986
492.0157	150.2874
492.1787	154.2632
492.3417	155.5437
492.5047	155.1858
492.6677	154.5199
492.8307	161.8397
492.9937	159.7399
493.1567	158.642
493.3196	159.2977
493.4826	157.6098
493.6456	157.1501
493.8085	158.5141
493.9715	154.2856
494.1344	155.0379
494.2974	163.3633
494.4603	161.3943
494.6232	160.5353
494.7861	166.8798
494.949	161.1167
495.1119	169.6939
495.2748	163.2014
495.4377	162.7798
495.6006	161.5319
495.7635	162.7703
495.9264	164.9581
496.0892	162.616
496.2521	165.3067
496.4149	167.3395
496.5778	168.7161
496.7407	163.8075
496.9035	159.9508
497.0663	164.7693
497.2291	165.7188
497.3919	171.0537
497.5547	163.3223
497.7176	165.0373
497.8804	168.7336
498.0432	160.7635
498.2059	154.1636
498.3687	155.0325
498.5315	155.2067
498.6942	165.9136
498.857	165.8498
499.0198	171.1838
499.1825	166.9372
499.3452	162.1925
499.508	165.0573
499.6707	170.7776
499.8334	169.3861
499.9962	166.0505
500.1589	160.5754
500.3216	164.0646
500.4843	165.3764
500.6469	167.9328
500.8096	166.8844
500.9723	162.2783
501.135	169.9292
501.2976	166.3807
501.4603	162.1887
501.623	170.417
501.7856	172.6174
501.9482	167.5304
502.1109	171.9762
502.2735	171.2578
502.4361	166.834
502.5987	172.879
502.7614	168.5669
502.924	169.0981
503.0865	173.0595
503.2491	186.5466
503.4117	178.0049
503.5743	174.1546
503.7368	173.804
503.8994	175.2761
504.062	167.67
504.2245	165.7954
504.3871	168.1727
504.5496	176.7651
504.7121	181.5812
504.8746	183.4927
505.0372	182.7774
505.1997	180.7598
505.3622	184.0553
505.5247	185.64
505.6872	189.1823
505.8497	189.1506
506.0121	195.9541
506.1746	191.3132
506.3371	189.4386
506.4995	189.0845
506.662	179.6467
506.8244	187.6817
506.9869	192.3424
507.1493	191.079
507.3117	190.0176
507.4742	192.8772
507.6366	193.5216
507.799	193.7909
507.9614	186.1211
508.1238	179.4843
508.2862	184.0717
508.4485	193.9474
508.6109	200.2773
508.7733	201.033
508.9357	203.3687
509.098	206.8913
509.2604	203.9711
509.4227	204.0799
509.5851	204.277
509.7474	201.2364
509.9097	191.8577
510.072	198.2935
510.2343	193.2131
510.3966	206.1405
510.5589	207.4007
510.7212	205.0396
510.8835	196.4562
511.0458	204.074
511.2081	207.3519
511.3703	211.4777
511.5326	211.4914
511.6949	206.8469
511.8571	216.9301
512.0193	219.202
512.1816	213.4763
512.3438	206.5895
512.506	205.1726
512.6682	200.3985
512.8304	207.9781
512.9926	208.4487
513.1548	214.2602
513.317	215.6571
513.4792	214.6581
513.6414	214.0602
513.8035	207.5053
513.9657	209.2695
514.1279	207.675
514.29	209.2963
514.4521	213.6153
514.6143	216.8572
514.7764	213.8117
514.9385	216.7829
515.1006	225.8131
515.2628	225.4161
515.4249	221.2998
515.587	219.2348
515.7491	217.7426
515.9111	223.1078
516.0732	226.8539
516.2353	224.0329
516.3973	217.5313
516.5594	206.288
516.7214	199.9142
516.8835	198.2357
517.0455	204.7113
517.2076	207.9348
517.3696	207.8204
517.5316	219.2364
517.6937	229.7065
517.8557	233.9321
518.0176	236.2828
518.1796	223.5359
518.3416	203.1759
518.5036	196.3996
518.6656	209.7464
518.8275	223.3465
518.9895	231.2396
519.1514	238.5568
519.3134	231.6855
519.4753	226.6693
519.6373	235.3913
519.7992	240.3662
519.9611	250.8177
520.123	249.5261
520.2849	251.0985
520.4468	240.1864
520.6087	239.7666
520.7706	240.0159
520.9325	252.3394
521.0944	263.6465
521.2562	264.64
521.4181	256.8324
521.58	246.8224
521.7418	246.9073
521.9036	258.89
522.0655	264.6539
522.2273	261.9567
522.3891	261.0847
522.551	253.5273
522.7128	252.0841
522.8746	251.2607
523.0363	252.0154
523.1981	261.3371
523.3599	263.8952
523.5217	260.931
523.6835	270.9752
523.8452	274.4143
524.007	274.279
524.1687	282.3181
524.3304	280.1642
524.4922	279.4213
524.6539	278.7154
524.8157	282.5555
524.9774	272.7515
525.1391	272.6661
525.3008	274.7151
525.4625	280.7909
525.6241	293.5877
525.7858	293.804
525.9475	293.4873
526.1092	292.0629
526.2709	281.1877
526.4325	268.0637
526.5942	260.9912
526.7558	266.6313
526.9174	261.0443
527.079	266.3349
527.2407	273.3136
527.4023	284.8562
527.5639	284.4548
527.7255	289.0037
527.8871	303.9334
528.0487	303.2859
528.2103	298.5976
528.3718	297.596
528.5334	302.9791
528.695	301.0371
528.8565	313.3203
529.0181	318.705
529.1796	327.1903
529.3412	320.2633
529.5027	317.8502
529.6642	308.0794
529.8257	303.812
529.9872	303.2335
530.1487	303.6353
530.3102	319.3514
530.4717	321.9804
530.6332	324.1536
530.7947	321.2761
530.9562	316.5495
531.1176	323.7726
531.2791	333.8974
531.4405	327.8009
531.6019	327.1627
531.7634	319.6105
531.9248	319.053
532.0862	314.9187
532.2477	315.2127
532.4091	314.8235
532.5704	309.1021
532.7319	303.1134
532.8932	291.1307
533.0546	306.5365
533.216	319.2899
533.3774	336.1087
533.5388	335.9806
533.7001	326.3356
533.8615	310.6971
534.0228	313.4566
534.1841	308.5428
534.3455	322.1499
534.5068	327.7873
534.6681	327.0998
534.8293	326.7197
534.9907	323.1658
535.152	329.1793
535.3132	335.9018
535.4745	339.9896
535.6358	337.1706
535.7971	343.5735
535.9583	332.2692
536.1196	333.5284
536.2808	335.78
536.4421	331.1612
536.6033	316.0725
536.7645	319.1173
536.9258	317.8464
537.087	317.354
537.2482	314.4533
537.4094	323.4077
537.5706	327.6838
537.7318	326.8211
537.8929	328.4806
538.0541	328.343
538.2153	332.5401
538.3764	324.7543
538.5376	327.8483
538.6987	326.4986
538.8599	323.0157
539.021	330.6142
539.1821	321.5658
539.3432	315.6121
539.5043	320.7512
539.6655	320.0576
539.8265	321.573
539.9876	320.8803
540.1487	317.4167
540.3098	320.2195
540.4708	313.2454
540.6319	311.1086
540.793	313.2416
540.954	322.2763
541.1151	329.135
541.2761	320.9582
541.4371	330.2524
541.5981	328.2894
541.7592	333.3185
541.9202	329.2817
542.0812	336.0374
542.2422	342.6096
542.4031	333.3761
542.5641	319.7506
542.7251	326.4221
542.886	320.9321
543.0471	323.3574
543.208	330.6467
543.369	331.3652
543.5298	324.0226
543.6908	322.1046
543.8517	335.0737
544.0126	341.9431
544.1736	334.6986
544.3345	333.606
544.4954	332.8831
544.6563	325.2825
544.8171	328.0609
544.978	327.184
545.1389	340.0435
545.2997	335.1786
545.4606	327.1104
545.6215	328.2397
545.7823	337.2057
545.9432	342.8253
546.104	338.0132
546.2648	336.5984
546.4256	327.3244
546.5864	334.2487
546.7473	334.9553
546.908	335.016
547.0688	335.8757
547.2296	335.6075
547.3904	328.9467
547.5511	321.4335
547.7119	317.1633
547.8727	327.733
548.0334	330.3347
548.1942	334.9198
548.3549	334.1313
548.5156	332.827
548.6763	337.4639
548.837	339.6897
548.9977	334.5098
549.1584	331.3274
549.3192	334.6548
549.4798	346.6104
549.6405	339.0557
549.8011	332.8045
549.9619	329.5424
550.1225	333.8033
550.2831	324.7407
550.4438	328.3802
550.6044	333.0491
550.765	331.4303
550.9257	338.6262
551.0863	332.0423
551.2469	342.5312
551.4075	337.8141
551.5681	338.3829
551.7287	343.6188
551.8893	346.2171
552.0498	350.2159
552.2104	347.3444
552.371	343.5325
552.5315	345.3637
552.6921	333.0564
552.8526	333.7227
553.0131	327.4491
553.1736	329.2387
553.3342	342.2202
553.4947	348.3672
553.6552	341.8157
553.8157	340.2844
553.9762	342.8607
554.1367	342.4597
554.2971	339.5262
554.4576	335.1671
554.618	335.9129
554.7785	340.7795
554.939	343.8664
555.0994	340.7533
555.2598	344.729
555.4203	345.7595
555.5807	342.8634
555.7411	339.5149
555.9015	346.131
556.0619	333.731
556.2223	330.8978
556.3827	325.9164
556.5431	323.2099
556.7034	325.8884
556.8638	323.4438
557.0242	330.1779
557.1845	323.8647
557.3448	320.8415
557.5052	325.4902
557.6655	330.5179
557.8259	332.6
557.9861	330.2974
558.1465	335.1726
558.3068	337.8939
558.467	322.2944
558.6274	312.7843
558.7877	309.4001
558.9479	311.2225
559.1082	317.5709
559.2684	311.6121
559.4287	306.4959
559.5889	311.0295
559.7491	319.6687
559.9094	318.2293
560.0696	312.4924
560.2299	307.8151
560.3901	319.5638
560.5502	323.8725
560.7104	328.6152
560.8707	327.8773
561.0308	333.487
561.191	329.486
561.3511	325.2715
561.5114	314.7682
561.6714	307.4492
561.8316	314.0036
561.9918	313.4723
562.1519	318.1196
562.312	311.0009
562.4722	311.8341
562.6323	306.7173
562.7924	315.0343
562.9525	320.4269
563.1125	320.6521
563.2726	315.6386
563.4327	311.3773
563.5928	319.4514
563.7528	310.8509
563.9129	302.1536
564.0729	302.5683
564.233	299.4247
564.393	307.6779
564.553	304.8844
564.7131	305.494
564.873	309.1948
565.0331	306.2987
565.1931	305.5837
565.353	308.8653
565.5131	308.392
565.673	298.3243
565.833	291.6695
565.9929	296.7555
566.1529	297.1568
566.3129	288.2303
566.4728	289.2925
566.6328	287.8843
566.7927	289.5213
566.9526	294.046
567.1125	298.8072
567.2724	295.5771
567.4323	304.1075
567.5922	297.0909
567.7521	292.3952
567.9119	293.6203
568.0718	295.9359
568.2317	289.7919
568.3915	287.4589
568.5514	279.738
568.7112	278.9323
568.871	277.55
569.0309	286.2574
569.1907	291.89
569.3505	292.394
569.5103	290.4576
569.6701	289.2615
569.8299	288.2728
569.9897	287.0085
570.1495	281.2625
570.3092	279.1385
570.469	280.4136
570.6287	275.9931
570.7885	269.2751
570.9482	276.4793
571.108	270.1481
571.2677	263.6382
571.4274	265.187
571.5871	274.3007
571.7468	277.1984
571.9066	286.7793
572.0662	280.9863
572.2259	278.9649
572.3856	280.7058
572.5452	278.9711
572.7049	278.7097
572.8646	278.5171
573.0242	279.3405
573.1838	281.8616
573.3435	280.619
573.5031	273.4306
573.6627	269.9735
573.8223	284.4827
573.9819	280.0507
574.1415	272.1776
574.3011	281.1638
574.4607	277.9231
574.6203	272.8301
574.7798	273.5172
574.9394	274.3485
575.099	270.4987
575.2585	270.6731
575.418	268.4504
575.5776	268.4273
575.7371	268.1928
575.8966	270.2429
576.0562	273.3817
576.2156	260.5389
576.3751	267.7968
576.5346	267.5472
576.6941	268.8518
576.8536	271.9449
577.0131	266.709
577.1725	265.7474
577.332	262.425
577.4914	260.9225
577.6508	261.3421
577.8103	251.9565
577.9697	253.9354
578.1291	255.267
578.2885	258.8112
578.4479	256.0101
578.6073	250.8575
578.7667	253.9872
578.9261	255.057
579.0854	256.9171
579.2448	258.446
579.4042	256.5922
579.5635	255.3009
579.7229	247.6614
579.8822	255.8123
580.0416	256.6585
580.2009	251.5658
580.3602	252.7322
580.5195	248.0018
580.6788	247.7651
580.8381	258.8918
580.9974	251.4801
581.1566	254.1601
581.3159	254.455
581.4752	253.5726
581.6345	263.553
581.7937	250.001
581.9529	251.2609
582.1122	249.5165
582.2714	241.4547
582.4306	249.2884
582.5898	249.7412
582.749	249.2711
582.9082	249.367
583.0674	241.2579
583.2266	243.4608
583.3857	247.0682
583.5449	246.3363
583.7041	244.3901
583.8633	246.2391
584.0224	247.1921
584.1815	246.088
584.3407	244.7044
584.4998	250.9915
584.6589	239.4551
584.818	241.4433
584.9771	235.6246
585.1362	240.7478
585.2953	238.7119
585.4544	234.4717
585.6135	233.0934
585.7725	233.3944
585.9316	237.8144
586.0906	236.0712
586.2497	235.7988
586.4087	240.2287
586.5677	232.2153
586.7267	232.7815
586.8858	234.4116
587.0448	239.1943
587.2038	231.1487
587.3628	234.9697
587.5218	238.648
587.6807	239.9555
587.8397	223.0191
587.9987	223.2508
588.1577	233.8261
588.3166	232.3953
588.4755	233.7098
588.6345	225.1503
588.7934	218.1132
588.9523	219.5685
589.1112	216.1522
589.2701	216.2095
589.429	223.328
589.5879	212.7333
589.7468	214.3537
589.9056	216.0066
590.0645	223.2525
590.2234	222.6119
590.3822	220.3882
590.5411	226.2876
590.6999	218.9964
590.8588	230.985
591.0176	229.3226
591.1764	223.2011
591.3352	221.3489
591.494	224.1212
591.6528	215.7505
591.8116	221.1069
591.9703	223.2042
592.1291	213.4112
592.2878	221.4127
592.4467	224.162
592.6053	227.006
592.7641	218.413
592.9229	213.0238
593.0816	216.1674
593.2403	218.2153
593.399	214.7037
593.5577	221.1429
593.7164	223.2565
593.8751	218.2144
594.0338	220.6604
594.1924	219.9272
594.3511	220.5364
594.5098	223.4362
594.6684	219.9461
594.8271	217.3559
594.9857	212.7399
595.1443	213.854
595.303	220.1241
595.4615	214.771
595.6202	215.0524
595.7787	220.6448
595.9374	220.3491
596.0959	223.3818
596.2545	221.785
596.4131	216.6713
596.5717	214.0117
596.7302	220.1084
596.8887	225.4654
597.0473	224.788
597.2058	214.0666
597.3644	219.7601
597.5229	221.4142
597.6814	221.8228
597.8399	222.7843
597.9984	223.3214
598.1569	218.6886
598.3154	218.7105
598.4738	220.9151
598.6323	228.1593
598.7908	219.6716
598.9492	217.8298
599.1076	223.4922
599.2661	223.7773
599.4245	211.659
599.5829	213.6303
599.7413	219.5792
599.8997	220.0531
600.0581	217.8802
600.2165	213.1398
600.3749	217.6925
600.5333	212.7462
600.6917	217.5028
600.85	212.3422
601.0084	214.8411
601.1667	214.9808
601.325	216.9881
601.4833	220.6379
601.6417	223.1731
601.8	225.2739
601.9583	218.5872
602.1166	218.5991
602.2749	209.6108
602.4332	204.9043
602.5914	210.5016
602.7498	211.3074
602.908	210.353
603.0662	216.9566
603.2245	212.3617
603.3828	212.7016
603.541	211.0071
603.6992	216.9353
603.8574	212.3247
604.0156	214.5723
604.1738	213.4244
604.332	205.8428
604.4902	203.2684
604.6484	211.9951
604.8065	208.2254
604.9647	207.516
605.1229	202.4426
605.281	215.093
605.4391	210.3838
605.5973	210.3632
605.7554	210.3272
605.9135	211.6932
606.0717	214.5178
606.2297	208.0798
606.3878	205.1665
606.5459	206.8779
606.704	200.617
606.8621	198.21
607.0201	204.6091
607.1782	206.3754
607.3362	210.7913
607.4943	217.3172
607.6523	212.6348
607.8104	209.4959
607.9684	206.0467
608.1264	210.7993
608.2844	200.2545
608.4424	205.8305
608.6003	206.3904
608.7584	204.2485
608.9163	200.2124
609.0743	197.7571
609.2322	203.3119
609.3902	206.4523
609.5482	204.587
609.7061	203.9127
609.864	204.549
610.0219	203.5779
610.1798	199.4111
610.3377	197.2178
610.4956	192.3666
610.6535	198.0479
610.8114	203.7362
610.9693	200.2526
611.1271	198.7161
611.285	200.8755
611.4429	201.8313
611.6007	204.3231
611.7585	202.606
611.9164	199.172
612.0742	200.41
612.232	194.1734
612.3898	200.4258
612.5476	200.3799
612.7054	200.7285
612.8632	201.955
613.0209	199.132
613.1787	202.8205
613.3365	198.0419
613.4942	190.3689
613.652	189.0682
613.8097	188.86
613.9674	188.5615
614.1252	187.502
614.2829	192.8041
614.4406	189.7815
614.5983	187.8839
614.756	191.046
614.9136	189.9908
615.0714	191.89
615.229	191.3082
615.3867	188.6858
615.5443	193.2341
615.702	190.7168
615.8596	185.1661
616.0172	189.3963
616.1748	188.7646
616.3325	181.6393
616.4901	184.376
616.6476	187.9998
616.8052	187.4502
616.9628	185.9951
617.1204	186.6778
617.278	181.0639
617.4355	189.0853
617.5931	191.6217
617.7506	188.9173
617.9081	190.4389
618.0657	185.4588
618.2232	195.5507
618.3807	185.3596
618.5382	183.5746
618.6957	182.9272
618.8532	185.9904
619.0107	177.16
619.1682	181.9186
619.3256	181.0034
619.4831	185.6104
619.6406	177.0775
619.798	187.8622
619.9554	185.025
620.1129	190.9978
620.2703	185.4252
620.4277	190.2113
620.5851	190.3831
620.7425	184.6657
620.8998	180.5257
621.0573	184.8843
621.2146	179.8707
621.372	185.7016
621.5294	178.8681
621.6867	179.9607
621.8441	174.639
622.0013	174.1718
622.1587	179.8161
622.316	182.4834
622.4733	187.3226
622.6306	184.9706
622.7879	185.4373
622.9452	184.4999
623.1025	178.5203
623.2598	180.3632
623.4171	181.6379
623.5743	184.1895
623.7316	181.7233
623.8888	173.065
624.046	176.4212
624.2032	174.3557
624.3605	177.5739
624.5176	175.6609
624.6749	178.1804
624.8321	179.1829
624.9893	175.2047
625.1464	176.4456
625.3036	178.2403
625.4608	181.0536
625.6179	172.1425
625.7751	172.1686
625.9322	178.9238
626.0894	172.4546
626.2465	178.1236
626.4036	179.3817
626.5607	174.2434
626.7178	176.9087
626.8749	172.3992
627.032	180.4014
627.189	177.027
627.3461	176.8456
627.5032	178.0139
627.6602	171.6795
627.8173	169.4261
627.9743	172.4224
628.1313	171.0517
628.2884	173.0241
628.4454	170.9025
628.6024	175.4761
628.7594	175.6938
628.9164	174.8395
629.0734	178.1216
629.2303	171.1659
629.3873	167.7895
629.5443	167.7118
629.7012	161.4196
629.8582	166.8309
630.0151	168.2901
630.172	165.6019
630.3289	164.9489
630.4858	167.3984
630.6428	165.408
630.7996	172.1901
630.9565	171.3998
631.1134	171.8618
631.2703	174.8008
631.4272	176.8142
631.584	170.583
631.7408	167.4099
631.8977	164.7277
632.0546	167.2379
632.2114	172.4972
632.3682	170.9266
632.525	168.103
632.6818	169.48
632.8386	164.6709
632.9954	171.4139
633.1522	171.4735
633.3089	166.6501
633.4657	171.6892
633.6224	171.4433
633.7792	170.3107
633.9359	171.1761
634.0927	169.4845
634.2494	171.8926
634.4061	170.3678
634.5628	172.8562
634.7195	169.3489
634.8762	170.2379
635.0329	169.5541
635.1895	174.1441
635.3462	175.8237
635.5029	170.768
635.6595	165.4345
635.8162	170.4055
635.9728	169.2291
636.1295	168.5707
636.2861	166.3545
636.4427	169.6516
636.5992	163.8631
636.7559	164.6091
636.9124	161.7198
637.069	170.923
637.2256	172.347
637.3821	168.2967
637.5387	171.9243
637.6953	170.343
637.8518	169.0384
638.0084	165.1014
638.1649	160.858
638.3214	163.3784
638.4779	160.0251
638.6344	168.4535
638.7909	171.9001
638.9474	169.083
639.1038	160.2132
639.2603	160.6556
639.4167	166.5833
639.5732	164.0255
639.7297	160.7876
639.8861	159.1174
640.0425	157.77
640.199	163.4275
640.3553	165.0483
640.5118	166.4484
640.6682	153.6823
640.8245	161.4406
640.981	161.0023
641.1373	159.328
641.2936	154.0875
641.45	156.9402
641.6064	163.0133
641.7627	164.0178
641.9191	163.1019
642.0754	157.067
642.2317	153.5471
642.388	156.3005
642.5443	162.6221
642.7006	166.6411
642.8569	162.7695
643.0131	154.8731
643.1694	154.2221
643.3257	158.2012
643.4819	157.6517
643.6382	154.9005
643.7944	152.7396
643.9506	146.5648
644.1069	145.1957
644.2631	156.1926
644.4193	159.2547
644.5754	154.6417
644.7316	152.4869
644.8878	148.772
645.044	152.3249
645.2002	155.017
645.3563	154.6622
645.5125	154.6472
645.6686	151.7923
645.8248	148.4552
645.9809	152.7311
646.137	153.015
646.2931	151.6978
646.4492	147.3501
646.6053	148.825
646.7614	146.2079
646.9174	149.6604
647.0735	145.2087
647.2296	143.9619
647.3856	146.9671
647.5417	146.9125
647.6977	146.9105
647.8537	146.264
648.0098	147.0448
648.1658	146.3338
648.3218	147.6318
648.4777	148.1049
648.6337	149.44
648.7897	144.8736
648.9457	151.0855
649.1016	143.163
649.2576	134.8953
649.4135	138.412
649.5695	136.9304
649.7254	134.0253
649.8813	138.7081
650.0372	144.2335
650.1932	141.6143
650.3491	142.5332
650.5049	143.7406
650.6608	141.8063
650.8167	147.3786
650.9725	138.0803
651.1284	140.9068
651.2842	147.2786
651.4401	146.0755
651.5959	145.4855
651.7518	145.8232
651.9076	138.5765
652.0634	141.1435
652.2192	145.6306
652.3749	143.3619
652.5308	142.9032
652.6865	140.6029
652.8423	138.1356
652.998	137.8405
653.1538	135.5237
653.3096	139.9814
653.4653	143.6208
653.621	143.5058
653.7767	147.2671
653.9324	146.2131
654.0881	141.9912
654.2438	138.0409
654.3995	138.8454
654.5552	135.1453
654.7109	134.4252
654.8665	136.2699
655.0222	137.8906
655.1778	143.181
655.3334	142.7259
655.4891	136.8557
655.6447	133.7568
655.8003	131.0504
655.9559	133.549
656.1115	124.9655
656.2671	123.1859
656.4227	124.7602
656.5782	126.9164
656.7338	125.6828
656.8893	133.6497
657.0449	133.0895
657.2004	133.8624
657.356	138.7042
657.5115	131.9586
657.667	134.2495
657.8225	139.6967
657.978	138.0291
658.1335	131.7995
658.289	130.8137
658.4445	137.5155
658.5999	136.181
658.7554	135.9403
658.9108	141.9104
659.0663	135.2563
659.2217	132.9603
659.3771	131.6866
659.5325	133.9364
659.6879	130.3533
659.8433	139.4537
659.9987	133.2266
660.1541	134.4399
660.3095	139.2781
660.4648	131.7798
660.6202	139.7484
660.7756	136.8889
660.9309	130.8485
661.0862	136.5949
661.2416	132.7396
661.3969	130.5372
661.5522	137.2055
661.7075	136.2596
661.8628	133.3301
662.0181	128.2283
662.1733	129.3306
662.3286	129.9353
662.4839	130.2713
662.6391	137.6369
662.7944	131.1355
662.9496	132.2737
663.1048	134.8709
663.26	130.8178
663.4152	130.7722
663.5704	125.4997
663.7256	126.0994
663.8808	127.0183
664.036	129.2995
664.1912	131.5592
664.3463	132.3353
664.5015	130.2439
664.6566	123.1981
664.8118	127.2942
664.9669	122.786
665.122	124.7586
665.2771	129.8548
665.4322	123.4252
665.5873	127.9211
665.7424	126.0599
665.8975	128.4053
666.0526	132.852
666.2076	131.7434
666.3627	123.449
666.5177	118.9044
666.6727	129.411
666.8278	129.4724
666.9828	125.2537
667.1378	127.6805
667.2928	124.6076
667.4478	126.3017
667.6028	123.3583
667.7578	125.3583
667.9127	126.5186
668.0677	123.9117
668.2226	124.4619
668.3776	126.2769
668.5325	122.0197
668.6874	120.5138
668.8423	123.1064
668.9973	125.0317
669.1522	122.5501
669.3071	123.5377
669.4619	120.4934
669.6168	120.3105
669.7717	125.7594
669.9265	120.0876
670.0814	117.2564
670.2362	118.3148
670.3911	127.471
670.5459	120.5054
670.7007	116.4097
670.8555	117.7745
671.0103	124.7965
671.1651	123.1158
671.3199	119.0827
671.4747	114.0816
671.6295	117.2094
671.7842	122.3552
671.939	121.195
672.0937	117.7511
672.2484	120.7444
672.4031	117.0978
672.5579	118.3487
672.7126	117.8277
672.8673	114.0906
673.022	115.0168
673.1767	116.0116
673.3314	118.62
673.486	116.5797
673.6407	114.7976
673.7953	113.0279
673.95	116.5147
674.1046	112.7376
674.2592	116.6597
674.4138	120.2279
674.5684	118.4264
674.723	115.2403
674.8776	115.3529
675.0322	117.0806
675.1868	118.7501
675.3414	120.376
675.4959	117.6652
675.6505	119.6344
675.805	119.4741
675.9595	117.9559
676.1141	115.8447
676.2686	120.7136
676.4231	119.5501
676.5776	119.8337
676.7321	119.2748
676.8866	117.1691
677.041	119.6939
677.1955	119.0706
677.35	116.3044
677.5044	114.5071
677.6589	114.4253
677.8133	116.0145
677.9677	113.2837
678.1221	114.448
678.2766	116.3996
678.4309	114.8263
678.5853	115.576
678.7397	118.0722
678.8941	117.4052
679.0485	111.9199
679.2028	114.3943
679.3571	117.2859
679.5115	111.3331
679.6658	114.4083
679.8201	114.7046
679.9744	114.6224
680.1288	113.9945
680.2831	114.7749
680.4373	117.0838
680.5916	111.1989
680.7459	113.2766
680.9001	115.5937
681.0544	111.2258
681.2087	107.5742
681.3629	115.0789
681.5171	121.1379
681.6713	117.2804
681.8256	109.9138
681.9797	111.5045
682.134	114.8631
682.2881	114.249
682.4423	109.9346
682.5965	111.9291
682.7507	112.7193
682.9048	111.8544
683.059	114.4099
683.2131	114.0799
683.3672	108.1136
683.5213	110.7354
683.6754	113.1327
683.8295	108.6919
683.9836	107.2477
684.1377	108.5272
684.2918	118.3859
684.4459	115.2261
684.5999	115.3604
684.754	115.3597
684.908	114.355
685.062	120.9103
685.2161	120.1028
685.3701	114.7042
685.5241	113.4349
685.6781	112.1197
685.8321	113.4332
685.9861	108.5916
686.14	110.3327
686.294	115.2331
686.4479	117.1616
686.6019	119.3911
686.7559	114.6663
686.9098	103.4087
687.0637	104.3389
687.2176	104.2512
687.3715	109.9101
687.5254	115.8118
687.6793	111.7088
687.8332	110.0695
687.9871	108.9837
688.1409	109.1325
688.2947	110.2278
688.4486	110.5675
688.6024	113.2312
688.7563	111.6845
688.9101	108.8367
689.0639	109.5758
689.2177	110.2686
689.3715	107.4839
689.5253	119.5545
689.6791	116.5143
689.8328	112.6683
689.9866	113.9531
690.1403	109.0528
690.2941	107.4173
690.4478	113.4212
690.6015	114.4201
690.7552	111.8624
690.9089	114.9991
691.0626	114.6852
691.2164	116.9015
691.37	112.4752
691.5237	116.008
691.6774	118.7449
691.831	118.1931
691.9847	120.9899
692.1383	119.4373
692.2919	121.0128
692.4456	127.4669
692.5992	128.2434
692.7527	116.7922
692.9064	114.8604
693.0599	117.3342
693.2136	121.8576
693.3671	125.2083
693.5207	121.7182
693.6742	117.4483
693.8278	125.01
693.9813	123.5099
694.1348	119.2107
694.2883	117.4632
694.4418	126.427
694.5953	123.671
694.7488	124.9594
694.9023	129.2633
695.0558	126.0579
695.2093	129.7897
695.3627	129.4102
695.5162	129.957
695.6696	123.0387
695.8231	124.5013
695.9764	128.3201
696.1299	129.9736
696.2833	132.8565
696.4367	133.4953
696.5901	132.7928
696.7435	129.3429
696.8968	134.9345
697.0502	134.384
697.2036	138.027
697.3569	137.2988
697.5102	136.3925
697.6635	133.7416
697.8168	130.2927
697.9702	131.3303
698.1235	137.399
698.2768	140.0346
698.4301	132.8283
698.5833	137.5666
698.7366	139.6553
698.8898	138.7294
699.0431	141.2305
699.1964	143.9581
699.3495	142.1949
699.5028	141.5873
699.656	141.4417
699.8092	147.6835
699.9624	146.0992
700.1156	141.9992
700.2688	142.7491
700.4219	140.7823
700.5751	148.2406
700.7283	153.2503
700.8814	151.8011
701.0345	149.4296
701.1877	152.0984
701.3408	143.4221
701.4939	147.1395
701.647	144.3495
701.8001	150.8294
701.9532	151.1057
702.1063	154.8333
702.2593	155.2934
702.4124	153.8569
702.5654	144.4496
702.7184	147.8617
702.8715	156.7641
703.0245	156.4877
703.1776	150.0189
703.3305	157.329
703.4835	157.1527
703.6365	156.6474
703.7895	160.3176
703.9424	160.5577
704.0954	157.0683
704.2484	162.2123
704.4013	163.2025
704.5543	167.1427
704.7072	164.2104
704.8601	166.8088
705.013	169.7806
705.1659	168.762
705.3188	170.1016
705.4717	167.0295
705.6246	166.5738
705.7774	166.425
705.9303	164.8518
706.0831	171.4963
706.236	169.1907
706.3888	170.4199
706.5416	169.1811
706.6944	165.7285
706.8472	168.6477
707	169.926
707.1528	172.992
707.3056	180.1703
707.4583	178.3253
707.6111	180.9384
707.7639	181.2969
707.9166	180.1153
708.0693	177.2003
708.222	180.456
708.3748	179.1371
708.5275	174.2349
708.6802	172.7412
708.8328	180.712
708.9855	179.2177
709.1382	181.197
709.2909	180.7693
709.4435	188.3508
709.5962	187.9569
709.7488	183.0276
709.9014	180.9822
710.054	187.9208
710.2067	188.3868
710.3593	185.4224
710.5118	181.4841
710.6644	184.9656
710.817	189.9477
710.9695	189.8668
711.1221	193.3048
711.2747	190.0798
711.4272	189.0741
711.5797	194.1289
711.7322	190.0255
711.8848	189.4496
712.0373	189.8294
712.1898	190.5954
712.3422	196.9074
712.4948	190.7219
712.6472	189.7924
712.7996	190.3925
712.9521	189.759
713.1046	193.2536
713.257	189.4473
713.4094	191.5853
713.5618	195.5731
713.7142	198.3077
713.8666	197.6493
714.019	197.5968
714.1714	200.617
714.3237	200.7487
714.4761	197.3049
714.6285	195.6508
714.7808	195.9031
714.9331	191.7986
715.0854	190.7643
715.2378	194.2606
715.3901	199.0213
715.5424	193.1408
715.6947	196.5594
715.8469	200.4185
715.9992	194.9433
716.1515	194.7496
716.3037	197.6353
716.456	192.7213
716.6082	191.9559
716.7604	190.8257
716.9127	187.6812
717.0649	181.5638
717.2171	183.6331
717.3693	182.8138
717.5214	180.2678
717.6736	180.9893
717.8258	185.7254
717.978	181.1329
718.1301	182.7571
718.2822	183.5155
718.4344	180.8462
718.5865	176.4448
718.7386	171.4529
718.8907	174.6588
719.0428	179.0916
719.1949	182.3407
719.3469	177.7529
719.499	182.448
719.6511	183.4584
719.8031	186.1669
719.9551	188.6705
720.1072	186.09
720.2592	188.8999
720.4112	187.4426
720.5632	181.8263
720.7152	182.9511
720.8672	197.7582
721.0192	195.881
721.1711	202.4455
721.3231	211.5564
721.475	217.7635
721.627	219.6487
721.7789	206.842
721.9308	206.2839
722.0828	205.6159
722.2347	211.6887
722.3866	218.2337
722.5385	214.8613
722.6903	212.283
722.8422	211.776
722.9941	210.6445
723.1459	206.4187
723.2977	203.3153
723.4496	193.2043
723.6014	187.6831
723.7532	199.3335
723.905	203.8616
724.0568	203.8848
724.2086	202.6659
724.3604	195.729
724.5121	198.2116
724.6639	206.3332
724.8157	201.9882
724.9674	208.2818
725.1191	200.6905
725.2709	200.5246
725.4226	204.6541
725.5743	205.2457
725.726	213.6868
725.8777	211.8761
726.0294	209.206
726.181	210.11
726.3327	213.8914
726.4844	208.8676
726.636	215.0473
726.7877	218.941
726.9393	217.9153
727.0909	215.4153
727.2425	218.9688
727.3941	207.7847
727.5457	207.5709
727.6973	195.4
727.8488	203.3809
728.0004	215.5562
728.1519	225.6121
728.3035	230.7188
728.455	228.1232
728.6066	231.7098
728.7581	225.802
728.9095	215.9908
729.0611	208.6283
729.2126	208.1172
729.364	201.3017
729.5155	211.8975
729.667	225.0303
729.8184	229.5197
729.9698	231.9279
730.1213	215.9231
730.2727	218.3734
730.4241	223.1685
730.5756	228.8185
730.7269	232.7742
730.8784	230.0081
731.0297	228.6309
731.1811	221.6321
731.3325	229.4908
731.4838	230.6419
731.6351	233.3671
731.7865	228.5743
731.9378	232.7411
732.0891	241.1345
732.2404	242.4607
732.3917	238.6978
732.543	246.2002
732.6943	240.9213
732.8456	246.4648
732.9968	244.7474
733.1481	253.083
733.2993	248.487
733.4506	246.5213
733.6018	254.2154
733.753	250.0705
733.9042	259.6187
734.0554	261.5146
734.2066	253.7059
734.3578	257.9226
734.509	254.0829
734.6602	260.6402
734.8113	262.5328
734.9624	257.4645
735.1136	252.3174
735.2647	251.2718
735.4158	261.503
735.5669	259.7453
735.718	259.4006
735.8691	255.1545
736.0201	257.0043
736.1713	257.1065
736.3223	255.4697
736.4733	257.8831
736.6244	262.0147
736.7755	259.8143
736.9265	256.0348
737.0775	253.4205
737.2285	267.1905
737.3795	267.925
737.5305	262.1208
737.6815	263.4314
737.8324	267.1797
737.9834	263.9933
738.1343	265.0983
738.2853	265.4281
738.4362	264.3835
738.5871	256.5193
738.738	253.573
738.8889	256.6077
739.0399	259.7061
739.1907	261.8416
739.3416	255.4478
739.4925	259.5046
739.6433	258.0386
739.7942	252.2381
739.945	258.303
740.0958	268.7815
740.2467	264.5531
740.3975	268.4952
740.5483	268.2736
740.6991	271.4021
740.8499	263.5517
741.0007	259.1217
741.1514	261.8861
741.3022	261.1265
741.4529	254.1615
741.6036	260.8888
741.7544	265.0815
741.9051	273.6635
742.0558	269.3913
742.2065	268.6739
742.3572	264.0548
742.5079	265.256
742.6586	268.9811
742.8093	277.3186
742.9599	272.3575
743.1105	271.3398
743.2612	275.6707
743.4118	279.3518
743.5624	274.512
743.7131	275.902
743.8636	272.772
744.0142	265.3972
744.1648	267.9052
744.3154	272.0612
744.4659	270.8074
744.6165	266.2996
744.767	268.6247
744.9176	267.7954
745.0681	274.6385
745.2186	272.1179
745.3691	271.5511
745.5197	273.3268
745.6702	278.8259
745.8206	272.4423
745.9711	273.1334
746.1215	269.7073
746.272	266.2785
746.4224	267.0634
746.5729	265.8828
746.7233	270.0491
746.8737	271.8684
747.0241	270.5617
747.1745	271.6012
747.3249	264.8778
747.4753	274.555
747.6257	264.0965
747.776	267.2806
747.9264	267.3188
748.0767	270.7374
748.2271	266.3445
748.3774	261.4167
748.5276	264.9716
748.678	267.9436
748.8282	273.8139
748.9786	262.8241
749.1288	258.4646
749.2791	260.1495
749.4294	268.8127
749.5796	264.3519
749.7299	268.8857
749.8801	268.8699
750.0303	263.5613
750.1805	260.0262
750.3307	259.4807
750.4809	256.38
750.6311	262.9767
750.7813	260.347
750.9314	256.6933
751.0816	254.6989
751.2318	254.9978
751.3818	257.6977
751.532	257.6753
751.6821	257.4937
751.8322	270.7385
751.9823	264.6451
752.1324	257.6778
752.2825	251.6467
752.4326	249.3126
752.5826	246.8122
752.7327	252.5729
752.8827	258.3412
753.0327	252.7933
753.1827	245.0366
753.3328	250.2253
753.4828	250.9666
753.6328	253.3887
753.7828	251.8629
753.9327	249.9396
754.0827	254.7743
754.2327	256.4064
754.3826	257.4424
754.5325	249.8713
754.6825	243.2879
754.8324	248.7636
754.9823	248.7932
755.1322	247.5998
755.2821	252.8154
755.432	252.8074
755.5818	246.1605
755.7318	244.9603
755.8816	248.2209
756.0314	243.5684
756.1813	246.3703
756.3311	247.7574
756.4809	243.2373
756.6307	248.741
756.7805	241.9746
756.9303	233.6054
757.0801	236.1511
757.2299	238.46
757.3796	245.0218
757.5294	240.7529
757.6791	238.3177
757.8289	236.7905
757.9786	243.009
758.1283	239.7361
758.278	243.6798
758.4277	234.9168
758.5773	232.1338
758.7271	229.5986
758.8767	238.431
759.0264	233.204
759.176	218.7438
759.3256	208.9241
759.4753	184.3197
759.6249	146.5034
759.7745	119.7931
759.9241	113.9877
760.0737	103.2968
760.2233	92.89259
760.3729	80.81839
760.5224	82.25229
760.6719	85.0993
760.8215	85.90311
760.971	83.89415
761.1205	97.68497
761.2701	108.9482
761.4196	122.237
761.5691	133.6505
761.7186	150.593
761.868	170.2057
762.0175	177.573
762.167	167.7115
762.3164	150.734
762.4659	139.5062
762.6153	127.9009
762.7647	124.9323
762.9141	121.3168
763.0635	122.917
763.2129	131.8754
763.3623	126.7277
763.5117	123.7873
763.661	131.5007
763.8104	131.5145
763.9597	133.8915
764.1091	145.1051
764.2584	152.7533
764.4077	152.3866
764.557	148.2731
764.7063	154.7223
764.8556	156.9585
765.0049	157.926
765.1541	168.7832
765.3034	166.8481
765.4526	163.4293
765.6019	170.9928
765.7511	167.4517
765.9003	175.4088
766.0496	176.7067
766.1987	174.1267
766.348	178.881
766.4971	176.4026
766.6463	184.7693
766.7955	188.8314
766.9446	191.9175
767.0938	190.262
767.2429	187.8283
767.392	195.0568
767.5411	198.6362
767.6902	197.8191
767.8394	195.5015
767.9884	197.3132
768.1375	200.802
768.2866	198.1488
768.4356	191.535
768.5847	200.8331
768.7337	200.5814
768.8828	203.249
769.0317	203.0888
769.1808	198.1761
769.3298	197.4805
769.4788	205.4537
769.6277	204.238
769.7767	201.2617
769.9257	205.3829
770.0746	195.6396
770.2236	197.9029
770.3725	200.7387
770.5214	202.751
770.6703	203.7887
770.8193	203.4588
770.9681	201.8169
771.1171	201.6845
771.2659	192.1523
771.4148	195.012
771.5637	189.7395
771.7125	195.0974
771.8613	208.4543
772.0101	203.2845
772.159	200.9728
772.3078	197.3526
772.4566	193.6015
772.6054	199.138
772.7542	199.1824
772.903	201.4804
773.0517	201.4618
773.2004	197.6816
773.3492	201.0081
773.4979	196.2418
773.6467	197.2888
773.7953	204.5212
773.944	197.0422
774.0928	191.3607
774.2415	194.34
774.3901	199.255
774.5388	194.5347
774.6874	191.4523
774.8361	194.9933
774.9847	191.2304
775.1334	188.0295
775.282	194.2153
775.4305	179.1903
775.5792	192.3575
775.7277	191.3809
775.8763	189.8886
776.0249	189.2543
776.1735	183.9151
776.322	189.6882
776.4705	192.2804
776.6191	198.767
776.7676	192.3054
776.9161	185.4481
777.0646	194.1972
777.2131	188.6632
777.3616	182.3868
777.5101	190.2256
777.6585	184.3351
777.8069	177.2925
777.9554	182.5566
778.1038	186.1046
778.2523	190.0802
778.4007	193.9596
778.5491	193.1634
778.6974	193.5649
778.8459	180.304
778.9942	187.6856
779.1426	188.5132
779.291	187.3937
779.4393	187.3916
779.5876	185.6408
779.736	189.2734
779.8843	183.0213
780.0326	180.1304
780.1809	181.6151
780.3292	175.3549
780.4775	184.1258
780.6257	184.7692
780.774	179.5643
780.9222	185.6424
781.0704	177.0201
781.2187	178.7342
781.3669	176.7504
781.5151	185.8926
781.6633	177.6161
781.8115	175.3929
781.9597	182.9357
782.1078	184.4959
782.256	185.648
782.4042	188.1497
782.5523	185.2669
782.7004	179.4269
782.8486	184.5298
782.9967	186.3558
783.1448	186.5564
783.2929	175.9207
783.441	171.2237
783.5891	172.2206
783.7371	177.7297
783.8851	181.8212
784.0332	181.1746
784.1812	173.7577
784.3293	174.9049
784.4773	182.7015
784.6253	175.7517
784.7733	171.9867
784.9213	176.1709
785.0692	172.5177
785.2172	177.8518
785.3652	180.3932
785.5131	175.0553
785.6611	172.6101
785.809	171.7643
785.9569	173.4685
786.1048	176.5016
786.2527	166.9494
786.4006	169.806
786.5485	174.3357
786.6964	174.3515
786.8442	169.1385
786.9921	167.8761
787.1399	171.058
787.2877	165.5068
787.4355	166.6979
787.5833	166.535
787.7311	165.6737
787.8789	169.6115
788.0267	170.0008
788.1745	168.1529
788.3223	165.1966
788.47	172.3058
788.6177	165.205
788.7654	161.9205
788.9132	168.118
789.0609	162.4699
789.2086	166.6864
789.3563	166.7944
789.504	159.3373
789.6517	164.6264
789.7993	159.8675
789.947	158.4645
790.0946	164.6977
790.2422	158.8911
790.3898	155.9029
790.5375	164.2028
790.6851	170.8996
790.8326	161.8718
790.9802	163.573
791.1278	158.9871
791.2754	156.4489
791.423	159.1342
791.5705	163.6615
791.718	162.0893
791.8655	160.3121
792.0131	158.6371
792.1606	158.3726
792.308	156.6497
792.4556	160.0993
792.603	157.8291
792.7505	153.3698
792.8979	152.8856
793.0454	153.1141
793.1928	154.0413
793.3403	157.6275
793.4877	152.8719
793.6351	158.9069
793.7825	159.8849
793.9299	158.9753
794.0772	154.766
794.2246	150.3938
794.3719	154.1806
794.5193	154.9462
794.6666	151.6422
794.814	145.949
794.9613	160.1489
795.1086	152.1457
795.2559	149.0419
795.4032	155.3384
795.5505	159.656
795.6978	157.8604
795.845	152.9431
795.9922	155.1
796.1395	147.732
796.2867	144.4721
796.4339	149.9813
796.5811	154.2894
796.7283	155.0133
796.8755	152.659
797.0227	150.7458
797.1699	153.3737
797.317	155.2218
797.4642	149.6004
797.6113	148.0928
797.7584	156.355
797.9056	150.2391
798.0527	146.353
798.1998	149.9527
798.3469	159.6103
798.494	147.2674
798.641	150.205
798.7881	145.4219
798.9351	148.1688
799.0822	147.4649
799.2292	143.4901
799.3762	147.6605
799.5232	150.9908
799.6702	147.6512
799.8172	150.9509
799.9642	141.1563
800.1111	142.6509
800.2581	145.4245
800.4051	143.7534
800.552	139.5252
800.6989	145.9705
800.8458	143.0414
800.9927	141.6513
801.1396	143.3371
801.2866	144.6231
801.4334	148.1236
801.5803	143.038
801.7272	145.9785
801.874	148.7742
802.0209	147.6357
802.1677	142.0517
802.3145	138.0136
802.4613	132.4392
802.6081	136.6595
802.7549	142.5265
802.9017	138.2718
803.0485	133.3242
803.1952	138.8685
803.342	138.2859
803.4887	140.1092
803.6354	140.9229
803.7822	137.9987
803.9289	146.4982
804.0756	141.9645
804.2223	137.8534
804.369	133.3066
804.5156	133.911
804.6623	130.2891
804.8089	129.7071
804.9556	131.2943
805.1022	132.9258
805.2488	138.663
805.3954	143.4673
805.542	132.8467
805.6886	140.9015
805.8352	140.1078
805.9818	139.8835
806.1283	137.7016
806.2749	133.4393
806.4214	130.1799
806.5679	128.2439
806.7145	133.455
806.861	135.9621
807.0074	132.4216
807.154	130.7445
807.3004	132.1717
807.4469	129.8147
807.5934	127.3886
807.7398	134.5531
807.8862	135.4968
808.0327	133.0819
808.1791	133.978
808.3255	126.6021
808.4719	130.8491
808.6183	132.438
808.7647	130.0155
808.9111	130.7701
809.0574	130.6156
809.2037	129.9357
809.3501	123.4437
809.4965	123.5056
809.6428	123.851
809.7891	126.446
809.9354	128.5731
810.0817	125.2423
810.2279	129.7667
810.3742	130.581
810.5204	125.6335
810.6667	127.5343
810.8129	125.4352
810.9592	123.8253
811.1054	122.543
811.2516	119.322
811.3978	118.2685
811.5439	117.7526
811.6901	119.5574
811.8363	120.4577
811.9825	118.4658
812.1286	123.608
812.2748	117.2804
812.4209	116.6984
812.567	110.9995
812.7131	114.069
812.8592	117.6721
813.0053	113.4681
813.1514	111.7516
813.2974	106.1976
813.4435	107.4256
813.5895	112.1289
813.7356	109.4446
813.8816	107.3598
814.0276	110.0453
814.1736	108.1811
814.3196	101.8818
814.4656	106.5973
814.6116	99.75105
814.7576	99.92004
814.9035	98.00098
815.0494	103.7378
815.1954	104.1277
815.3413	103.6062
815.4872	102.7566
815.6331	100.029
815.779	104.9085
815.9249	104.8178
816.0707	99.82369
816.2166	96.33709
816.3625	86.81654
816.5083	88.36544
816.6542	94.84042
816.8	98.07878
816.9458	97.83483
817.0916	95.29285
817.2374	97.82522
817.3832	103.7437
817.5289	108.8749
817.6747	101.0092
817.8204	93.66054
817.9662	84.63925
818.1119	89.39713
818.2576	96.56403
818.4034	98.93329
818.5491	98.7438
818.6948	100.6372
818.8405	95.12936
818.9861	98.59363
819.1318	99.20824
819.2774	105.0695
819.423	99.63249
819.5687	93.10069
819.7143	91.15794
819.8599	89.60511
820.0055	86.52045
820.1511	90.22007
820.2967	93.76702
820.4422	100.7568
820.5878	110.8505
820.7333	109.0116
820.8788	107.2853
821.0244	105.6589
821.1699	102.9869
821.3154	100.7646
821.4609	99.38093
821.6064	103.0692
821.7519	101.8995
821.8973	97.09016
822.0428	100.5235
822.1882	99.73227
822.3337	92.68197
822.4791	96.32204
822.6245	87.98866
822.7699	75.3176
822.9153	74.62082
823.0607	70.97911
823.2061	76.3735
823.3514	80.32351
823.4968	90.49198
823.6422	89.78356
823.7875	95.18133
823.9328	93.25112
824.0781	87.96066
824.2234	93.32935
824.3687	92.05256
824.514	92.65565
824.6592	95.92191
824.8045	98.76646
824.9498	99.55406
825.095	99.74763
825.2402	103.988
825.3854	101.3201
825.5306	94.96984
825.6758	90.85055
825.821	91.30714
825.9662	92.71184
826.1114	91.32487
826.2565	90.90197
826.4017	98.56121
826.5468	98.84449
826.692	99.47926
826.837	100.8911
826.9822	99.51006
827.1273	96.68491
827.2723	89.34953
827.4174	89.46745
827.5625	83.31515
827.7075	80.53728
827.8526	85.96183
827.9976	88.69376
828.1426	86.99831
828.2877	89.8169
828.4327	95.72007
828.5776	92.78333
828.7227	90.32231
828.8676	91.19397
829.0126	84.68093
829.1575	88.43783
829.3024	87.04565
829.4474	85.94913
829.5923	92.68682
829.7372	88.59637
829.8821	92.06824
830.027	84.70168
830.1719	87.3542
830.3168	89.17248
830.4616	84.78099
830.6064	84.50105
830.7513	88.67525
830.8961	94.8639
831.041	91.06163
831.1857	88.21229
831.3306	89.69305
831.4753	90.40983
831.6201	91.98965
831.7649	90.22049
831.9096	87.31131
832.0544	87.84686
832.1991	88.09474
832.3438	86.64056
832.4885	91.67181
832.6332	97.04114
832.778	87.18104
832.9226	78.76115
833.0673	86.9694
833.2119	88.93694
833.3566	83.50368
833.5012	79.73209
833.6459	88.19659
833.7905	92.0366
833.9351	88.67812
834.0797	84.08018
834.2243	81.14318
834.3688	85.18039
834.5134	87.67517
834.658	91.18894
834.8026	87.28064
834.9471	90.42606
835.0916	89.64456
835.2361	88.19926
835.3806	91.48694
835.5251	91.98132
835.6696	92.18634
835.8141	86.36536
835.9586	84.90609
836.103	89.60664
836.2474	86.45792
836.3918	80.99981
836.5363	86.72488
836.6807	88.02543
836.8251	84.43098
836.9695	90.46973
837.1138	89.39819
837.2582	87.86064
837.4026	85.05539
837.5469	83.91819
837.6913	85.46566
837.8356	84.58733
837.9799	87.97526
838.1242	91.35999
838.2686	95.77898
838.4128	91.43079
838.5571	85.35699
838.7014	89.51929
838.8456	90.83787
838.9899	89.41109
839.1341	84.74815
839.2783	88.99678
839.4225	88.55061
839.5667	85.65505
839.7109	87.41766
839.8551	90.37985
839.9993	93.12845
840.1434	92.31087
840.2876	90.5139
840.4317	86.80448
840.5759	90.17337
840.72	91.71351
840.8641	83.76267
841.0082	83.48679
841.1523	83.89074
841.2963	84.84799
841.4404	89.95037
841.5845	92.91998
841.7285	85.02068
841.8726	78.63498
842.0165	82.04357
842.1606	83.6948
842.3046	83.38575
842.4485	86.43346
842.5925	82.26319
842.7365	80.36734
842.8805	89.52466
843.0244	87.88746
843.1684	82.20863
843.3123	79.327
843.4562	81.77322
843.6002	84.84066
843.744	86.05147
843.8879	80.93918
844.0318	80.19953
844.1757	86.88437
844.3195	82.76057
844.4634	82.79184
844.6072	83.1408
844.751	91.43452
844.8948	83.80556
845.0386	85.10366
845.1824	83.28158
845.3262	81.79208
845.47	84.58385
845.6138	86.14195
845.7575	86.47429
845.9012	89.10111
846.045	85.72794
846.1887	80.55979
846.3324	87.24993
846.4761	86.53154
846.6198	84.61044
846.7635	79.06973
846.9071	76.64996
847.0508	77.07249
847.1944	75.72096
847.3381	81.51268
847.4817	82.47735
847.6253	86.72192
847.7689	82.80091
847.9125	81.07977
848.0561	79.25244
848.1996	83.75042
848.3432	85.10841
848.4868	82.62501
848.6303	83.15258
848.7738	77.04967
848.9174	79.47993
849.0609	83.67033
849.2043	79.42328
849.3478	79.37473
849.4913	82.12259
849.6348	73.06697
849.7782	70.34425
849.9217	78.18795
850.0651	68.2621
850.2086	69.11581
850.3519	77.12649
850.4954	77.22874
850.6387	75.74313
850.7821	77.91926
850.9255	79.21232
851.0688	79.89177
851.2122	73.95387
851.3555	74.46778
851.4988	76.83201
851.6422	76.26804
851.7855	74.49214
851.9288	80.3045
852.0721	80.77906
852.2153	80.09224
852.3586	76.19982
852.5018	79.21664
852.6451	84.28573
852.7883	85.51756
852.9315	78.33753
853.0748	78.29522
853.218	77.69065
853.3611	80.03659
853.5043	75.10641
853.6475	73.28505
853.7906	75.84481
853.9338	70.79151
854.0769	65.83903
854.22	57.94099
854.3632	58.824
854.5063	62.61621
854.6494	61.81082
854.7924	70.3984
854.9355	75.24267
855.0786	79.46356
855.2216	75.31741
855.3647	74.22419
855.5077	76.85167
855.6507	69.86621
855.7937	72.08112
855.9367	76.92948
856.0797	76.54256
856.2227	73.13416
856.3657	77.1426
856.5086	71.30926
856.6516	74.46618
856.7945	74.96728
856.9374	76.44996
857.0803	79.59985
857.2232	73.55447
857.3661	73.19733
857.509	69.42655
857.6519	71.78296
857.7947	72.53304
857.9376	72.64587
858.0804	78.62618
858.2232	71.6915
858.366	68.91712
858.5089	70.07824
858.6516	69.27261
858.7944	72.10701
858.9372	73.87988
859.08	71.24031
859.2227	72.45747
859.3654	75.40462
859.5082	70.43794
859.6509	67.14645
859.7936	67.49901
859.9363	66.98136
860.079	69.15793
860.2217	71.64703
860.3643	72.99639
860.507	67.43209
860.6496	71.24546
860.7922	67.90815
860.9349	70.91325
861.0775	69.08824
861.2201	68.76877
861.3627	67.4304
861.5052	69.11468
861.6478	72.04492
861.7904	73.40712
861.9329	69.65398
862.0755	70.64944
862.218	70.82574
862.3605	66.4811
862.503	70.77628
862.6455	73.74451
862.788	69.32269
862.9305	68.72785
863.0729	68.65677
863.2154	69.15704
863.3578	69.158
863.5002	67.59435
863.6426	65.84146
863.7851	62.85043
863.9275	64.09946
864.0698	63.04662
864.2122	63.53197
864.3546	66.32924
864.4969	68.07528
864.6393	68.27409
864.7816	63.74064
864.924	67.25249
865.0662	67.03911
865.2086	65.69305
865.3508	67.71669
865.4931	66.51201
865.6354	64.78054
865.7776	59.17823
865.9199	60.50615
866.0621	54.91262
866.2043	46.70523
866.3466	56.43903
866.4888	58.76691
866.6309	56.55418
866.7731	61.83696
866.9153	63.44864
867.0574	63.06301
867.1996	63.42417
867.3417	63.60619
867.4839	63.64098
867.626	64.60255
867.7681	63.88613
867.9102	67.37997
868.0522	71.83521
868.1943	63.45777
868.3364	66.8595
868.4785	67.61166
868.6205	63.19541
868.7625	66.11867
868.9045	65.9168
869.0465	66.65327
869.1885	61.9358
869.3305	61.90585
869.4725	65.38866
869.6144	64.90273
869.7564	63.68951
869.8983	62.48117
870.0403	64.98731
870.1822	62.05761
870.3241	66.09066
870.466	65.06395
870.6079	62.39252
870.7498	62.25253
870.8916	59.59595
871.0335	60.55902
871.1754	60.96795
871.3171	61.69916
871.459	58.64894
871.6008	58.80911
871.7426	63.10792
871.8844	61.06303
872.0262	63.38029
872.1679	59.70345
872.3097	64.13564
872.4514	60.85227
872.5931	64.17268
872.7349	60.54511
872.8766	63.2296
873.0183	63.33761
873.16	59.56332
873.3017	65.49666
873.4434	60.22538
873.585	57.23991
873.7266	62.53683
873.8683	55.07467
874.0099	59.63246
874.1516	58.38731
874.2932	61.27607
874.4348	59.07009
874.5763	57.22831
874.7179	60.50669
874.8594	56.94244
875.001	62.05312
875.1425	56.61996
875.2841	60.83183
875.4256	58.63364
875.5671	55.84988
875.7086	57.67334
875.85	62.38287
875.9915	62.99432
876.133	59.50928
876.2744	55.71333
876.4159	55.57361
876.5573	58.314
876.6987	56.77751
876.8401	60.66373
876.9815	60.00562
877.1229	58.96584
877.2643	59.78139
877.4056	60.02768
877.547	54.23925
877.6884	56.31638
877.8297	58.12734
877.971	58.01944
878.1123	60.64121
878.2536	58.66777
878.3949	54.80669
878.5362	57.50042
878.6774	58.53484
878.8187	55.81213
878.9599	58.31077
879.1011	59.62769
879.2424	53.51719
879.3836	53.9382
879.5248	50.57432
879.666	52.45343
879.8071	60.02285
879.9483	60.08005
880.0895	53.52425
880.2306	55.08611
880.3718	57.3452
880.5129	54.20518
880.654	52.15123
880.7951	53.93859
880.9362	56.4231
881.0773	57.28582
881.2183	56.56988
881.3594	55.85836
881.5004	56.73083
881.6414	56.95626
881.7825	54.84991
881.9235	47.68325
882.0645	55.4263
882.2054	52.15486
882.3464	47.83276
882.4874	50.99763
882.6284	50.16565
882.7693	56.25568
882.9103	55.45876
883.0512	52.8042
883.1921	61.75114
883.333	54.20216
883.4739	53.30016
883.6147	53.41813
883.7556	55.93437
883.8965	56.42085
884.0374	48.34155
884.1782	49.31237
884.319	47.94549
884.4598	51.00731
884.6006	51.59322
884.7414	50.23435
884.8822	54.35886
885.0229	54.76257
885.1637	55.39883
885.3044	57.22763
885.4452	53.59184
885.5859	52.49438
885.7266	53.26075
885.8673	47.27882
886.008	57.08681
886.1487	52.49495
886.2894	47.44258
886.43	52.75294
886.5707	54.04272
886.7113	51.36063
886.8519	49.93664
886.9926	51.7769
887.1331	55.74405
887.2737	51.54613
887.4143	50.8587
887.5549	50.88958
887.6954	51.00891
887.836	53.90472
887.9765	51.02009
888.1171	47.34024
888.2576	45.75554
888.3981	49.51924
888.5386	47.58702
888.679	55.02861
888.8195	54.40761
888.96	52.85971
889.1004	48.74149
889.2408	55.80263
889.3813	53.82644
889.5217	50.61773
889.6621	49.61305
889.8025	49.2248
889.9429	49.32603
890.0833	48.36232
890.2236	46.56887
890.364	50.406
890.5043	50.98578
890.6446	52.0552
890.7849	51.45498
890.9252	50.9024
891.0655	49.73096
891.2058	48.70922
891.3461	49.95521
891.4863	55.36383
891.6266	50.46426
891.7668	42.90824
891.907	45.5662
892.0472	48.21905
892.1874	52.05351
892.3276	50.30043
892.4678	47.92752
892.608	49.50906
892.7481	44.84246
892.8883	48.12814
893.0284	44.97161
893.1685	46.93306
893.3087	45.1952
893.4487	47.38683
893.5889	51.66359
893.7289	49.3319
893.869	45.02289
894.009	44.1142
894.1491	49.89832
894.2891	44.39038
894.4291	43.90783
894.5692	47.04085
894.7092	45.66397
894.8491	47.25269
894.9891	42.06125
895.1291	45.21117
895.269	42.09029
895.409	41.43913
895.549	39.96264
895.6888	44.05756
895.8288	46.43771
895.9687	45.31945
896.1086	43.8973
896.2484	33.47066
896.3883	36.68982
896.5281	37.16611
896.668	39.70945
896.8079	41.76952
896.9476	41.47124
897.0875	40.79543
897.2272	41.88698
897.3671	36.85669
897.5068	38.02843
897.6466	39.00384
897.7864	40.02868
897.9261	39.34731
898.0658	37.69889
898.2056	40.95957
898.3453	41.96354
898.4849	39.98404
898.6246	36.45958
898.7643	33.37576
898.904	30.7015
899.0436	31.4117
899.1833	34.42631
899.3229	37.34726
899.4625	41.67583
899.6021	40.66615
899.7417	35.45065
899.8813	46.80545
900.0209	39.95695
900.1605	38.11522
900.3	39.01419
900.4395	33.63323
900.579	26.97468
900.7186	29.83062
900.8581	40.00879
900.9976	35.38303
901.1371	36.33288
901.2766	33.45957
901.416	37.30459
901.5555	36.06403
901.6949	31.88691
901.8344	31.0892
901.9738	35.44383
902.1132	39.1872
902.2526	37.21262
902.3919	30.97039
902.5313	38.42429
902.6707	40.54068
