SPECTRUM DATA FILE
SpectrumCount:	1
PixelCount:	3648
UserName:	ToughBook User
SampleName:	
LightSource:	
Comments:	
DeviceName:	Qwave
DeviceManufacturer:	Broadcom
DeviceSerialNo:	11311

Name:	last spectrum
Date:	2024-05-02T14:51:50.4954021+02:00
ExposureTime:	0.02
TemporalAvg:	1
IntensityUnit:	normalizedCounts
CCDLoadLevel:	0.06684588
Temperature:	32.92099
DiagramColor:	200
ProcessingSteps:	335

Wavelength [nm]	Intensity1
334.421	20.33178
334.5891	17.8015
334.7573	20.17402
334.9254	14.72304
335.0935	18.54743
335.2616	19.00907
335.4297	21.76974
335.5978	19.59086
335.7659	17.48676
335.934	22.26427
336.1021	20.0752
336.2701	19.91342
336.4382	21.55165
336.6063	24.62794
336.7744	19.81027
336.9424	17.07066
337.1105	17.74971
337.2785	22.08245
337.4466	12.19409
337.6146	13.87447
337.7827	17.08382
337.9507	17.41934
338.1187	15.44563
338.2867	17.48833
338.4548	12.47609
338.6228	19.30314
338.7908	18.07495
338.9588	18.87076
339.1268	16.96378
339.2948	19.1255
339.4628	20.58066
339.6308	21.31514
339.7988	16.86058
339.9667	15.04479
340.1347	19.58881
340.3027	22.59688
340.4707	16.49675
340.6386	15.79592
340.8066	18.85656
340.9745	21.99163
341.1425	19.53552
341.3104	22.15026
341.4784	21.44193
341.6463	24.11275
341.8142	20.53732
341.9821	22.94251
342.1501	19.59197
342.318	24.78452
342.4859	19.92441
342.6538	18.97596
342.8217	21.04566
342.9896	22.12019
343.1575	19.07091
343.3254	21.2241
343.4933	21.63474
343.6612	18.84756
343.829	20.5541
343.9969	18.38043
344.1648	24.77105
344.3326	22.77139
344.5005	22.52364
344.6683	20.27022
344.8362	18.38857
345.004	14.5295
345.1719	20.69933
345.3397	22.35646
345.5075	18.25089
345.6754	22.04626
345.8432	27.95226
346.011	23.60477
346.1788	21.15881
346.3466	21.17344
346.5144	21.29335
346.6822	19.17096
346.85	24.63868
347.0178	25.13488
347.1856	24.08622
347.3534	21.25766
347.5211	16.62984
347.6889	17.9731
347.8567	20.03811
348.0244	19.58777
348.1922	24.44705
348.3599	19.12642
348.5277	17.56921
348.6954	21.45026
348.8632	21.91031
349.0309	20.91788
349.1986	20.57806
349.3663	16.85569
349.5341	14.35095
349.7018	18.22301
349.8695	20.15869
350.0372	21.45218
350.2049	20.35773
350.3726	20.93069
350.5403	18.64734
350.7079	22.7758
350.8756	26.08334
351.0433	20.13076
351.211	15.26353
351.3786	20.33016
351.5463	20.88743
351.714	19.26565
351.8816	21.6359
352.0493	26.82207
352.2169	22.45126
352.3846	21.49102
352.5522	24.71964
352.7198	21.85503
352.8875	22.11632
353.0551	22.86724
353.2227	23.80367
353.3903	26.94909
353.5579	23.07035
353.7255	20.9528
353.8931	18.38958
354.0607	20.97663
354.2283	25.31933
354.3958	20.29871
354.5634	27.62691
354.731	23.21916
354.8986	19.42689
355.0661	22.14676
355.2337	22.68196
355.4012	26.92766
355.5688	17.67072
355.7363	20.93591
355.9039	20.99729
356.0714	21.18879
356.239	21.9812
356.4065	24.45921
356.574	24.3742
356.7415	19.53094
356.909	23.24566
357.0765	21.70587
357.244	20.72795
357.4115	17.4563
357.579	18.69042
357.7465	20.66672
357.914	19.04636
358.0815	17.10271
358.249	16.89921
358.4164	18.79036
358.5839	23.38947
358.7513	23.30696
358.9188	22.69671
359.0862	19.43872
359.2537	20.42366
359.4211	19.62872
359.5886	21.28198
359.756	24.23255
359.9234	19.14446
360.0909	23.93614
360.2583	19.20212
360.4257	27.75337
360.5931	21.75043
360.7605	18.70218
360.9279	23.02388
361.0953	21.54325
361.2627	26.03218
361.4301	21.82036
361.5974	20.39975
361.7648	23.25139
361.9322	24.69961
362.0995	21.75109
362.2669	22.07916
362.4343	26.66705
362.6016	18.35461
362.769	28.09483
362.9363	24.97696
363.1036	21.06685
363.271	20.65408
363.4383	25.24996
363.6056	26.1556
363.7729	23.62891
363.9402	27.81963
364.1075	22.60927
364.2748	22.25038
364.4421	26.91302
364.6094	27.44024
364.7767	26.85354
364.944	24.46731
365.1113	26.64144
365.2786	21.41072
365.4458	21.7129
365.6131	23.74861
365.7803	28.79859
365.9476	28.40337
366.1148	24.25767
366.2821	27.74295
366.4493	25.26534
366.6166	23.41888
366.7838	25.45371
366.951	29.30154
367.1182	23.30866
367.2855	23.95766
367.4527	26.29954
367.6199	18.4771
367.7871	21.975
367.9543	23.35536
368.1215	26.41941
368.2886	26.46106
368.4558	28.75594
368.623	24.86265
368.7902	19.82966
368.9573	21.35124
369.1245	20.11353
369.2917	25.17872
369.4588	27.74941
369.6259	26.41118
369.7931	22.08741
369.9602	22.86147
370.1274	21.73359
370.2945	25.08198
370.4616	24.4065
370.6287	23.07495
370.7958	25.48056
370.963	26.74858
371.1301	24.8527
371.2971	22.36827
371.4643	24.32781
371.6313	29.71585
371.7984	29.80353
371.9655	29.02347
372.1326	26.98387
372.2997	29.8474
372.4667	22.89549
372.6338	23.71928
372.8008	23.67393
372.9679	30.07781
373.1349	27.42712
373.3019	30.22452
373.469	26.36233
373.636	28.30362
373.803	29.78573
373.9701	28.83493
374.1371	28.48203
374.3041	32.38101
374.4711	30.72835
374.6381	27.18425
374.8051	27.12679
374.9721	28.32609
375.1391	27.47121
375.3061	29.51299
375.473	29.60466
375.64	30.96706
375.8069	28.79697
375.9739	28.55687
376.1409	30.87444
376.3078	31.02687
376.4748	29.87566
376.6417	33.58372
376.8087	26.60648
376.9756	28.56142
377.1425	34.18985
377.3094	27.63555
377.4763	25.09218
377.6432	27.31112
377.8102	33.11739
377.9771	28.14055
378.144	35.05959
378.3109	34.67081
378.4777	31.55808
378.6446	24.42908
378.8115	24.6588
378.9784	23.61347
379.1452	28.70087
379.3121	27.33772
379.4789	22.96407
379.6458	26.11309
379.8127	22.87198
379.9795	26.43502
380.1463	27.58389
380.3131	30.05651
380.48	28.40693
380.6468	28.63265
380.8136	33.3974
380.9804	30.7946
381.1472	30.7881
381.314	29.21311
381.4808	26.78312
381.6476	26.78034
381.8144	28.96276
381.9812	27.04804
382.148	25.92862
382.3147	24.44356
382.4815	25.55196
382.6483	26.89403
382.815	22.08619
382.9818	23.92741
383.1485	30.05609
383.3153	31.53583
383.482	30.85138
383.6487	25.59964
383.8155	29.12795
383.9822	31.34927
384.1489	29.63595
384.3156	32.17013
384.4823	30.81731
384.649	28.20065
384.8157	31.99075
384.9824	34.98138
385.1491	35.08704
385.3158	31.89784
385.4825	31.71133
385.6491	31.66385
385.8158	28.24081
385.9825	33.41012
386.1491	33.0606
386.3157	36.04939
386.4824	35.53873
386.649	36.85028
386.8157	33.05984
386.9823	28.39189
387.1489	30.2339
387.3156	32.14587
387.4821	32.31532
387.6488	28.12566
387.8154	31.2541
387.982	29.61463
388.1486	33.42128
388.3152	32.38722
388.4818	32.61807
388.6483	36.79939
388.8149	37.19062
388.9815	35.14531
389.148	30.05979
389.3146	31.70689
389.4811	30.39942
389.6477	33.90179
389.8142	37.50958
389.9808	30.18908
390.1473	29.97945
390.3138	29.07055
390.4804	35.94546
390.6469	35.26502
390.8134	30.58776
390.9799	35.51898
391.1464	39.02933
391.3129	39.56238
391.4794	32.76476
391.6459	32.76741
391.8124	30.09972
391.9789	32.87962
392.1453	30.16031
392.3118	34.29104
392.4782	33.38708
392.6447	32.0937
392.8112	32.9062
392.9776	30.20926
393.144	31.76101
393.3105	32.78079
393.4769	27.94143
393.6433	32.10161
393.8098	32.90512
393.9762	34.46682
394.1426	33.30629
394.309	38.34857
394.4754	36.15501
394.6418	37.92579
394.8082	36.89175
394.9746	36.87078
395.141	36.02095
395.3073	33.66153
395.4737	37.20214
395.64	39.45703
395.8064	37.99264
395.9728	40.982
396.1391	36.33136
396.3055	35.08689
396.4718	31.69428
396.6381	34.64091
396.8045	32.05213
396.9708	30.22014
397.1371	33.6994
397.3034	31.20875
397.4697	33.65312
397.636	37.2256
397.8023	43.34957
397.9686	39.15548
398.1349	45.34249
398.3012	45.87879
398.4675	39.91943
398.6337	42.03906
398.8	45.20182
398.9662	44.64911
399.1325	42.1745
399.2988	43.17883
399.465	39.274
399.6313	37.21007
399.7975	44.53451
399.9637	45.19414
400.1299	40.48877
400.2961	46.12918
400.4624	46.1944
400.6286	43.41544
400.7948	42.71976
400.961	43.52846
401.1272	44.6653
401.2934	43.06041
401.4595	44.4456
401.6257	45.67313
401.7919	39.54064
401.9581	44.67272
402.1242	43.39307
402.2904	42.69062
402.4565	47.81155
402.6227	44.98356
402.7888	44.8079
402.955	46.29601
403.1211	42.54064
403.2872	41.98268
403.4533	42.12762
403.6194	46.35841
403.7856	45.01807
403.9517	43.31292
404.1177	44.87613
404.2838	45.35891
404.4499	40.07241
404.616	43.74603
404.7821	47.4914
404.9482	48.30309
405.1142	47.08419
405.2803	45.14063
405.4464	44.28799
405.6124	41.38816
405.7784	40.03965
405.9445	47.39055
406.1105	50.3579
406.2766	49.87251
406.4426	44.65355
406.6086	44.48852
406.7746	42.01979
406.9406	45.75763
407.1066	45.74434
407.2726	46.30171
407.4386	44.45332
407.6046	51.888
407.7706	48.77926
407.9366	49.67205
408.1025	51.84669
408.2685	53.21817
408.4344	49.30552
408.6004	55.0661
408.7664	49.10519
408.9323	59.61582
409.0983	56.02819
409.2642	55.99304
409.4301	56.45181
409.596	52.28724
409.762	54.62074
409.9279	52.29262
410.0938	43.38426
410.2597	51.49946
410.4256	56.9515
410.5915	60.21886
410.7574	58.44138
410.9232	59.25946
411.0891	53.33369
411.255	52.29425
411.4209	60.43401
411.5867	55.16813
411.7526	59.07808
411.9184	61.2053
412.0843	58.20251
412.2501	57.94784
412.4159	55.7016
412.5818	57.8993
412.7476	64.60999
412.9134	60.80249
413.0792	51.60431
413.245	53.13068
413.4108	53.31556
413.5766	59.25006
413.7424	57.45058
413.9082	60.22034
414.074	59.057
414.2397	64.12292
414.4055	57.06149
414.5713	61.11784
414.737	58.66971
414.9028	68.30243
415.0685	66.07577
415.2343	60.87538
415.4	62.59792
415.5658	62.58567
415.7315	58.88068
415.8972	59.76811
416.0629	55.41982
416.2286	59.21808
416.3943	63.28288
416.56	60.9747
416.7257	60.032
416.8914	63.71096
417.0571	57.90084
417.2228	55.31076
417.3884	55.29429
417.5541	53.30372
417.7198	55.6576
417.8854	54.22866
418.0511	64.47372
418.2167	60.83883
418.3824	60.23359
418.548	60.38256
418.7136	53.82576
418.8792	55.57908
419.0449	58.66711
419.2105	60.14884
419.3761	60.49553
419.5417	61.32249
419.7073	56.44302
419.8729	56.4029
420.0385	54.99703
420.204	56.48452
420.3696	59.40116
420.5352	64.57843
420.7007	65.01099
420.8663	65.12599
421.0319	72.31277
421.1974	67.19854
421.3629	63.48674
421.5285	63.70069
421.694	61.46238
421.8595	64.50623
422.0251	63.80434
422.1906	70.12424
422.3561	69.62621
422.5216	62.84684
422.6871	58.34825
422.8526	62.46574
423.0181	66.7598
423.1835	66.80206
423.349	65.68443
423.5145	65.96674
423.68	65.15306
423.8454	66.50745
424.0109	67.84108
424.1763	70.82445
424.3418	74.2536
424.5072	70.72278
424.6726	67.06813
424.838	66.96069
425.0035	65.88446
425.1689	71.55032
425.3343	71.89025
425.4997	65.58423
425.6651	66.73626
425.8305	69.3214
425.9959	66.49287
426.1613	68.42493
426.3267	70.58888
426.492	75.40907
426.6574	68.92324
426.8228	73.49288
426.9881	70.30035
427.1534	63.29254
427.3188	55.10982
427.4841	66.42342
427.6495	71.95872
427.8148	73.20348
427.9801	71.48422
428.1454	72.21847
428.3107	72.97473
428.476	69.53617
428.6414	69.84744
428.8066	69.47077
428.9719	66.1414
429.1372	68.76576
429.3025	69.0209
429.4678	69.9164
429.633	69.50282
429.7983	61.93502
429.9636	62.88253
430.1288	66.4205
430.294	69.07651
430.4593	64.88554
430.6245	65.94582
430.7897	62.58577
430.955	56.92536
431.1202	58.07011
431.2854	67.37593
431.4506	72.74729
431.6158	78.94478
431.781	84.2521
431.9462	79.84589
432.1114	74.81663
432.2766	74.52945
432.4417	68.61192
432.6069	65.98274
432.772	65.6311
432.9372	71.61753
433.1024	76.90847
433.2675	76.07002
433.4326	72.62109
433.5977	74.39813
433.7629	71.99103
433.928	65.24057
434.0931	63.62047
434.2582	69.1331
434.4233	72.7522
434.5884	76.37209
434.7535	76.53465
434.9186	79.43459
435.0837	78.02174
435.2488	79.69612
435.4138	78.12685
435.5789	81.10757
435.744	83.95053
435.909	79.76884
436.0741	81.31737
436.2391	83.245
436.4042	83.09954
436.5692	81.62593
436.7342	82.24622
436.8992	80.83233
437.0643	80.65987
437.2293	84.78271
437.3943	84.21072
437.5593	81.61411
437.7243	81.59188
437.8893	84.26397
438.0542	91.13507
438.2192	83.93584
438.3842	80.34464
438.5491	76.89961
438.7141	78.15907
438.8791	82.32791
439.044	80.59222
439.209	79.95291
439.3739	88.15453
439.5388	89.00364
439.7037	87.01147
439.8687	92.56584
440.0336	92.12598
440.1985	88.47356
440.3634	82.65888
440.5283	82.55645
440.6932	88.72337
440.8581	89.46893
441.0229	95.87444
441.1878	94.92211
441.3527	96.61864
441.5175	85.52784
441.6824	88.14002
441.8472	96.38818
442.0121	98.02509
442.1769	94.20672
442.3418	88.32268
442.5066	87.47125
442.6714	97.65776
442.8362	92.75615
443.001	88.8038
443.1659	92.1436
443.3307	94.32758
443.4955	91.34451
443.6602	96.87731
443.825	102.2062
443.9898	101.4488
444.1546	94.87937
444.3193	92.76342
444.4841	93.56972
444.6488	93.64122
444.8136	96.57687
444.9783	98.73994
445.1431	93.02292
445.3078	96.75652
445.4725	91.95461
445.6372	92.27696
445.802	90.22879
445.9667	88.28475
446.1314	95.40894
446.2961	92.72053
446.4608	99.05015
446.6255	96.70263
446.7901	95.03011
446.9548	92.24989
447.1195	99.23521
447.2841	99.58817
447.4488	103.5135
447.6134	102.4701
447.7781	103.2749
447.9427	101.7315
448.1074	99.56598
448.272	93.94376
448.4366	97.74879
448.6012	104.8567
448.7658	104.2774
448.9305	94.73113
449.095	99.81373
449.2596	100.221
449.4242	102.0017
449.5888	95.60801
449.7534	101.6781
449.9179	101.0276
450.0825	103.8969
450.2471	105.0608
450.4116	103.2929
450.5762	105.0647
450.7407	106.1845
450.9052	110.5416
451.0698	109.6046
451.2343	110.8519
451.3988	106.5754
451.5633	104.3424
451.7278	103.1614
451.8923	108.2346
452.0568	108.3291
452.2213	102.6732
452.3858	106.5841
452.5503	107.9308
452.7148	98.73853
452.8792	99.96041
453.0437	101.0479
453.2081	102.8694
453.3726	107.9586
453.537	104.786
453.7015	110.4574
453.8659	114.6498
454.0303	113.1392
454.1947	108.1127
454.3592	117.4108
454.5236	115.3008
454.688	109.5063
454.8524	114.9778
455.0168	113.9784
455.1811	113.4123
455.3455	114.5615
455.5099	104.2201
455.6743	113.778
455.8386	113.7289
456.003	117.2541
456.1673	119.455
456.3317	115.5914
456.496	114.022
456.6603	118.1334
456.8246	117.1604
456.989	118.6447
457.1533	115.1781
457.3176	113.5103
457.4819	115.0668
457.6462	115.9611
457.8105	115.4029
457.9748	111.8997
458.1391	119.793
458.3033	114.219
458.4676	117.7546
458.6319	116.0252
458.7961	115.1672
458.9604	118.679
459.1246	115.4339
459.2888	113.1008
459.4531	117.8555
459.6173	117.0137
459.7815	117.1674
459.9457	122.3734
460.11	119.0065
460.2741	117.0362
460.4384	114.8789
460.6025	113.3301
460.7667	118.3339
460.9309	119.0255
461.0951	121.0475
461.2592	112.1136
461.4234	118.7733
461.5876	114.8538
461.7517	113.2696
461.9159	117.8114
462.08	116.7251
462.2441	115.7652
462.4082	121.2842
462.5724	119.147
462.7365	123.2941
462.9006	121.738
463.0647	127.9889
463.2288	119.4547
463.3929	124.4474
463.557	120.6875
463.721	118.0018
463.8851	113.513
464.0492	118.5581
464.2132	121.8475
464.3773	117.1216
464.5414	116.7748
464.7054	118.0754
464.8694	118.4363
465.0334	116.6101
465.1975	119.4223
465.3615	124.0086
465.5255	117.7562
465.6895	116.1817
465.8535	120.3483
466.0175	124.1209
466.1815	117.4235
466.3455	120.5675
466.5095	121.2094
466.6734	115.0157
466.8374	117.4344
467.0014	117.5701
467.1653	116.0253
467.3293	116.6354
467.4932	119.958
467.6571	120.78
467.8211	120.7113
467.985	118.4224
468.1489	122.9651
468.3128	121.6607
468.4767	122.5108
468.6406	122.7653
468.8045	122.7743
468.9684	121.8768
469.1323	123.8878
469.2962	124.0621
469.46	128.6819
469.6239	128.5874
469.7878	127.1234
469.9516	126.279
470.1154	123.5107
470.2793	115.649
470.4431	124.4965
470.607	123.5165
470.7708	121.3505
470.9346	121.2882
471.0984	128.4925
471.2622	133.5307
471.426	128.2116
471.5898	126.289
471.7536	123.9723
471.9174	131.3754
472.0811	134.3842
472.2449	137.5107
472.4087	129.521
472.5724	131.7252
472.7362	130.593
472.8999	129.8455
473.0637	128.7761
473.2274	136.4109
473.3911	131.5814
473.5548	133.8208
473.7185	127.9696
473.8822	130.036
474.0459	130.1579
474.2096	132.1003
474.3733	136.6769
474.537	134.8629
474.7007	130.4365
474.8643	129.7118
475.028	128.9076
475.1917	128.608
475.3553	134.9412
475.519	131.1915
475.6826	130.0578
475.8463	133.7507
476.0099	139.7876
476.1735	133.5008
476.3371	128.034
476.5007	134.1665
476.6643	132.0277
476.8279	125.5471
476.9915	127.2355
477.1551	139.6971
477.3187	134.43
477.4823	132.3494
477.6458	144.4938
477.8094	136.9433
477.9729	138.8222
478.1365	138.2708
478.3	133.7896
478.4636	139.1327
478.6271	132.0772
478.7906	131.6923
478.9541	133.4596
479.1176	142.5963
479.2812	133.7006
479.4447	140.8276
479.6082	137.0258
479.7716	132.5369
479.9351	126.0085
480.0986	135.5697
480.2621	138.1758
480.4255	135.9867
480.589	133.303
480.7524	136.2507
480.9159	131.8731
481.0793	137.8852
481.2428	133.0869
481.4062	130.757
481.5696	130.2758
481.733	129.9411
481.8964	138.2509
482.0598	137.4417
482.2232	138.7491
482.3866	133.4804
482.55	130.0874
482.7134	130.3099
482.8768	136.7123
483.0401	140.76
483.2035	136.335
483.3668	134.8741
483.5302	128.919
483.6935	131.7006
483.8568	130.4545
484.0202	132.1472
484.1835	134.2567
484.3468	136.74
484.5101	132.8709
484.6734	133.7615
484.8367	132.8592
485	134.4322
485.1633	133.6312
485.3266	132.938
485.4899	129.0546
485.6531	124.8406
485.8164	123.6654
485.9796	118.2755
486.1429	108.8539
486.3061	117.4454
486.4694	121.8052
486.6326	124.2993
486.7958	130.8916
486.959	132.6356
487.1223	131.5155
487.2855	129.3403
487.4486	128.8761
487.6118	132.2082
487.775	137.2192
487.9382	133.8864
488.1014	137.5672
488.2646	145.4874
488.4277	141.8232
488.5909	135.6177
488.754	132.0053
488.9171	138.1518
489.0803	137.5439
489.2434	133.1292
489.4066	143.0933
489.5697	148.8821
489.7328	151.4641
489.8959	147.0114
490.059	142.3795
490.2221	140.4874
490.3852	143.3527
490.5482	146.9433
490.7113	148.7586
490.8744	147.3769
491.0374	141.8329
491.2005	137.8037
491.3636	137.8552
491.5266	138.5781
491.6896	142.6843
491.8527	141.0235
492.0157	132.9653
492.1787	137.8787
492.3417	134.9474
492.5047	133.9839
492.6677	137.0702
492.8307	150.8818
492.9937	154.2334
493.1567	152.3217
493.3196	149.2738
493.4826	147.8819
493.6456	144.8642
493.8085	145.7507
493.9715	141.3214
494.1344	145.5648
494.2974	149.4926
494.4603	149.4526
494.6232	146.756
494.7861	156.0813
494.949	147.4823
495.1119	154.3098
495.2748	153.0419
495.4377	151.02
495.6006	147.157
495.7635	142.8348
495.9264	144.018
496.0892	149.9035
496.2521	157.7636
496.4149	155.9711
496.5778	155.0592
496.7407	154.6931
496.9035	155.0713
497.0663	150.1784
497.2291	150.491
497.3919	148.7819
497.5547	152.2142
497.7176	149.2924
497.8804	153.0296
498.0432	152.6039
498.2059	146.6029
498.3687	145.0046
498.5315	147.1721
498.6942	156.6435
498.857	154.4543
499.0198	153.9494
499.1825	156.4665
499.3452	148.347
499.508	147.9512
499.6707	148.9216
499.8334	149.9788
499.9962	154.2716
500.1589	154.472
500.3216	152.3899
500.4843	151.3373
500.6469	153.0597
500.8096	149.3716
500.9723	152.41
501.135	156.7646
501.2976	153.3492
501.4603	142.7892
501.623	148.5071
501.7856	154.0516
501.9482	156.352
502.1109	152.0837
502.2735	154.6666
502.4361	158.508
502.5987	159.2216
502.7614	163.7552
502.924	160.5424
503.0865	157.5006
503.2491	160.6228
503.4117	161.6055
503.5743	163.0746
503.7368	161.981
503.8994	155.9103
504.062	150.4541
504.2245	154.6208
504.3871	158.6702
504.5496	163.7954
504.7121	168.9845
504.8746	164.6217
505.0372	154.8925
505.1997	156.0414
505.3622	167.0835
505.5247	171.0084
505.6872	172.5363
505.8497	174.2543
506.0121	179.7986
506.1746	173.0448
506.3371	174.2851
506.4995	172.7593
506.662	174.9978
506.8244	173.3475
506.9869	174.3374
507.1493	178.4194
507.3117	173.0674
507.4742	170.5915
507.6366	174.2635
507.799	173.8117
507.9614	175.6545
508.1238	170.8539
508.2862	164.0728
508.4485	170.8918
508.6109	174.3999
508.7733	180.3063
508.9357	184.8499
509.098	188.1607
509.2604	188.9745
509.4227	190.1297
509.5851	184.5414
509.7474	185.2303
509.9097	182.4222
510.072	180.0307
510.2343	180.0203
510.3966	183.4853
510.5589	183.8025
510.7212	187.0682
510.8835	187.2698
511.0458	183.334
511.2081	181.5178
511.3703	190.2012
511.5326	193.5736
511.6949	191.8295
511.8571	195.2955
512.0193	192.1406
512.1816	195.0271
512.3438	191.6208
512.506	183.6604
512.6682	185.2816
512.8304	182.8891
512.9926	183.4342
513.1548	183.6856
513.317	191.7556
513.4792	195.0657
513.6414	190.1585
513.8035	196.5467
513.9657	192.4565
514.1279	191.3504
514.29	195.447
514.4521	195.9645
514.6143	203.1223
514.7764	199.3322
514.9385	198.9918
515.1006	207.804
515.2628	202.717
515.4249	198.8327
515.587	203.6701
515.7491	199.9509
515.9111	205.3934
516.0732	211.7165
516.2353	203.916
516.3973	203.2442
516.5594	194.7726
516.7214	181.4878
516.8835	185.4536
517.0455	191.4923
517.2076	189.9418
517.3696	184.2993
517.5316	195.4373
517.6937	209.06
517.8557	212.6993
518.0176	209.2832
518.1796	205.7959
518.3416	195.341
518.5036	189.783
518.6656	199.8175
518.8275	209.1089
518.9895	215.4136
519.1514	219.6282
519.3134	215.3721
519.4753	213.915
519.6373	223.3477
519.7992	227.1709
519.9611	225.1771
520.123	224.7273
520.2849	227.5244
520.4468	222.6692
520.6087	211.2456
520.7706	215.3745
520.9325	220.2081
521.0944	224.7557
521.2562	226.4906
521.4181	228.6943
521.58	225.948
521.7418	227.2514
521.9036	232.2962
522.0655	239.5438
522.2273	249.4245
522.3891	240.296
522.551	236.1258
522.7128	227.405
522.8746	223.434
523.0363	230.2527
523.1981	230.4245
523.3599	238.5162
523.5217	233.8032
523.6835	241.6789
523.8452	249.9153
524.007	248.4196
524.1687	256.8687
524.3304	255.3996
524.4922	255.2486
524.6539	252.4554
524.8157	254.8131
524.9774	254.0049
525.1391	252.2283
525.3008	260.5094
525.4625	248.8989
525.6241	254.94
525.7858	256.7452
525.9475	267.8248
526.1092	262.8965
526.2709	247.6463
526.4325	241.4573
526.5942	238.3563
526.7558	240.4857
526.9174	238.0141
527.079	240.1767
527.2407	251.2912
527.4023	257.7698
527.5639	260.625
527.7255	262.6563
527.8871	264.7636
528.0487	267.9381
528.2103	269.019
528.3718	268.5535
528.5334	270.0529
528.695	274.326
528.8565	282.4487
529.0181	285.1806
529.1796	282.5433
529.3412	275.7223
529.5027	286.3228
529.6642	281.9664
529.8257	273.6833
529.9872	270.188
530.1487	275.8266
530.3102	276.2327
530.4717	286.2265
530.6332	291.5416
530.7947	290.8593
530.9562	297.2614
531.1176	300.7263
531.2791	291.4771
531.4405	286.3949
531.6019	283.8227
531.7634	277.7901
531.9248	286.7755
532.0862	284.3691
532.2477	283.6973
532.4091	285.9578
532.5704	277.5279
532.7319	273.7902
532.8932	277.009
533.0546	280.7338
533.216	287.0714
533.3774	287.5242
533.5388	288.2932
533.7001	295.2834
533.8615	291.7316
534.0228	290.9698
534.1841	289.0188
534.3455	291.4808
534.5068	294.7251
534.6681	294.3892
534.8293	286.895
534.9907	289.2172
535.152	293.6622
535.3132	295.2476
535.4745	301.251
535.6358	305.5425
535.7971	303.3973
535.9583	297.8273
536.1196	305.34
536.2808	303.4334
536.4421	296.3355
536.6033	293.0198
536.7645	290.8047
536.9258	287.8427
537.087	278.256
537.2482	287.7879
537.4094	297.9734
537.5706	306.8823
537.7318	295.5927
537.8929	299.0181
538.0541	298.1717
538.2153	297.1613
538.3764	299.1631
538.5376	297.0228
538.6987	299.4233
538.8599	301.1067
539.021	296.365
539.1821	295.6171
539.3432	289.2731
539.5043	289.6082
539.6655	281.9761
539.8265	285.6206
539.9876	286.2705
540.1487	281.2238
540.3098	287.1449
540.4708	281.0246
540.6319	275.6588
540.793	286.8297
540.954	287.5279
541.1151	284.9841
541.2761	285.3162
541.4371	295.3684
541.5981	292.157
541.7592	300.3109
541.9202	301.6221
542.0812	301.9656
542.2422	296.8686
542.4031	289.4266
542.5641	295.5907
542.7251	305.9432
542.886	301.2458
543.0471	297.3773
543.208	292.5808
543.369	298.1526
543.5298	296.6337
543.6908	297.3104
543.8517	299.332
544.0126	307.3336
544.1736	304.0712
544.3345	299.7486
544.4954	299.4741
544.6563	297.6442
544.8171	296.4342
544.978	306.8728
545.1389	302.6143
545.2997	305.9592
545.4606	305.98
545.6215	303.1628
545.7823	300.9468
545.9432	299.8328
546.104	301.491
546.2648	302.3004
546.4256	300.9153
546.5864	296.3425
546.7473	310.9025
546.908	305.4202
547.0688	305.1443
547.2296	310.738
547.3904	300.2782
547.5511	297.9454
547.7119	290.8133
547.8727	295.7828
548.0334	295.3242
548.1942	298.4727
548.3549	303.801
548.5156	307.2828
548.6763	299.279
548.837	306.0786
548.9977	305.1046
549.1584	302.5985
549.3192	307.944
549.4798	303.4888
549.6405	300.4455
549.8011	309.799
549.9619	309.7757
550.1225	314.2934
550.2831	296.279
550.4438	305.2864
550.6044	306.1979
550.765	313.1482
550.9257	308.3334
551.0863	307.0376
551.2469	305.2886
551.4075	306.3526
551.5681	308.0225
551.7287	310.3445
551.8893	307.5894
552.0498	316.2919
552.2104	314.1671
552.371	311.9875
552.5315	310.8219
552.6921	305.7039
552.8526	306.1529
553.0131	306.3206
553.1736	296.2522
553.3342	311.3665
553.4947	307.8798
553.6552	312.6015
553.8157	308.1926
553.9762	308.8529
554.1367	309.5071
554.2971	310.6607
554.4576	306.2538
554.618	305.4616
554.7785	309.3189
554.939	310.3155
555.0994	310.4536
555.2598	312.7459
555.4203	307.108
555.5807	303.9186
555.7411	306.3264
555.9015	305.1507
556.0619	296.8619
556.2223	303.9486
556.3827	307.7957
556.5431	304.9892
556.7034	300.6462
556.8638	294.1646
557.0242	294.5632
557.1845	292.6309
557.3448	287.4917
557.5052	291.3674
557.6655	300.4775
557.8259	300.1273
557.9861	300.0043
558.1465	306.9022
558.3068	296.6542
558.467	298.9344
558.6274	293.3202
558.7877	279.6892
558.9479	275.6651
559.1082	283.5247
559.2684	291.2314
559.4287	292.072
559.5889	285.8468
559.7491	288.9123
559.9094	284.5785
560.0696	289.4251
560.2299	288.5338
560.3901	284.8888
560.5502	284.2499
560.7104	296.6295
560.8707	299.8337
561.0308	296.6234
561.191	290.4023
561.3511	291.417
561.5114	287.1165
561.6714	277.8286
561.8316	284.7315
561.9918	278.4866
562.1519	287.7423
562.312	285.9738
562.4722	282.3896
562.6323	282.0086
562.7924	289.2379
562.9525	294.3111
563.1125	292.6521
563.2726	286.4961
563.4327	285.462
563.5928	273.1928
563.7528	278.1929
563.9129	280.5641
564.0729	278.9327
564.233	271.9633
564.393	267.0637
564.553	275.4905
564.7131	281.4258
564.873	285.5498
565.0331	270.596
565.1931	278.0627
565.353	269.9028
565.5131	271.3355
565.673	265.959
565.833	263.703
565.9929	259.228
566.1529	261.4251
566.3129	270.3372
566.4728	270.0861
566.6328	269.5124
566.7927	276.0136
566.9526	278.7883
567.1125	273.3462
567.2724	265.4729
567.4323	276.538
567.5922	278.189
567.7521	271.4911
567.9119	269.7463
568.0718	264.4631
568.2317	267.0081
568.3915	260.4333
568.5514	260.7862
568.7112	262.9867
568.871	257.2905
569.0309	257.4964
569.1907	259.0566
569.3505	258.5225
569.5103	265.9284
569.6701	267.8184
569.8299	262.5788
569.9897	257.3065
570.1495	253.9535
570.3092	249.935
570.469	251.9471
570.6287	252.9653
570.7885	248.7291
570.9482	243.0609
571.108	235.9588
571.2677	247.1732
571.4274	251.9454
571.5871	253.3255
571.7468	261.4409
571.9066	251.6464
572.0662	259.1352
572.2259	248.7932
572.3856	251.604
572.5452	252.0008
572.7049	257.5866
572.8646	258.8627
573.0242	259.223
573.1838	257.767
573.3435	251.593
573.5031	256.4737
573.6627	258.67
573.8223	252.6579
573.9819	254.7291
574.1415	257.582
574.3011	260.2454
574.4607	258.0306
574.6203	247.6587
574.7798	253.801
574.9394	254.5774
575.099	257.257
575.2585	248.2881
575.418	244.2342
575.5776	247.399
575.7371	244.6869
575.8966	246.9982
576.0562	246.8582
576.2156	246.6331
576.3751	241.3071
576.5346	242.6319
576.6941	244.0169
576.8536	242.3649
577.0131	240.9216
577.1725	244.2862
577.332	241.7658
577.4914	237.0039
577.6508	240.7341
577.8103	240.1302
577.9697	237.0474
578.1291	235.8427
578.2885	243.4563
578.4479	230.5929
578.6073	227.6474
578.7667	229.3727
578.9261	239.9147
579.0854	240.4904
579.2448	239.2358
579.4042	241.979
579.5635	234.1985
579.7229	237.6792
579.8822	236.3687
580.0416	237.9746
580.2009	237.8951
580.3602	241.1244
580.5195	232.5401
580.6788	228.032
580.8381	227.2405
580.9974	227.2374
581.1566	235.5533
581.3159	232.5839
581.4752	231.9727
581.6345	228.6705
581.7937	231.9919
581.9529	229.6777
582.1122	230.2172
582.2714	234.1212
582.4306	236.9852
582.5898	238.2428
582.749	237.4749
582.9082	228.7919
583.0674	231.9238
583.2266	226.2858
583.3857	227.6313
583.5449	231.6527
583.7041	225.9207
583.8633	220.6949
584.0224	224.2536
584.1815	239.4578
584.3407	230.4038
584.4998	229.3001
584.6589	228.0246
584.818	223.166
584.9771	230.4691
585.1362	222.8979
585.2953	211.9012
585.4544	212.0367
585.6135	220.4292
585.7725	219.9407
585.9316	219.7605
586.0906	214.3786
586.2497	216.9269
586.4087	221.5451
586.5677	222.4519
586.7267	215.1303
586.8858	215.065
587.0448	218.3522
587.2038	225.0838
587.3628	222.0361
587.5218	223.5238
587.6807	219.4253
587.8397	214.1604
587.9987	212.6005
588.1577	215.401
588.3166	202.4647
588.4755	204.8647
588.6345	210.997
588.7934	207.5534
588.9523	199.7851
589.1112	193.2027
589.2701	200.2981
589.429	199.231
589.5879	198.1865
589.7468	198.1255
589.9056	203.0698
590.0645	205.4936
590.2234	199.4262
590.3822	208.9219
590.5411	208.3389
590.6999	205.4487
590.8588	210.2736
591.0176	209.0441
591.1764	208.7942
591.3352	211.944
591.494	209.0459
591.6528	210.9122
591.8116	206.8445
591.9703	204.5551
592.1291	205.5193
592.2878	206.7906
592.4467	205.8472
592.6053	212.0736
592.7641	209.4255
592.9229	205.419
593.0816	198.1492
593.2403	197.6963
593.399	199.0674
593.5577	203.4158
593.7164	203.5652
593.8751	203.7868
594.0338	205.8596
594.1924	201.7442
594.3511	203.2432
594.5098	204.8687
594.6684	203.2593
594.8271	208.7063
594.9857	207.0623
595.1443	203.9134
595.303	199.3164
595.4615	199.2232
595.6202	200.1975
595.7787	204.3244
595.9374	206.0925
596.0959	207.1615
596.2545	200.9522
596.4131	207.8437
596.5717	205.7835
596.7302	200.4766
596.8887	199.7874
597.0473	204.9221
597.2058	201.9854
597.3644	201.5817
597.5229	204.3233
597.6814	201.4812
597.8399	199.0726
597.9984	204.5495
598.1569	208.4975
598.3154	201.4852
598.4738	203.554
598.6323	203.6644
598.7908	200.2328
598.9492	192.2789
599.1076	195.6076
599.2661	198.4888
599.4245	205.5821
599.5829	208.0627
599.7413	207.4553
599.8997	199.3233
600.0581	204.9041
600.2165	207.2793
600.3749	199.7916
600.5333	206.0666
600.6917	205.1976
600.85	202.2242
601.0084	199.9002
601.1667	200.3338
601.325	203.3218
601.4833	206.848
601.6417	200.0028
601.8	203.2014
601.9583	194.1544
602.1166	197.4094
602.2749	193.5725
602.4332	197.8525
602.5914	200.8011
602.7498	198.4512
602.908	201.8374
603.0662	209.2441
603.2245	209.2659
603.3828	202.8781
603.541	206.9342
603.6992	197.3141
603.8574	198.2112
604.0156	194.074
604.1738	198.6943
604.332	202.1
604.4902	196.3567
604.6484	199.155
604.8065	202.4023
604.9647	204.8743
605.1229	202.6853
605.281	198.4286
605.4391	192.9031
605.5973	188.6131
605.7554	193.7418
605.9135	204.3368
606.0717	193.1462
606.2297	186.2346
606.3878	193.0324
606.5459	192.8955
606.704	198.136
606.8621	194.7923
607.0201	194.4269
607.1782	194.7404
607.3362	200.1299
607.4943	194.3755
607.6523	187.4819
607.8104	191.8649
607.9684	189.7667
608.1264	188.8372
608.2844	189.4413
608.4424	190.9385
608.6003	194.0309
608.7584	192.7315
608.9163	188.9756
609.0743	194.2967
609.2322	189.6721
609.3902	185.07
609.5482	190.0073
609.7061	181.1967
609.864	183.5258
610.0219	192.6053
610.1798	184.2656
610.3377	186.9458
610.4956	184.0587
610.6535	190.7104
610.8114	189.2921
610.9693	192.4698
611.1271	184.7831
611.285	189.291
611.4429	189.7259
611.6007	190.6248
611.7585	190.0189
611.9164	185.2049
612.0742	183.5501
612.232	189.136
612.3898	187.0408
612.5476	181.1355
612.7054	179.8714
612.8632	185.1767
613.0209	188.1149
613.1787	182.7217
613.3365	180.6442
613.4942	186.2242
613.652	179.923
613.8097	179.1208
613.9674	181.7485
614.1252	184.2665
614.2829	185.4757
614.4406	183.6575
614.5983	190.8181
614.756	182.7242
614.9136	171.8842
615.0714	179.2782
615.229	181.5927
615.3867	179.7438
615.5443	174.9417
615.702	172.0613
615.8596	169.8764
616.0172	180.8903
616.1748	174.3975
616.3325	168.2745
616.4901	172.0049
616.6476	175.0467
616.8052	179.7411
616.9628	179.8869
617.1204	182.7509
617.278	173.4501
617.4355	178.7697
617.5931	174.5476
617.7506	173.1653
617.9081	177.9686
618.0657	176.8607
618.2232	181.1987
618.3807	177.4612
618.5382	175.0957
618.6957	173.8499
618.8532	171.0657
619.0107	172.5443
619.1682	176.3098
619.3256	174.3107
619.4831	175.1372
619.6406	173.1474
619.798	182.849
619.9554	180.7258
620.1129	176.3618
620.2703	180.9955
620.4277	179.4734
620.5851	172.3625
620.7425	175.42
620.8998	173.6546
621.0573	175.641
621.2146	174.9756
621.372	172.511
621.5294	170.7313
621.6867	179.8934
621.8441	177.6536
622.0013	174.3237
622.1587	173.8285
622.316	172.8643
622.4733	176.7039
622.6306	173.7523
622.7879	170.5631
622.9452	168.4564
623.1025	170.0669
623.2598	167.7557
623.4171	176.4371
623.5743	176.1051
623.7316	168.8919
623.8888	166.0826
624.046	168.5709
624.2032	168.2876
624.3605	167.0482
624.5176	170.0785
624.6749	169.8333
624.8321	168.9645
624.9893	165.566
625.1464	172.2487
625.3036	171.6607
625.4608	168.0702
625.6179	170.1111
625.7751	165.6108
625.9322	165.9438
626.0894	169.1346
626.2465	170.9809
626.4036	173.6227
626.5607	170.2377
626.7178	170.2591
626.8749	164.9932
627.032	168.4728
627.189	169.18
627.3461	168.1162
627.5032	170.7756
627.6602	164.2495
627.8173	165.9218
627.9743	165.2124
628.1313	163.1566
628.2884	167.8734
628.4454	162.804
628.6024	162.6778
628.7594	170.6438
628.9164	169.9847
629.0734	166.0054
629.2303	166.8962
629.3873	162.0839
629.5443	161.1371
629.7012	164.7057
629.8582	162.1971
630.0151	158.3663
630.172	163.479
630.3289	166.0574
630.4858	168.3412
630.6428	166.1229
630.7996	158.0609
630.9565	168.0167
631.1134	165.5732
631.2703	161.1365
631.4272	164.786
631.584	162.9758
631.7408	165.1985
631.8977	158.3087
632.0546	160.0331
632.2114	157.078
632.3682	165.8955
632.525	161.2261
632.6818	163.8655
632.8386	166.6574
632.9954	157.2362
633.1522	159.1429
633.3089	159.2903
633.4657	160.0381
633.6224	157.9546
633.7792	164.0077
633.9359	158.4522
634.0927	164.4601
634.2494	160.138
634.4061	164.8597
634.5628	165.0328
634.7195	159.5718
634.8762	158.5981
635.0329	162.8736
635.1895	163.864
635.3462	164.6465
635.5029	156.1884
635.6595	162.0639
635.8162	163.4395
635.9728	157.9616
636.1295	158.0657
636.2861	158.475
636.4427	159.5359
636.5992	162.4295
636.7559	157.506
636.9124	160.0142
637.069	162.9732
637.2256	157.4991
637.3821	155.694
637.5387	163.258
637.6953	165.1328
637.8518	161.8579
638.0084	165.7287
638.1649	156.4798
638.3214	162.2269
638.4779	166.9141
638.6344	158.648
638.7909	162.4749
638.9474	160.9349
639.1038	159.8396
639.2603	155.3837
639.4167	157.0557
639.5732	158.7589
639.7297	155.8129
639.8861	154.55
640.0425	150.3459
640.199	152.759
640.3553	150.9862
640.5118	159.4667
640.6682	156.6855
640.8245	150.327
640.981	155.4139
641.1373	150.8553
641.2936	148.4774
641.45	154.0091
641.6064	150.5665
641.7627	151.1812
641.9191	148.9926
642.0754	155.6181
642.2317	155.2794
642.388	159.3362
642.5443	160.1831
642.7006	155.1644
642.8569	150.7507
643.0131	150.0185
643.1694	148.1085
643.3257	149.115
643.4819	158.083
643.6382	158.2366
643.7944	147.8431
643.9506	152.5486
644.1069	150.4941
644.2631	154.0239
644.4193	152.8127
644.5754	146.028
644.7316	146.3509
644.8878	146.1284
645.044	146.7037
645.2002	146.1968
645.3563	144.7072
645.5125	144.0036
645.6686	148.1598
645.8248	148.1941
645.9809	147.3989
646.137	141.7069
646.2931	143.1665
646.4492	144.3996
646.6053	151.1598
646.7614	149.6271
646.9174	146.9128
647.0735	142.3703
647.2296	140.1132
647.3856	142.5273
647.5417	142.1752
647.6977	143.1737
647.8537	141.833
648.0098	144.1066
648.1658	141.9102
648.3218	137.96
648.4777	141.2868
648.6337	142.7138
648.7897	139.3453
648.9457	134.5313
649.1016	141.832
649.2576	137.9102
649.4135	136.0707
649.5695	135.1808
649.7254	133.9605
649.8813	140.9493
650.0372	146.2591
650.1932	138.2603
650.3491	140.1912
650.5049	143.4037
650.6608	145.943
650.8167	137.3156
650.9725	136.9503
651.1284	146.9226
651.2842	141.8527
651.4401	137.2892
651.5959	135.702
651.7518	136.2357
651.9076	131.5637
652.0634	135.1308
652.2192	138.2179
652.3749	135.5476
652.5308	136.883
652.6865	138.6767
652.8423	141.4569
652.998	140.0921
653.1538	138.3806
653.3096	132.9767
653.4653	139.082
653.621	141.6488
653.7767	139.9387
653.9324	130.0559
654.0881	134.9725
654.2438	138.1861
654.3995	133.7249
654.5552	135.8141
654.7109	137.7318
654.8665	134.1182
655.0222	135.5442
655.1778	141.4343
655.3334	137.4128
655.4891	132.8514
655.6447	136.5702
655.8003	133.4507
655.9559	125.4831
656.1115	122.9449
656.2671	126.2118
656.4227	123.3251
656.5782	127.3457
656.7338	131.3664
656.8893	132.1271
657.0449	131.5578
657.2004	124.7605
657.356	121.7681
657.5115	131.7968
657.667	133.3064
657.8225	134.3257
657.978	132.3851
658.1335	133.2438
658.289	133.6203
658.4445	137.7664
658.5999	129.4167
658.7554	127.5902
658.9108	132.664
659.0663	138.1599
659.2217	132.1255
659.3771	125.3196
659.5325	127.178
659.6879	128.0536
659.8433	132.6273
659.9987	129.7182
660.1541	130.7263
660.3095	126.8016
660.4648	132.2036
660.6202	134.6643
660.7756	130.6223
660.9309	127.9394
661.0862	128.7719
661.2416	130.3301
661.3969	129.4062
661.5522	130.5704
661.7075	130.7954
661.8628	135.3246
662.0181	132.3086
662.1733	128.8963
662.3286	125.969
662.4839	122.8643
662.6391	131.322
662.7944	130.3041
662.9496	125.3807
663.1048	122.8899
663.26	127.1473
663.4152	126.5181
663.5704	124.6616
663.7256	128.5917
663.8808	125.5885
664.036	123.2558
664.1912	123.5769
664.3463	127.0099
664.5015	125.3573
664.6566	125.3174
664.8118	123.7505
664.9669	128.8064
665.122	128.7996
665.2771	123.5429
665.4322	121.9078
665.5873	119.2965
665.7424	119.4896
665.8975	123.8684
666.0526	125.9762
666.2076	129.1613
666.3627	126.2314
666.5177	121.5677
666.6727	121.9516
666.8278	128.1529
666.9828	128.1334
667.1378	123.5404
667.2928	121.5421
667.4478	119.1652
667.6028	120.7861
667.7578	122.5663
667.9127	124.1203
668.0677	122.606
668.2226	119.4692
668.3776	121.8691
668.5325	122.3491
668.6874	124.2308
668.8423	122.4865
668.9973	119.5407
669.1522	118.3402
669.3071	125.8399
669.4619	120.7254
669.6168	118.0187
669.7717	119.6173
669.9265	110.1621
670.0814	115.945
670.2362	120.9755
670.3911	119.6802
670.5459	116.469
670.7007	121.5029
670.8555	119.7593
671.0103	122.3382
671.1651	121.3278
671.3199	115.7461
671.4747	115.9994
671.6295	112.8782
671.7842	115.2071
671.939	119.4114
672.0937	114.2237
672.2484	115.7752
672.4031	115.9767
672.5579	115.5686
672.7126	115.2611
672.8673	124.6619
673.022	122.0775
673.1767	121.5992
673.3314	122.8463
673.486	122.5726
673.6407	119.6237
673.7953	116.1805
673.95	118.8757
674.1046	113.87
674.2592	112.716
674.4138	118.2362
674.5684	119.0401
674.723	122.6721
674.8776	126.1863
675.0322	123.6543
675.1868	115.2311
675.3414	116.3307
675.4959	111.4642
675.6505	116.3576
675.805	114.646
675.9595	114.7898
676.1141	119.5857
676.2686	108.8366
676.4231	108.9548
676.5776	111.8759
676.7321	112.664
676.8866	118.7719
677.041	114.467
677.1955	118.4178
677.35	120.7616
677.5044	117.1994
677.6589	117.6904
677.8133	114.7869
677.9677	115.795
678.1221	115.6893
678.2766	115.567
678.4309	115.765
678.5853	114.8385
678.7397	115.6779
678.8941	111.0619
679.0485	114.9158
679.2028	115.3153
679.3571	115.8483
679.5115	118.1775
679.6658	117.023
679.8201	119.8776
679.9744	116.3481
680.1288	107.9228
680.2831	113.862
680.4373	111.9014
680.5916	109.7795
680.7459	110.8561
680.9001	116.8302
681.0544	112.1905
681.2087	113.7151
681.3629	118.9133
681.5171	117.7144
681.6713	111.1677
681.8256	112.3374
681.9797	116.9911
682.134	113.4126
682.2881	119.5069
682.4423	119.6472
682.5965	110.6026
682.7507	119.2483
682.9048	119.0537
683.059	114.7528
683.2131	116.0996
683.3672	112.2529
683.5213	113.9853
683.6754	111.9901
683.8295	110.0279
683.9836	111.7724
684.1377	117.7159
684.2918	114.7519
684.4459	112.3065
684.5999	111.2355
684.754	117.5157
684.908	111.3272
685.062	112.8867
685.2161	115.3568
685.3701	113.4391
685.5241	115.5779
685.6781	113.3607
685.8321	117.8837
685.9861	122.2545
686.14	118.1929
686.294	110.058
686.4479	119.4205
686.6019	117.2178
686.7559	113.1851
686.9098	110.7932
687.0637	102.1774
687.2176	105.211
687.3715	103.7259
687.5254	105.1083
687.6793	107.7339
687.8332	112.2192
687.9871	114.4603
688.1409	111.3741
688.2947	109.8753
688.4486	111.3176
688.6024	114.9007
688.7563	115.5465
688.9101	107.3798
689.0639	110.8366
689.2177	111.025
689.3715	112.8482
689.5253	110.3368
689.6791	115.3586
689.8328	111.8245
689.9866	116.6939
690.1403	116.7008
690.2941	112.4564
690.4478	117.2846
690.6015	114.8803
690.7552	111.5095
690.9089	116.2697
691.0626	118.4388
691.2164	113.8091
691.37	119.6322
691.5237	120.7761
691.6774	121.4009
691.831	116.5336
691.9847	116.5249
692.1383	117.2807
692.2919	124.4665
692.4456	121.6346
692.5992	126.5116
692.7527	126.9189
692.9064	122.4861
693.0599	126.3728
693.2136	118.0032
693.3671	119.1648
693.5207	121.4853
693.6742	121.1705
693.8278	125.937
693.9813	125.6501
694.1348	119.6632
694.2883	123.8933
694.4418	123.1924
694.5953	122.6227
694.7488	118.0618
694.9023	126.8149
695.0558	130.3788
695.2093	128.4423
695.3627	123.6266
695.5162	120.5277
695.6696	128.6289
695.8231	123.9743
695.9764	129.1659
696.1299	130.9072
696.2833	131.0327
696.4367	129.1814
696.5901	128.8705
696.7435	137.6932
696.8968	135.6841
697.0502	134.6141
697.2036	137.6768
697.3569	140.0091
697.5102	134.6894
697.6635	131.5197
697.8168	130.4101
697.9702	131.1565
698.1235	130.835
698.2768	129.5417
698.4301	132.9631
698.5833	137.4109
698.7366	136.5582
698.8898	130.8404
699.0431	133.0397
699.1964	138.9031
699.3495	135.1773
699.5028	139.4749
699.656	135.7904
699.8092	143.5089
699.9624	138.9936
700.1156	135.569
700.2688	137.6995
700.4219	139.2482
700.5751	139.8542
700.7283	139.9782
700.8814	140.6941
701.0345	140.3526
701.1877	144.7818
701.3408	140.6225
701.4939	142.9793
701.647	140.4729
701.8001	141.1467
701.9532	140.3559
702.1063	150.3828
702.2593	146.7442
702.4124	152.0636
702.5654	146.3321
702.7184	149.3687
702.8715	144.7949
703.0245	148.3334
703.1776	153.0735
703.3305	149.7466
703.4835	148.7014
703.6365	150.2376
703.7895	149.1158
703.9424	152.9503
704.0954	153.1927
704.2484	156.1758
704.4013	153.0417
704.5543	156.9953
704.7072	155.4381
704.8601	152.3723
705.013	156.4322
705.1659	156.19
705.3188	155.8689
705.4717	158.9463
705.6246	160.8363
705.7774	160.699
705.9303	151.5927
706.0831	153.4351
706.236	161.3238
706.3888	157.5726
706.5416	164.0451
706.6944	164.2958
706.8472	163.1252
707	164.1049
707.1528	163.076
707.3056	165.2117
707.4583	158.4812
707.6111	160.6973
707.7639	170.4011
707.9166	169.0213
708.0693	168.8279
708.222	170.7163
708.3748	170.0802
708.5275	164.7904
708.6802	163.6929
708.8328	169.4258
708.9855	164.4243
709.1382	166.68
709.2909	164.9458
709.4435	172.4244
709.5962	179.262
709.7488	169.0422
709.9014	173.9802
710.054	172.2007
710.2067	173.4496
710.3593	175.1
710.5118	171.4589
710.6644	177.2887
710.817	179.7024
710.9695	175.9143
711.1221	170.1498
711.2747	170.6611
711.4272	171.2831
711.5797	178.2625
711.7322	184.752
711.8848	177.1485
712.0373	173.9617
712.1898	177.3909
712.3422	175.2607
712.4948	175.6495
712.6472	177.065
712.7996	174.2325
712.9521	174.2995
713.1046	182.1023
713.257	184.1842
713.4094	177.8106
713.5618	179.3221
713.7142	185.1955
713.8666	182.4508
714.019	187.3877
714.1714	181.7579
714.3237	176.4539
714.4761	185.3219
714.6285	184.923
714.7808	184.4577
714.9331	183.9216
715.0854	177.8401
715.2378	182.4011
715.3901	182.1311
715.5424	184.0897
715.6947	187.0243
715.8469	185.7267
715.9992	188.7791
716.1515	179.5059
716.3037	186.1155
716.456	185.9222
716.6082	181.2
716.7604	175.4518
716.9127	168.9997
717.0649	166.1495
717.2171	175.8468
717.3693	173.7247
717.5214	170.8807
717.6736	162.2212
717.8258	165.8015
717.978	171.5965
718.1301	167.7857
718.2822	167.4055
718.4344	160.3949
718.5865	165.6302
718.7386	166.6478
718.8907	168.4401
719.0428	177.3146
719.1949	167.9629
719.3469	164.7826
719.499	171.5225
719.6511	168.971
719.8031	174.1227
719.9551	165.5045
720.1072	166.3439
720.2592	167.9477
720.4112	169.6371
720.5632	166.2687
720.7152	171.333
720.8672	174.3977
721.0192	177.3765
721.1711	188.2542
721.3231	190.6656
721.475	192.0451
721.627	195.5312
721.7789	189.6539
721.9308	191.3476
722.0828	192.5641
722.2347	192.4612
722.3866	191.1726
722.5385	193.2859
722.6903	194.5143
722.8422	194.1445
722.9941	189.5576
723.1459	191.8688
723.2977	181.3355
723.4496	181.1145
723.6014	174.1988
723.7532	185.6303
723.905	192.1335
724.0568	182.6723
724.2086	184.0205
724.3604	178.9807
724.5121	186.6326
724.6639	186.323
724.8157	186.8206
724.9674	191.9466
725.1191	190.9506
725.2709	182.5536
725.4226	183.1859
725.5743	190.8294
725.726	193.5582
725.8777	193.6385
726.0294	189.9767
726.181	196.5027
726.3327	186.4725
726.4844	184.0082
726.636	194.4927
726.7877	199.2586
726.9393	200.7663
727.0909	201.3262
727.2425	199.8617
727.3941	196.4376
727.5457	187.5103
727.6973	189.0685
727.8488	186.6877
728.0004	194.0761
728.1519	199.4211
728.3035	198.0718
728.455	204.3773
728.6066	199.5378
728.7581	199.3645
728.9095	188.4013
729.0611	187.179
729.2126	180.8716
729.364	189.7531
729.5155	197.998
729.667	206.6016
729.8184	209.3984
729.9698	209.3947
730.1213	210.8733
730.2727	198.157
730.4241	196.907
730.5756	202.7158
730.7269	202.2749
730.8784	203.7716
731.0297	202.4462
731.1811	200.6047
731.3325	206.4466
731.4838	212.6805
731.6351	211.0161
731.7865	208.3896
731.9378	210.0393
732.0891	210.638
732.2404	219.9519
732.3917	223.0263
732.543	218.5933
732.6943	219.548
732.8456	222.3489
732.9968	219.4995
733.1481	223.0085
733.2993	227.2582
733.4506	223.0946
733.6018	220.7091
733.753	219.5534
733.9042	224.8267
734.0554	222.992
734.2066	226.7637
734.3578	229.9594
734.509	224.3847
734.6602	223.0255
734.8113	219.6265
734.9624	221.8408
735.1136	224.9486
735.2647	232.0777
735.4158	231.5357
735.5669	231.6826
735.718	234.2828
735.8691	230.821
736.0201	229.9932
736.1713	222.3738
736.3223	227.3921
736.4733	221.1916
736.6244	215.5687
736.7755	231.9167
736.9265	226.924
737.0775	225.2448
737.2285	230.3712
737.3795	233.3227
737.5305	238.7927
737.6815	243.4398
737.8324	241.5748
737.9834	245.0719
738.1343	235.1111
738.2853	234.3049
738.4362	224.2368
738.5871	230.3853
738.738	228.599
738.8889	224.3092
739.0399	227.5701
739.1907	219.5742
739.3416	230.2814
739.4925	232.3934
739.6433	232.7982
739.7942	229.2713
739.945	231.5906
740.0958	234.9004
740.2467	230.6684
740.3975	238.3501
740.5483	243.8638
740.6991	240.8264
740.8499	236.7805
741.0007	233.2054
741.1514	229.3748
741.3022	232.6217
741.4529	234.0852
741.6036	231.7995
741.7544	239.4108
741.9051	238.1991
742.0558	237.0775
742.2065	230.2397
742.3572	231.9995
742.5079	235.437
742.6586	226.8807
742.8093	232.3038
742.9599	247.9262
743.1105	238.496
743.2612	234.9669
743.4118	238.3315
743.5624	237.7975
743.7131	240.2806
743.8636	235.4211
744.0142	233.9698
744.1648	234.718
744.3154	237.1159
744.4659	239.5806
744.6165	236.9475
744.767	236.3144
744.9176	229.9862
745.0681	230.4922
745.2186	233.9373
745.3691	235.8598
745.5197	235.5709
745.6702	235.2922
745.8206	239.6416
745.9711	245.0159
746.1215	233.0733
746.272	234.4068
746.4224	231.5496
746.5729	236.8444
746.7233	240.0872
746.8737	236.6585
747.0241	233.126
747.1745	229.1
747.3249	231.6159
747.4753	242.4665
747.6257	239.7847
747.776	228.861
747.9264	234.452
748.0767	236.0118
748.2271	229.5878
748.3774	224.3936
748.5276	231.2924
748.678	230.1748
748.8282	231.9137
748.9786	236.2384
749.1288	232.1469
749.2791	231.2591
749.4294	224.0778
749.5796	223.6452
749.7299	230.1049
749.8801	230.8409
750.0303	226.2555
750.1805	226.4084
750.3307	226.436
750.4809	231.426
750.6311	233.2693
750.7813	227.5879
750.9314	229.7763
751.0816	225.5697
751.2318	226.2961
751.3818	224.7359
751.532	228.4588
751.6821	230.2232
751.8322	225.3907
751.9823	229.7519
752.1324	222.1851
752.2825	230.0991
752.4326	229.6098
752.5826	215.647
752.7327	218.6659
752.8827	214.364
753.0327	219.9605
753.1827	221.18
753.3328	217.4498
753.4828	221.4413
753.6328	221.983
753.7828	221.9955
753.9327	226.5842
754.0827	227.4491
754.2327	220.337
754.3826	220.8831
754.5325	219.8758
754.6825	217.6222
754.8324	224.7471
754.9823	221.9701
755.1322	214.8372
755.2821	214.1443
755.432	216.5551
755.5818	222.8204
755.7318	214.7337
755.8816	212.5507
756.0314	220.8154
756.1813	214.7165
756.3311	215.8285
756.4809	218.6142
756.6307	215.9636
756.7805	210.4388
756.9303	208.1756
757.0801	207.6687
757.2299	211.4607
757.3796	216.2502
757.5294	215.7087
757.6791	208.1748
757.8289	213.5257
757.9786	207.8346
758.1283	208.3044
758.278	202.3669
758.4277	202.4376
758.5773	204.4541
758.7271	202.8924
758.8767	195.3258
759.0264	196.2555
759.176	193.8771
759.3256	182.9736
759.4753	164.3493
759.6249	138.1335
759.7745	116.1703
759.9241	104.0374
760.0737	97.97897
760.2233	95.01932
760.3729	84.23454
760.5224	83.00167
760.6719	83.85979
760.8215	78.52669
760.971	85.25246
761.1205	94.49244
761.2701	98.56023
761.4196	110.359
761.5691	126.8363
761.7186	142.1036
761.868	147.7372
762.0175	154.0227
762.167	151.3016
762.3164	137.5726
762.4659	125.2921
762.6153	116.4864
762.7647	111.0293
762.9141	110.2198
763.0635	113.1055
763.2129	120.2707
763.3623	119.8341
763.5117	120.4702
763.661	116.2123
763.8104	120.2937
763.9597	121.7473
764.1091	125.6971
764.2584	137.7109
764.4077	138.3361
764.557	133.7402
764.7063	137.2092
764.8556	137.4592
765.0049	138.526
765.1541	144.9717
765.3034	144.6027
765.4526	145.3044
765.6019	143.3778
765.7511	146.7489
765.9003	146.7803
766.0496	156.5139
766.1987	158.9567
766.348	159.2392
766.4971	163.0504
766.6463	158.8895
766.7955	166.9501
766.9446	168.6858
767.0938	169.7915
767.2429	170.4594
767.392	167.5331
767.5411	172.5805
767.6902	177.0787
767.8394	177.5117
767.9884	174.8924
768.1375	176.4715
768.2866	176.7816
768.4356	171.5476
768.5847	182.3748
768.7337	183.203
768.8828	174.8281
769.0317	180.4354
769.1808	171.7383
769.3298	176.244
769.4788	172.929
769.6277	178.0852
769.7767	178.255
769.9257	173.4516
770.0746	175.4218
770.2236	177.6578
770.3725	178.6079
770.5214	182.55
770.6703	180.2648
770.8193	170.3138
770.9681	175.6664
771.1171	170.8898
771.2659	173.3689
771.4148	171.8103
771.5637	172.9263
771.7125	175.2467
771.8613	180.583
772.0101	178.4069
772.159	176.0416
772.3078	174.2649
772.4566	175.6332
772.6054	174.5449
772.7542	176.1006
772.903	170.2156
773.0517	174.1212
773.2004	171.224
773.3492	171.9366
773.4979	175.7861
773.6467	179.3856
773.7953	177.3849
773.944	172.5052
774.0928	170.3007
774.2415	168.8171
774.3901	167.7775
774.5388	171.8607
774.6874	165.8428
774.8361	161.0634
774.9847	161.799
775.1334	165.8744
775.282	159.4774
775.4305	160.6156
775.5792	162.9292
775.7277	167.2662
775.8763	169.7246
776.0249	168.9917
776.1735	166.6952
776.322	167.0002
776.4705	170.3817
776.6191	172.7792
776.7676	172.3473
776.9161	167.3245
777.0646	163.5644
777.2131	165.9147
777.3616	163.8554
777.5101	169.7026
777.6585	164.6711
777.8069	161.2125
777.9554	165.0384
778.1038	160.8521
778.2523	163.5907
778.4007	164.3173
778.5491	167.4976
778.6974	162.3453
778.8459	157.708
778.9942	158.9935
779.1426	163.6605
779.291	163.2938
779.4393	164.2624
779.5876	162.5514
779.736	155.5919
779.8843	153.4057
780.0326	155.5934
780.1809	161.3447
780.3292	161.7195
780.4775	155.2474
780.6257	159.2542
780.774	162.2707
780.9222	164.8466
781.0704	158.6977
781.2187	159.8219
781.3669	160.8577
781.5151	158.5731
781.6633	161.001
781.8115	158.4234
781.9597	162.5548
782.1078	164.0653
782.256	161.6632
782.4042	158.8535
782.5523	158.9749
782.7004	161.8378
782.8486	158.6234
782.9967	158.2522
783.1448	155.4529
783.2929	156.0104
783.441	161.2259
783.5891	157.0985
783.7371	158.5986
783.8851	160.1601
784.0332	156.2841
784.1812	153.7838
784.3293	150.091
784.4773	151.2001
784.6253	157.4177
784.7733	155.2135
784.9213	153.4073
785.0692	153.2838
785.2172	150.503
785.3652	150.969
785.5131	153.0036
785.6611	148.7662
785.809	153.5558
785.9569	154.2559
786.1048	152.3772
786.2527	146.6849
786.4006	145.1178
786.5485	153.1507
786.6964	149.9112
786.8442	144.8989
786.9921	143.2615
787.1399	143.1735
787.2877	147.8646
787.4355	147.4357
787.5833	143.5795
787.7311	147.47
787.8789	146.382
788.0267	150.2843
788.1745	147.628
788.3223	147.7186
788.47	144.256
788.6177	142.5576
788.7654	144.8754
788.9132	150.6544
789.0609	147.095
789.2086	144.0152
789.3563	142.7217
789.504	140.9446
789.6517	140.3429
789.7993	142.7907
789.947	145.2706
790.0946	145.6504
790.2422	142.2805
790.3898	144.2525
790.5375	151.8459
790.6851	148.6958
790.8326	139.4194
790.9802	133.5724
791.1278	140.8849
791.2754	143.6939
791.423	144.1106
791.5705	141.3497
791.718	142.7124
791.8655	138.2013
792.0131	134.8673
792.1606	130.3588
792.308	135.5286
792.4556	142.8134
792.603	142.4566
792.7505	141.5286
792.8979	146.1375
793.0454	139.4477
793.1928	132.8101
793.3403	137.0921
793.4877	142.1998
793.6351	140.3768
793.7825	139.8961
793.9299	132.141
794.0772	138.1536
794.2246	143.0791
794.3719	131.0312
794.5193	134.4409
794.6666	136.8579
794.814	134.7996
794.9613	128.4208
795.1086	133.4581
795.2559	140.9556
795.4032	136.8852
795.5505	137.6557
795.6978	133.2379
795.845	131.18
795.9922	129.2378
796.1395	136.6717
796.2867	135.0005
796.4339	125.9263
796.5811	129.6119
796.7283	129.2489
796.8755	127.3493
797.0227	136.5659
797.1699	141.0492
797.317	140.9205
797.4642	135.8807
797.6113	131.9339
797.7584	131.7339
797.9056	131.3078
798.0527	129.7066
798.1998	123.9324
798.3469	131.1313
798.494	132.1491
798.641	128.5751
798.7881	130.5229
798.9351	130.1195
799.0822	135.5975
799.2292	135.5166
799.3762	132.7087
799.5232	128.5783
799.6702	124.753
799.8172	123.6498
799.9642	126.7817
800.1111	120.8921
800.2581	125.8209
800.4051	127.9845
800.552	127.7592
800.6989	126.1211
800.8458	128.44
800.9927	129.8184
801.1396	132.9032
801.2866	128.7853
801.4334	120.5014
801.5803	122.2749
801.7272	126.4869
801.874	126.906
802.0209	126.6735
802.1677	125.4523
802.3145	122.8892
802.4613	123.6361
802.6081	122.3571
802.7549	120.8392
802.9017	119.4501
803.0485	118.6151
803.1952	126.2135
803.342	127.0966
803.4887	122.6026
803.6354	122.2053
803.7822	123.1423
803.9289	117.3464
804.0756	122.1232
804.2223	126.6633
804.369	118.2732
804.5156	116.7302
804.6623	115.6741
804.8089	121.0692
804.9556	125.7202
805.1022	123.1469
805.2488	121.0468
805.3954	119.5108
805.542	127.7859
805.6886	122.1553
805.8352	118.9734
805.9818	117.8651
806.1283	117.3263
806.2749	118.9317
806.4214	118.8627
806.5679	116.0676
806.7145	115.7578
806.861	121.3807
807.0074	113.4616
807.154	111.2555
807.3004	119.3449
807.4469	118.1062
807.5934	117.9523
807.7398	113.2906
807.8862	118.8937
808.0327	115.0153
808.1791	111.5186
808.3255	115.6881
808.4719	113.9888
808.6183	110.0759
808.7647	111.3832
808.9111	116.0726
809.0574	112.8657
809.2037	109.6105
809.3501	111.8193
809.4965	109.9021
809.6428	108.2818
809.7891	113.7326
809.9354	112.0214
810.0817	114.4241
810.2279	110.5693
810.3742	113.6801
810.5204	106.1029
810.6667	107.8054
810.8129	110.8482
810.9592	106.0678
811.1054	109.034
811.2516	109.1432
811.3978	110.8827
811.5439	110.2016
811.6901	105.3026
811.8363	103.3596
811.9825	107.1302
812.1286	109.599
812.2748	108.9808
812.4209	102.1244
812.567	102.3342
812.7131	105.3577
812.8592	106.4769
813.0053	101.5719
813.1514	96.09641
813.2974	96.55638
813.4435	93.04603
813.5895	94.29617
813.7356	99.9249
813.8816	97.525
814.0276	94.4845
814.1736	96.64373
814.3196	89.6413
814.4656	91.70755
814.6116	92.3141
814.7576	91.48602
814.9035	88.25844
815.0494	93.46986
815.1954	89.7215
815.3413	86.38081
815.4872	91.67669
815.6331	91.12397
815.779	95.32935
815.9249	95.71436
816.0707	94.50188
816.2166	84.49039
816.3625	80.64365
816.5083	89.21381
816.6542	89.42692
816.8	87.51637
816.9458	87.00572
817.0916	88.89331
817.2374	87.6994
817.3832	91.50124
817.5289	91.37295
817.6747	85.255
817.8204	83.66863
817.9662	82.58658
818.1119	89.14597
818.2576	89.47698
818.4034	86.65627
818.5491	88.5181
818.6948	85.64152
818.8405	84.34295
818.9861	91.53603
819.1318	86.09551
819.2774	85.66469
819.423	83.44505
819.5687	84.72645
819.7143	82.26355
819.8599	79.16207
820.0055	86.08212
820.1511	83.23846
820.2967	87.84879
820.4422	92.69167
820.5878	92.04768
820.7333	93.58467
820.8788	96.46426
821.0244	89.29702
821.1699	85.90921
821.3154	89.72028
821.4609	90.00543
821.6064	91.92819
821.7519	91.14822
821.8973	89.68312
822.0428	85.2941
822.1882	88.79221
822.3337	81.65299
822.4791	79.87429
822.6245	75.27174
822.7699	71.10506
822.9153	64.87639
823.0607	69.93406
823.2061	68.79198
823.3514	76.91778
823.4968	78.77112
823.6422	79.27074
823.7875	88.32602
823.9328	83.76033
824.0781	85.34648
824.2234	78.59489
824.3687	75.03965
824.514	86.18291
824.6592	86.76768
824.8045	91.9846
824.9498	93.43192
825.095	96.31469
825.2402	90.23256
825.3854	84.21413
825.5306	88.27088
825.6758	83.31863
825.821	87.93204
825.9662	89.30753
826.1114	81.58819
826.2565	82.17487
826.4017	80.71983
826.5468	80.11519
826.692	89.15941
826.837	89.81116
826.9822	83.0679
827.1273	85.38846
827.2723	85.14893
827.4174	84.17158
827.5625	82.38814
827.7075	84.54507
827.8526	83.91896
827.9976	77.10663
828.1426	79.73342
828.2877	83.62962
828.4327	80.87875
828.5776	80.75059
828.7227	77.68621
828.8676	79.35448
829.0126	78.39266
829.1575	78.57429
829.3024	77.58284
829.4474	75.91616
829.5923	75.34454
829.7372	82.40874
829.8821	85.98253
830.027	83.29191
830.1719	82.07689
830.3168	81.50504
830.4616	81.48075
830.6064	80.79082
830.7513	81.31489
830.8961	82.5741
831.041	77.49263
831.1857	80.88097
831.3306	81.25666
831.4753	80.64893
831.6201	81.70755
831.7649	82.45889
831.9096	80.33087
832.0544	74.94015
832.1991	75.7775
832.3438	74.53098
832.4885	79.18286
832.6332	79.95152
832.778	78.36269
832.9226	73.78477
833.0673	79.92571
833.2119	80.79081
833.3566	73.19216
833.5012	77.52155
833.6459	78.38192
833.7905	78.47565
833.9351	79.24744
834.0797	78.31831
834.2243	79.422
834.3688	78.44659
834.5134	80.32917
834.658	82.05123
834.8026	83.4856
834.9471	80.32533
835.0916	78.85641
835.2361	79.38429
835.3806	76.62094
835.5251	78.35718
835.6696	80.04009
835.8141	80.20419
835.9586	76.06646
836.103	80.65692
836.2474	78.68893
836.3918	79.66338
836.5363	77.25214
836.6807	76.58137
836.8251	79.22533
836.9695	81.01388
837.1138	80.74525
837.2582	81.30445
837.4026	79.3832
837.5469	77.15918
837.6913	76.70255
837.8356	81.28017
837.9799	79.99933
838.1242	81.21225
838.2686	76.78171
838.4128	75.61451
838.5571	74.48564
838.7014	78.66965
838.8456	79.8498
838.9899	75.97123
839.1341	78.24386
839.2783	76.68327
839.4225	77.03317
839.5667	80.55883
839.7109	73.17345
839.8551	77.73554
839.9993	77.63024
840.1434	75.56316
840.2876	78.1238
840.4317	73.82014
840.5759	77.4704
840.72	81.38359
840.8641	81.33801
841.0082	80.983
841.1523	75.96114
841.2963	73.84922
841.4404	73.57281
841.5845	75.06104
841.7285	76.8876
841.8726	76.9301
842.0165	75.81486
842.1606	74.70398
842.3046	80.87203
842.4485	77.84144
842.5925	78.88912
842.7365	78.26009
842.8805	74.21544
843.0244	73.55035
843.1684	70.67151
843.3123	75.71285
843.4562	79.97088
843.6002	74.62924
843.744	76.01519
843.8879	76.28852
844.0318	75.82749
844.1757	76.40822
844.3195	76.70533
844.4634	73.59348
844.6072	73.80553
844.751	76.21674
844.8948	75.11108
845.0386	71.21191
845.1824	76.7636
845.3262	77.23727
845.47	75.98866
845.6138	72.34097
845.7575	73.43874
845.9012	75.77461
846.045	77.02544
846.1887	73.63864
846.3324	68.96932
846.4761	72.50871
846.6198	71.7438
846.7635	69.36577
846.9071	68.69408
847.0508	72.81889
847.1944	69.50432
847.3381	71.7766
847.4817	76.23476
847.6253	70.48171
847.7689	71.44565
847.9125	73.0582
848.0561	73.27871
848.1996	76.21262
848.3432	72.29594
848.4868	71.42878
848.6303	74.74532
848.7738	70.15206
848.9174	69.80458
849.0609	74.66006
849.2043	70.41261
849.3478	75.61556
849.4913	67.7769
849.6348	68.86663
849.7782	62.17605
849.9217	59.98803
850.0651	58.36378
850.2086	62.20323
850.3519	67.17763
850.4954	67.6618
850.6387	68.21938
850.7821	72.95689
850.9255	74.26732
851.0688	67.17224
851.2122	69.46282
851.3555	72.16001
851.4988	66.60196
851.6422	71.43385
851.7855	75.34225
851.9288	73.89091
852.0721	72.09045
852.2153	70.05855
852.3586	70.85974
852.5018	70.61776
852.6451	70.29109
852.7883	70.23367
852.9315	71.59047
853.0748	74.41
853.218	68.48103
853.3611	65.32745
853.5043	64.02942
853.6475	67.12059
853.7906	66.898
853.9338	66.57919
854.0769	60.07666
854.22	54.35229
854.3632	55.72617
854.5063	56.26953
854.6494	58.22181
854.7924	60.5938
854.9355	66.71915
855.0786	64.33337
855.2216	67.86021
855.3647	70.13332
855.5077	68.38873
855.6507	62.23766
855.7937	69.66706
855.9367	66.53276
856.0797	67.99094
856.2227	63.32444
856.3657	66.44171
856.5086	65.23918
856.6516	66.00999
856.7945	68.81808
856.9374	65.10149
857.0803	68.13399
857.2232	63.16893
857.3661	65.21458
857.509	67.32433
857.6519	69.40362
857.7947	66.78838
857.9376	65.73287
858.0804	67.04932
858.2232	64.74007
858.366	62.44575
858.5089	66.59491
858.6516	63.81612
858.7944	59.76268
858.9372	65.05859
859.08	67.65799
859.2227	61.78859
859.3654	70.26094
859.5082	64.69999
859.6509	59.75777
859.7936	61.28286
859.9363	62.04135
860.079	58.03536
860.2217	64.34486
860.3643	66.05806
860.507	61.58926
860.6496	62.12574
860.7922	64.90302
860.9349	62.75723
861.0775	65.47486
861.2201	58.64695
861.3627	62.2675
861.5052	60.30409
861.6478	61.95573
861.7904	66.75788
861.9329	65.66034
862.0755	59.98139
862.218	61.95679
862.3605	60.64068
862.503	64.93655
862.6455	64.64303
862.788	64.34823
862.9305	64.04634
863.0729	60.75074
863.2154	63.71059
863.3578	66.36977
863.5002	65.70177
863.6426	59.9438
863.7851	54.55598
863.9275	64.35492
864.0698	59.75229
864.2122	62.22472
864.3546	62.14143
864.4969	56.63035
864.6393	60.75901
864.7816	64.19933
864.924	61.39417
865.0662	58.71693
865.2086	56.68215
865.3508	58.30391
865.4931	54.77573
865.6354	56.60323
865.7776	57.65637
865.9199	53.29383
866.0621	53.58022
866.2043	53.16917
866.3466	50.57721
866.4888	48.10317
866.6309	50.78098
866.7731	52.72981
866.9153	60.44603
867.0574	55.52679
867.1996	60.48368
867.3417	52.77739
867.4839	58.45778
867.626	55.92965
867.7681	62.43935
867.9102	56.82121
868.0522	58.15019
868.1943	56.92067
868.3364	52.84503
868.4785	58.92952
868.6205	59.07096
868.7625	56.45518
868.9045	59.41291
869.0465	58.5022
869.1885	57.14403
869.3305	55.74173
869.4725	54.96754
869.6144	54.60384
869.7564	53.67427
869.8983	58.90121
870.0403	56.02639
870.1822	51.89019
870.3241	51.5545
870.466	57.39273
870.6079	55.67731
870.7498	57.63498
870.8916	57.37053
871.0335	58.44433
871.1754	50.21328
871.3171	48.75182
871.459	52.92152
871.6008	52.21319
871.7426	57.69192
871.8844	54.98618
872.0262	56.39871
872.1679	60.85429
872.3097	59.42695
872.4514	54.67548
872.5931	53.09611
872.7349	52.69405
872.8766	53.35852
873.0183	48.97659
873.16	53.89893
873.3017	54.99636
873.4434	57.40449
873.585	55.79448
873.7266	54.64317
873.8683	49.89401
874.0099	53.66413
874.1516	55.80637
874.2932	49.48739
874.4348	53.29052
874.5763	52.93472
874.7179	55.25077
874.8594	53.54726
875.001	50.5959
875.1425	49.16602
875.2841	45.84008
875.4256	49.85096
875.5671	51.18074
875.7086	55.66404
875.85	50.59937
875.9915	53.65258
876.133	51.474
876.2744	48.44081
876.4159	50.69307
876.5573	44.63265
876.6987	49.8302
876.8401	49.05443
876.9815	47.48639
877.1229	50.76654
877.2643	48.92091
877.4056	52.5429
877.547	48.96897
877.6884	44.91278
877.8297	53.86965
877.971	52.27068
878.1123	51.90084
878.2536	51.21248
878.3949	53.48539
878.5362	52.83511
878.6774	48.08211
878.8187	51.15883
878.9599	53.26532
879.1011	50.80164
879.2424	45.7052
879.3836	49.24162
879.5248	50.71473
879.666	47.44162
879.8071	48.51566
879.9483	52.71891
880.0895	54.48277
880.2306	52.56895
880.3718	49.69266
880.5129	50.90739
880.654	48.68063
880.7951	45.88689
880.9362	45.71665
881.0773	49.90825
881.2183	48.01572
881.3594	51.94664
881.5004	52.20807
881.6414	50.22656
881.7825	50.05779
881.9235	50.10445
882.0645	47.67233
882.2054	46.97471
882.3464	48.38157
882.4874	45.11969
882.6284	49.22735
882.7693	45.99651
882.9103	45.92032
883.0512	50.29627
883.1921	47.42565
883.333	48.53706
883.4739	49.31377
883.6147	47.71923
883.7556	48.77991
883.8965	46.12672
884.0374	41.50219
884.1782	42.785
884.319	46.35873
884.4598	49.69976
884.6006	45.07373
884.7414	44.67422
884.8822	50.99021
885.0229	51.39016
885.1637	49.55696
885.3044	44.574
885.4452	44.80721
885.5859	44.55837
885.7266	43.14726
885.8673	47.81775
886.008	45.65533
886.1487	43.41562
886.2894	46.79901
886.43	42.31795
886.5707	42.52828
886.7113	43.00694
886.8519	43.86821
886.9926	44.49706
887.1331	47.11345
887.2737	49.32712
887.4143	45.7512
887.5549	39.3505
887.6954	40.48203
887.836	45.55047
887.9765	46.32948
888.1171	49.26909
888.2576	46.60418
888.3981	43.15429
888.5386	43.13631
888.679	43.37595
888.8195	45.73937
888.96	44.86189
889.1004	42.40659
889.2408	43.89941
889.3813	46.36986
889.5217	42.97401
889.6621	46.03168
889.8025	43.65786
889.9429	42.38451
890.0833	42.4078
890.2236	43.78838
890.364	44.8578
890.5043	44.64612
890.6446	42.74749
890.7849	38.09908
890.9252	41.16714
891.0655	39.42156
891.2058	46.48803
891.3461	42.10852
891.4863	44.82988
891.6266	46.15662
891.7668	42.56073
891.907	43.66542
892.0472	44.53339
892.1874	46.41831
892.3276	46.29824
892.4678	47.88893
892.608	42.98171
892.7481	36.54152
892.8883	41.49993
893.0284	42.94806
893.1685	38.49369
893.3087	35.80532
893.4487	44.08577
893.5889	41.33772
893.7289	43.03254
893.869	44.45811
894.009	45.05365
894.1491	41.05495
894.2891	41.67052
894.4291	40.01693
894.5692	39.51459
894.7092	42.57961
894.8491	42.86396
894.9891	35.13498
895.1291	36.68036
895.269	37.22393
895.409	39.13345
895.549	38.93091
895.6888	38.68362
895.8288	41.46481
895.9687	45.26744
896.1086	42.67337
896.2484	37.77077
896.3883	35.65946
896.5281	35.66809
896.668	39.79101
896.8079	37.17927
896.9476	39.06613
897.0875	35.42645
897.2272	35.73275
897.3671	33.44849
897.5068	34.74398
897.6466	36.59752
897.7864	38.23314
897.9261	37.54633
898.0658	38.87441
898.2056	40.42211
898.3453	38.65903
898.4849	33.02904
898.6246	27.86856
898.7643	29.28481
898.904	32.82766
899.0436	29.58368
899.1833	29.44138
899.3229	28.61275
899.4625	32.03082
899.6021	31.29999
899.7417	36.50814
899.8813	35.42647
900.0209	26.68642
900.1605	30.07959
900.3	30.32175
900.4395	36.18773
900.579	32.01123
900.7186	32.07787
900.8581	32.91825
900.9976	36.04885
901.1371	33.52381
901.2766	28.74439
901.416	29.20945
901.5555	36.03096
901.6949	32.94349
901.8344	31.74412
901.9738	35.52063
902.1132	39.4703
902.2526	30.98121
902.3919	36.75136
902.5313	35.82277
902.6707	33.21066
