SPECTRUM DATA FILE
SpectrumCount:	1
PixelCount:	3648
UserName:	ToughBook User
SampleName:	
LightSource:	
Comments:	
DeviceName:	Qwave
DeviceManufacturer:	Broadcom
DeviceSerialNo:	11311

Name:	last spectrum
Date:	2024-05-02T14:52:56.2122834+02:00
ExposureTime:	0.02
TemporalAvg:	1
IntensityUnit:	normalizedCounts
CCDLoadLevel:	0.04668982
Temperature:	33.14276
DiagramColor:	200
ProcessingSteps:	335

Wavelength [nm]	Intensity1
334.421	3.871804
334.5891	3.835164
334.7573	4.759657
334.9254	7.198406
335.0935	5.501661
335.2616	5.688571
335.4297	11.79331
335.5978	2.7755
335.7659	9.300169
335.934	4.486625
336.1021	5.489034
336.2701	3.469927
336.4382	5.806402
336.6063	8.508958
336.7744	3.906705
336.9424	3.529672
337.1105	8.224286
337.2785	7.925119
337.4466	6.655188
337.6146	5.907193
337.7827	7.575202
337.9507	2.85679
338.1187	3.910676
338.2867	6.290399
338.4548	7.645335
338.6228	5.459917
338.7908	2.020044
338.9588	4.952549
339.1268	2.715767
339.2948	4.699142
339.4628	8.781343
339.6308	7.093119
339.7988	10.61631
339.9667	7.601723
340.1347	8.184887
340.3027	5.771436
340.4707	8.061822
340.6386	7.558864
340.8066	5.56052
340.9745	7.244164
341.1425	5.546117
341.3104	6.728144
341.4784	4.736593
341.6463	4.523372
341.8142	3.676133
341.9821	7.86867
342.1501	6.545279
342.318	3.517686
342.4859	6.191608
342.6538	5.018545
342.8217	3.446344
342.9896	7.106444
343.1575	4.872205
343.3254	4.321238
343.4933	9.781627
343.6612	3.843016
343.829	3.014383
343.9969	7.212228
344.1648	9.79086
344.3326	9.386113
344.5005	9.411087
344.6683	6.896392
344.8362	6.066534
345.004	10.01845
345.1719	8.055721
345.3397	11.04562
345.5075	10.24285
345.6754	4.191554
345.8432	5.850585
346.011	6.809473
346.1788	6.281651
346.3466	7.40038
346.5144	2.917498
346.6822	5.138217
346.85	7.190384
347.0178	5.202991
347.1856	3.102136
347.3534	3.035724
347.5211	6.715656
347.6889	10.72478
347.8567	11.14538
348.0244	6.265526
348.1922	3.055707
348.3599	4.240736
348.5277	7.127176
348.6954	4.786731
348.8632	5.702063
349.0309	7.309846
349.1986	9.124578
349.3663	4.840406
349.5341	5.708357
349.7018	6.302606
349.8695	5.689603
350.0372	7.500145
350.2049	7.890191
350.3726	6.985316
350.5403	7.225546
350.7079	5.715422
350.8756	8.948071
351.0433	4.297825
351.211	4.491012
351.3786	7.034429
351.5463	5.806359
351.714	6.960863
351.8816	7.538491
352.0493	8.219522
352.2169	6.066851
352.3846	8.383816
352.5522	6.919977
352.7198	8.067994
352.8875	7.005086
353.0551	6.202401
353.2227	9.104056
353.3903	4.542236
353.5579	7.561277
353.7255	10.74685
353.8931	10.19256
354.0607	5.362507
354.2283	8.632169
354.3958	3.905205
354.5634	7.543144
354.731	10.7236
354.8986	9.098212
355.0661	5.104545
355.2337	9.162531
355.4012	7.64602
355.5688	9.125326
355.7363	4.342608
355.9039	3.415868
356.0714	10.88243
356.239	7.745934
356.4065	7.427014
356.574	3.440111
356.7415	10.43876
356.909	7.696479
357.0765	6.314833
357.244	6.785132
357.4115	5.772523
357.579	5.344427
357.7465	8.00191
357.914	6.892864
358.0815	5.560663
358.249	3.960072
358.4164	5.922539
358.5839	11.29228
358.7513	8.21188
358.9188	9.72508
359.0862	8.233006
359.2537	10.84414
359.4211	9.062707
359.5886	13.89992
359.756	4.098006
359.9234	6.925971
360.0909	8.742166
360.2583	5.434672
360.4257	5.199247
360.5931	6.954759
360.7605	5.373799
360.9279	9.971471
361.0953	7.742208
361.2627	7.827332
361.4301	6.4947
361.5974	5.440906
361.7648	4.523387
361.9322	5.373536
362.0995	4.440589
362.2669	6.97297
362.4343	4.46498
362.6016	6.756252
362.769	13.27344
362.9363	12.48324
363.1036	8.412535
363.271	11.52666
363.4383	7.935441
363.6056	10.26204
363.7729	7.201921
363.9402	8.863773
364.1075	10.76995
364.2748	9.092392
364.4421	9.531353
364.6094	9.170201
364.7767	6.314639
364.944	6.097162
365.1113	6.472249
365.2786	8.959496
365.4458	8.731707
365.6131	8.242316
365.7803	9.919724
365.9476	6.802501
366.1148	7.872947
366.2821	10.42025
366.4493	8.169128
366.6166	11.80255
366.7838	13.64556
366.951	8.7304
367.1182	9.467218
367.2855	12.81318
367.4527	10.09894
367.6199	11.86026
367.7871	9.545956
367.9543	7.206799
368.1215	9.088178
368.2886	11.74822
368.4558	11.6045
368.623	12.22923
368.7902	6.530027
368.9573	10.21144
369.1245	11.90121
369.2917	13.67455
369.4588	11.0697
369.6259	9.656923
369.7931	10.5796
369.9602	8.005351
370.1274	9.112615
370.2945	9.28441
370.4616	10.28153
370.6287	9.292993
370.7958	9.679852
370.963	13.94808
371.1301	12.30404
371.2971	7.817343
371.4643	8.966762
371.6313	11.19952
371.7984	8.561334
371.9655	13.40959
372.1326	13.86184
372.2997	6.610932
372.4667	7.848307
372.6338	7.990004
372.8008	7.340327
372.9679	4.799045
373.1349	10.45498
373.3019	11.59368
373.469	10.38495
373.636	9.493751
373.803	15.45933
373.9701	10.99074
374.1371	6.196295
374.3041	12.66362
374.4711	12.06496
374.6381	13.08724
374.8051	7.222997
374.9721	12.94897
375.1391	8.622671
375.3061	5.977592
375.473	10.9191
375.64	7.320795
375.8069	6.462333
375.9739	6.809179
376.1409	10.00188
376.3078	7.379486
376.4748	11.41859
376.6417	9.499756
376.8087	8.828969
376.9756	9.786896
377.1425	8.873423
377.3094	10.61964
377.4763	14.03839
377.6432	13.67081
377.8102	15.29129
377.9771	10.63752
378.144	8.21195
378.3109	13.66307
378.4777	10.55842
378.6446	6.510597
378.8115	11.75872
378.9784	14.71272
379.1452	10.22077
379.3121	10.18254
379.4789	13.59569
379.6458	11.56845
379.8127	10.89188
379.9795	8.413177
380.1463	11.47654
380.3131	12.59326
380.48	12.49556
380.6468	10.28254
380.8136	9.121148
380.9804	10.3818
381.1472	7.73313
381.314	6.913099
381.4808	8.995145
381.6476	9.911005
381.8144	10.59398
381.9812	8.262536
382.148	7.795973
382.3147	7.602464
382.4815	8.542955
382.6483	16.04396
382.815	14.32223
382.9818	11.63205
383.1485	8.822707
383.3153	11.99879
383.482	12.21087
383.6487	8.344538
383.8155	12.54651
383.9822	13.40005
384.1489	14.4942
384.3156	12.31417
384.4823	10.84612
384.649	14.37842
384.8157	16.94476
384.9824	12.84082
385.1491	12.90195
385.3158	11.58123
385.4825	10.00636
385.6491	11.50397
385.8158	12.93091
385.9825	8.652598
386.1491	13.10758
386.3157	14.63641
386.4824	14.65756
386.649	13.69627
386.8157	12.61263
386.9823	14.3349
387.1489	13.85413
387.3156	15.7505
387.4821	10.36519
387.6488	12.83604
387.8154	10.41696
387.982	9.974437
388.1486	10.8897
388.3152	9.633605
388.4818	14.45296
388.6483	11.76664
388.8149	12.41408
388.9815	11.84416
389.148	15.12556
389.3146	15.88908
389.4811	14.97801
389.6477	13.21507
389.8142	14.83631
389.9808	9.623349
390.1473	13.8478
390.3138	12.06183
390.4804	12.89884
390.6469	11.59572
390.8134	13.25791
390.9799	14.67315
391.1464	12.89974
391.3129	15.0388
391.4794	15.63118
391.6459	18.75829
391.8124	16.29048
391.9789	12.91564
392.1453	16.93206
392.3118	16.62493
392.4782	16.58713
392.6447	11.31684
392.8112	8.937449
392.9776	11.08803
393.144	9.612956
393.3105	7.749246
393.4769	9.367785
393.6433	11.71774
393.8098	9.688988
393.9762	12.84885
394.1426	12.97791
394.309	12.77023
394.4754	16.08024
394.6418	16.89633
394.8082	17.01109
394.9746	11.85934
395.141	13.77451
395.3073	20.74536
395.4737	16.71319
395.64	18.19026
395.8064	15.37032
395.9728	13.32893
396.1391	17.6062
396.3055	16.12572
396.4718	7.491803
396.6381	9.800952
396.8045	9.729222
396.9708	11.55414
397.1371	14.46847
397.3034	12.42802
397.4697	12.57061
397.636	16.38444
397.8023	17.18305
397.9686	18.76962
398.1349	24.42843
398.3012	21.97651
398.4675	22.70359
398.6337	19.57824
398.8	17.80005
398.9662	20.23713
399.1325	21.89281
399.2988	20.0685
399.465	19.79875
399.6313	22.28985
399.7975	21.10684
399.9637	15.45078
400.1299	12.35038
400.2961	17.58602
400.4624	14.47878
400.6286	22.97499
400.7948	18.86173
400.961	19.35759
401.1272	24.30005
401.2934	21.92405
401.4595	19.9165
401.6257	21.4924
401.7919	18.05069
401.9581	20.51973
402.1242	23.51123
402.2904	24.69854
402.4565	24.21173
402.6227	19.7182
402.7888	23.61504
402.955	22.37492
403.1211	18.24625
403.2872	16.63409
403.4533	27.31326
403.6194	25.31544
403.7856	20.44355
403.9517	26.73298
404.1177	23.85647
404.2838	19.79022
404.4499	21.1463
404.616	21.5055
404.7821	20.23631
404.9482	20.35889
405.1142	23.56017
405.2803	23.30504
405.4464	23.43178
405.6124	18.1341
405.7784	19.42429
405.9445	22.10003
406.1105	22.27491
406.2766	21.26673
406.4426	19.59624
406.6086	19.61338
406.7746	23.13219
406.9406	22.96367
407.1066	22.56522
407.2726	18.22289
407.4386	22.60456
407.6046	23.00452
407.7706	24.73199
407.9366	22.77725
408.1025	23.74314
408.2685	24.90591
408.4344	26.94635
408.6004	28.09749
408.7664	29.57218
408.9323	26.25888
409.0983	23.11769
409.2642	24.15185
409.4301	24.94049
409.596	32.16688
409.762	36.2845
409.9279	32.75639
410.0938	19.76096
410.2597	24.39209
410.4256	26.79101
410.5915	29.49172
410.7574	29.37917
410.9232	31.44076
411.0891	28.93204
411.255	32.69263
411.4209	28.02549
411.5867	31.54977
411.7526	28.87558
411.9184	27.38185
412.0843	25.6709
412.2501	30.63642
412.4159	29.20665
412.5818	28.18577
412.7476	31.19803
412.9134	29.18055
413.0792	27.69887
413.245	28.3115
413.4108	28.59683
413.5766	28.11629
413.7424	27.73535
413.9082	32.52621
414.074	31.20816
414.2397	28.19051
414.4055	28.41963
414.5713	29.70084
414.737	32.28926
414.9028	29.09892
415.0685	33.09087
415.2343	33.18013
415.4	29.53419
415.5658	33.1301
415.7315	26.86058
415.8972	25.62445
416.0629	29.58093
416.2286	29.64932
416.3943	32.80087
416.56	27.16053
416.7257	27.57117
416.8914	28.46623
417.0571	28.46311
417.2228	30.92842
417.3884	31.35603
417.5541	24.32741
417.7198	25.07582
417.8854	33.04694
418.0511	37.38499
418.2167	34.17353
418.3824	29.0417
418.548	27.68195
418.7136	34.89868
418.8792	35.06868
419.0449	30.07258
419.2105	37.04016
419.3761	32.93369
419.5417	35.17989
419.7073	35.07837
419.8729	30.25281
420.0385	28.03901
420.204	28.97251
420.3696	32.2416
420.5352	35.88308
420.7007	33.67876
420.8663	34.90425
421.0319	38.48603
421.1974	35.05759
421.3629	33.50809
421.5285	31.15046
421.694	34.68577
421.8595	41.47542
422.0251	40.05053
422.1906	40.69757
422.3561	34.66889
422.5216	31.13975
422.6871	26.48717
422.8526	32.66964
423.0181	38.64734
423.1835	40.49573
423.349	37.89204
423.5145	36.05688
423.68	29.1753
423.8454	32.85034
424.0109	40.63633
424.1763	42.95742
424.3418	41.92427
424.5072	39.42951
424.6726	39.92416
424.838	34.81159
425.0035	36.61036
425.1689	41.20665
425.3343	36.37341
425.4997	37.02144
425.6651	40.09505
425.8305	36.42563
425.9959	33.65315
426.1613	34.91943
426.3267	37.58582
426.492	42.07469
426.6574	40.51974
426.8228	42.58218
426.9881	37.69953
427.1534	32.38872
427.3188	34.5147
427.4841	38.28548
427.6495	32.05693
427.8148	37.59742
427.9801	39.92671
428.1454	36.93738
428.3107	41.32238
428.476	41.87672
428.6414	38.75308
428.8066	40.18802
428.9719	36.7917
429.1372	39.37627
429.3025	38.89982
429.4678	40.04218
429.633	40.76711
429.7983	31.50137
429.9636	28.79553
430.1288	28.80914
430.294	28.09329
430.4593	30.88741
430.6245	36.64545
430.7897	34.32868
430.955	29.94242
431.1202	29.55392
431.2854	32.33867
431.4506	40.4338
431.6158	41.98713
431.781	44.47362
431.9462	45.81446
432.1114	41.37578
432.2766	39.41426
432.4417	34.74947
432.6069	37.32528
432.772	39.16805
432.9372	41.40186
433.1024	41.05798
433.2675	44.81928
433.4326	47.25551
433.5977	42.82872
433.7629	43.87935
433.928	36.86409
434.0931	32.02801
434.2582	35.4025
434.4233	38.04778
434.5884	42.41924
434.7535	42.4676
434.9186	48.26286
435.0837	46.58184
435.2488	43.64423
435.4138	42.65114
435.5789	43.77217
435.744	41.72198
435.909	45.99919
436.0741	53.28057
436.2391	52.36726
436.4042	45.89327
436.5692	48.61796
436.7342	53.16056
436.8992	47.30393
437.0643	49.76799
437.2293	48.26444
437.3943	51.50839
437.5593	45.61537
437.7243	45.46884
437.8893	49.21504
438.0542	49.46632
438.2192	44.57152
438.3842	37.72927
438.5491	39.66648
438.7141	50.59198
438.8791	51.92775
439.044	45.91548
439.209	47.82221
439.3739	46.93672
439.5388	48.33131
439.7037	53.01493
439.8687	48.46506
440.0336	48.02822
440.1985	49.30888
440.3634	47.17274
440.5283	44.12999
440.6932	49.41542
440.8581	50.02954
441.0229	57.31521
441.1878	52.49237
441.3527	54.68028
441.5175	58.86599
441.6824	53.7128
441.8472	49.53134
442.0121	57.11736
442.1769	53.6718
442.3418	47.59108
442.5066	48.47124
442.6714	48.64365
442.8362	57.41328
443.001	55.222
443.1659	55.04052
443.3307	51.67598
443.4955	46.41054
443.6602	55.01509
443.825	58.82806
443.9898	53.33685
444.1546	51.95785
444.3193	54.619
444.4841	56.99785
444.6488	51.48238
444.8136	54.82679
444.9783	58.47945
445.1431	55.28529
445.3078	54.30563
445.4725	52.62362
445.6372	46.6422
445.802	52.45747
445.9667	53.52781
446.1314	52.55712
446.2961	52.77412
446.4608	57.98916
446.6255	55.26031
446.7901	57.64207
446.9548	56.00972
447.1195	56.22348
447.2841	62.28354
447.4488	58.90091
447.6134	57.70687
447.7781	59.46119
447.9427	56.09456
448.1074	56.59962
448.272	58.7863
448.4366	60.71578
448.6012	59.14728
448.7658	65.89733
448.9305	64.12969
449.095	59.4333
449.2596	55.66117
449.4242	58.01281
449.5888	58.87355
449.7534	61.47027
449.9179	63.14389
450.0825	62.34292
450.2471	66.8111
450.4116	68.33514
450.5762	71.29298
450.7407	63.93967
450.9052	63.10044
451.0698	60.43724
451.2343	61.26467
451.3988	62.76442
451.5633	63.23323
451.7278	67.24419
451.8923	64.5089
452.0568	63.6481
452.2213	63.34897
452.3858	61.68624
452.5503	61.01731
452.7148	62.15512
452.8792	58.18577
453.0437	59.45749
453.2081	60.6828
453.3726	57.85088
453.537	64.26138
453.7015	58.82143
453.8659	68.3158
454.0303	63.99683
454.1947	64.89116
454.3592	62.1462
454.5236	63.41998
454.688	69.06859
454.8524	68.35806
455.0168	69.43813
455.1811	66.48863
455.3455	67.11396
455.5099	65.36467
455.6743	62.9911
455.8386	67.079
456.003	70.23278
456.1673	70.03318
456.3317	61.74282
456.496	64.86366
456.6603	62.52685
456.8246	69.67175
456.989	73.39559
457.1533	70.07639
457.3176	70.31264
457.4819	68.45594
457.6462	68.46852
457.8105	73.53198
457.9748	68.71846
458.1391	64.22959
458.3033	68.55708
458.4676	70.30208
458.6319	72.71404
458.7961	73.92997
458.9604	70.04465
459.1246	68.45226
459.2888	65.99136
459.4531	67.80826
459.6173	70.54491
459.7815	72.54003
459.9457	65.98019
460.11	70.33907
460.2741	66.38717
460.4384	62.52827
460.6025	73.55262
460.7667	69.07283
460.9309	65.8197
461.0951	72.23124
461.2592	72.00832
461.4234	62.83562
461.5876	70.60065
461.7517	74.5402
461.9159	73.22159
462.08	70.55682
462.2441	72.14983
462.4082	73.86045
462.5724	72.2604
462.7365	72.40203
462.9006	72.50615
463.0647	70.8595
463.2288	68.83648
463.3929	72.36388
463.557	68.67298
463.721	71.19195
463.8851	72.03226
464.0492	76.72874
464.2132	70.53161
464.3773	71.51347
464.5414	66.40013
464.7054	64.48569
464.8694	70.10815
465.0334	69.33467
465.1975	67.17724
465.3615	69.97481
465.5255	70.25135
465.6895	70.8558
465.8535	70.31639
466.0175	73.3287
466.1815	73.23593
466.3455	66.93451
466.5095	68.43669
466.6734	66.97099
466.8374	68.38407
467.0014	69.37757
467.1653	74.20447
467.3293	69.63511
467.4932	73.62606
467.6571	74.4017
467.8211	76.85027
467.985	70.81806
468.1489	74.48397
468.3128	76.05437
468.4767	74.89283
468.6406	70.15234
468.8045	68.14116
468.9684	74.16019
469.1323	75.36958
469.2962	73.62624
469.46	77.1623
469.6239	75.03444
469.7878	72.30271
469.9516	71.57381
470.1154	73.80605
470.2793	69.43481
470.4431	72.04156
470.607	79.60326
470.7708	75.48099
470.9346	74.15535
471.0984	76.7515
471.2622	78.49393
471.426	73.63473
471.5898	77.42759
471.7536	82.9357
471.9174	81.94373
472.0811	72.69331
472.2449	78.15763
472.4087	78.70388
472.5724	72.82494
472.7362	75.13083
472.8999	70.68882
473.0637	79.73615
473.2274	78.86938
473.3911	77.20055
473.5548	79.0694
473.7185	85.16116
473.8822	76.71258
474.0459	75.48466
474.2096	80.61223
474.3733	78.7431
474.537	76.57217
474.7007	77.41508
474.8643	78.73401
475.028	75.90546
475.1917	76.54138
475.3553	76.83378
475.519	76.33681
475.6826	74.32729
475.8463	75.1148
476.0099	74.87717
476.1735	74.80287
476.3371	77.56392
476.5007	74.5557
476.6643	73.96911
476.8279	72.29919
476.9915	70.24171
477.1551	78.92915
477.3187	79.67381
477.4823	72.27895
477.6458	78.83103
477.8094	84.70689
477.9729	83.50777
478.1365	78.76138
478.3	82.27726
478.4636	76.82076
478.6271	76.52882
478.7906	77.80357
478.9541	82.40647
479.1176	78.68501
479.2812	76.80636
479.4447	81.68881
479.6082	80.99789
479.7716	81.33335
479.9351	84.29858
480.0986	76.6633
480.2621	74.51857
480.4255	81.62463
480.589	82.42119
480.7524	73.13348
480.9159	77.40394
481.0793	75.0245
481.2428	73.55724
481.4062	79.06491
481.5696	78.0034
481.733	81.43399
481.8964	80.73962
482.0598	84.9104
482.2232	80.96986
482.3866	79.47045
482.55	84.41602
482.7134	80.65405
482.8768	75.0423
483.0401	73.63353
483.2035	81.43396
483.3668	78.29822
483.5302	76.03513
483.6935	74.88766
483.8568	81.21545
484.0202	77.21952
484.1835	76.34652
484.3468	75.81091
484.5101	78.25733
484.6734	78.9612
484.8367	77.63958
485	79.34253
485.1633	75.40063
485.3266	77.50987
485.4899	68.21594
485.6531	73.05952
485.8164	72.10271
485.9796	66.85104
486.1429	65.25977
486.3061	60.87025
486.4694	71.2265
486.6326	75.20646
486.7958	73.94736
486.959	75.91354
487.1223	72.94079
487.2855	70.20316
487.4486	72.95181
487.6118	70.56653
487.775	82.03068
487.9382	83.74014
488.1014	87.18177
488.2646	84.7211
488.4277	82.9697
488.5909	84.59795
488.754	75.67509
488.9171	76.44344
489.0803	81.71963
489.2434	81.06964
489.4066	77.58025
489.5697	85.57919
489.7328	82.25527
489.8959	83.10452
490.059	84.93472
490.2221	88.16355
490.3852	85.92358
490.5482	87.36568
490.7113	87.06748
490.8744	84.78699
491.0374	73.52276
491.2005	78.13084
491.3636	79.5083
491.5266	87.13747
491.6896	85.09037
491.8527	78.13419
492.0157	77.75285
492.1787	71.0976
492.3417	80.23912
492.5047	82.99316
492.6677	84.94962
492.8307	87.62109
492.9937	90.80769
493.1567	84.41909
493.3196	87.42004
493.4826	87.14059
493.6456	82.71897
493.8085	76.2948
493.9715	81.62581
494.1344	88.82958
494.2974	93.40047
494.4603	85.6478
494.6232	77.74297
494.7861	88.36687
494.949	87.58529
495.1119	94.97202
495.2748	91.71907
495.4377	86.08576
495.6006	80.78182
495.7635	84.33358
495.9264	87.6609
496.0892	87.68851
496.2521	87.17097
496.4149	92.227
496.5778	91.58224
496.7407	89.6522
496.9035	92.01556
497.0663	90.30361
497.2291	87.57083
497.3919	89.88457
497.5547	90.38905
497.7176	87.44491
497.8804	92.72833
498.0432	84.8883
498.2059	83.43198
498.3687	88.4567
498.5315	84.79848
498.6942	93.73035
498.857	86.77773
499.0198	92.48569
499.1825	95.20448
499.3452	93.0645
499.508	92.07951
499.6707	88.6361
499.8334	90.93044
499.9962	85.6125
500.1589	89.62542
500.3216	92.50758
500.4843	90.0543
500.6469	89.40688
500.8096	89.5066
500.9723	90.14948
501.135	91.66224
501.2976	88.37963
501.4603	87.24525
501.623	88.91343
501.7856	83.87207
501.9482	80.61578
502.1109	87.86154
502.2735	92.04858
502.4361	92.38352
502.5987	87.99012
502.7614	93.15704
502.924	97.41567
503.0865	98.39458
503.2491	89.25562
503.4117	95.82689
503.5743	100.5577
503.7368	92.57958
503.8994	88.76679
504.062	89.52607
504.2245	93.72659
504.3871	101.5075
504.5496	101.2584
504.7121	100.5348
504.8746	100.5208
505.0372	100.2143
505.1997	99.97517
505.3622	101.8158
505.5247	104.1174
505.6872	98.71904
505.8497	105.3921
506.0121	107.0356
506.1746	104.5552
506.3371	104.8259
506.4995	103.9293
506.662	107.5115
506.8244	107.2179
506.9869	112.9051
507.1493	105.5578
507.3117	107.1672
507.4742	100.696
507.6366	103.1283
507.799	101.7081
507.9614	98.2503
508.1238	99.60902
508.2862	105.8
508.4485	108.4598
508.6109	105.4701
508.7733	105.9059
508.9357	115.7727
509.098	115.9111
509.2604	114.0296
509.4227	111.5458
509.5851	108.7647
509.7474	102.0769
509.9097	104.1473
510.072	105.9027
510.2343	113.6926
510.3966	110.721
510.5589	110.4303
510.7212	107.8068
510.8835	113.301
511.0458	112.746
511.2081	112.4098
511.3703	114.8426
511.5326	114.4668
511.6949	118.1595
511.8571	113.1554
512.0193	116.7836
512.1816	123.1337
512.3438	106.522
512.506	114.6829
512.6682	115.847
512.8304	117.1052
512.9926	114.7507
513.1548	119.9024
513.317	118.683
513.4792	116.3911
513.6414	112.8073
513.8035	116.6017
513.9657	113.1361
514.1279	116.5278
514.29	114.7252
514.4521	115.4487
514.6143	117.9154
514.7764	119.6936
514.9385	123.6116
515.1006	122.985
515.2628	118.5728
515.4249	119.2083
515.587	117.2641
515.7491	131.2566
515.9111	127.6883
516.0732	133.5308
516.2353	126.257
516.3973	116.0811
516.5594	111.6968
516.7214	109.2053
516.8835	113.8118
517.0455	112.8441
517.2076	106.639
517.3696	107.0074
517.5316	123.6752
517.6937	138.7099
517.8557	133.5192
518.0176	124.9586
518.1796	124.1802
518.3416	111.4227
518.5036	114.9266
518.6656	118.6151
518.8275	123.2912
518.9895	134.7922
519.1514	134.6078
519.3134	133.9741
519.4753	132.6723
519.6373	138.7813
519.7992	139.333
519.9611	141.2826
520.123	142.4261
520.2849	140.1196
520.4468	136.6053
520.6087	139.2368
520.7706	135.308
520.9325	143.692
521.0944	144.2209
521.2562	149.1666
521.4181	155.1844
521.58	149.2547
521.7418	148.1324
521.9036	153.7734
522.0655	158.197
522.2273	160.3354
522.3891	158.2732
522.551	143.3058
522.7128	140.8195
522.8746	142.3336
523.0363	147.0126
523.1981	149.8792
523.3599	160.6609
523.5217	154.0022
523.6835	159.5507
523.8452	161.4742
524.007	164.447
524.1687	162.3371
524.3304	167.9769
524.4922	169.9477
524.6539	169.7618
524.8157	165.3573
524.9774	168.3435
525.1391	164.7856
525.3008	165.2599
525.4625	166.6938
525.6241	177.2544
525.7858	176.2766
525.9475	177.7933
526.1092	178.0938
526.2709	167.2915
526.4325	157.2443
526.5942	157.9975
526.7558	158.0174
526.9174	157.9004
527.079	148.9306
527.2407	158.4321
527.4023	166.1449
527.5639	177.0844
527.7255	179.126
527.8871	181.7513
528.0487	178.7919
528.2103	178.593
528.3718	178.7675
528.5334	174.0474
528.695	183.0739
528.8565	192.3717
529.0181	194.112
529.1796	198.0937
529.3412	192.9656
529.5027	192.5222
529.6642	189.022
529.8257	189.1711
529.9872	183.1884
530.1487	187.6994
530.3102	189.6568
530.4717	188.1383
530.6332	190.121
530.7947	193.9753
530.9562	198.0242
531.1176	203.8078
531.2791	200.0663
531.4405	198.6958
531.6019	187.3069
531.7634	191.0136
531.9248	199.0341
532.0862	198.8118
532.2477	193.4964
532.4091	193.3859
532.5704	183.6067
532.7319	176.1674
532.8932	177.1571
533.0546	192.5082
533.216	191.8393
533.3774	187.0385
533.5388	197.4704
533.7001	199.6327
533.8615	191.1663
534.0228	192.6846
534.1841	186.0343
534.3455	195.6309
534.5068	203.4111
534.6681	194.6994
534.8293	190.7784
534.9907	188.9335
535.152	192.5982
535.3132	197.3566
535.4745	205.9363
535.6358	204.4278
535.7971	201.9208
535.9583	199.299
536.1196	195.2498
536.2808	197.893
536.4421	203.7584
536.6033	199.7706
536.7645	194.4004
536.9258	190.2319
537.087	189.2476
537.2482	191.7602
537.4094	195.6853
537.5706	196.0902
537.7318	198.7949
537.8929	197.7852
538.0541	201.4261
538.2153	198.4728
538.3764	195.8997
538.5376	197.6453
538.6987	201.2034
538.8599	198.8127
539.021	194.4418
539.1821	199.3708
539.3432	200.8941
539.5043	192.7
539.6655	189.2082
539.8265	191.0207
539.9876	193.8185
540.1487	187.9801
540.3098	189.3794
540.4708	184.5409
540.6319	183.381
540.793	179.7491
540.954	193.7869
541.1151	195.8804
541.2761	192.1882
541.4371	194.4857
541.5981	191.7587
541.7592	194.952
541.9202	195.6463
542.0812	196.6225
542.2422	199.1616
542.4031	193.6402
542.5641	189.8646
542.7251	185.4944
542.886	190.7142
543.0471	195.764
543.208	194.5372
543.369	196.6432
543.5298	197.1099
543.6908	198.1212
543.8517	200.1668
544.0126	212.4185
544.1736	199.531
544.3345	203.1397
544.4954	201.2405
544.6563	193.0232
544.8171	190.8463
544.978	195.9586
545.1389	209.2828
545.2997	202.1715
545.4606	203.3728
545.6215	198.2823
545.7823	195.0341
545.9432	199.912
546.104	201.4453
546.2648	199.0757
546.4256	197.5706
546.5864	204.9752
546.7473	204.6603
546.908	209.5868
547.0688	201.8157
547.2296	204.0354
547.3904	205.0599
547.5511	203.522
547.7119	200.8906
547.8727	190.3222
548.0334	191.4816
548.1942	195.9783
548.3549	206.9185
548.5156	204.048
548.6763	203.1163
548.837	200.9284
548.9977	207.2686
549.1584	208.7558
549.3192	215.974
549.4798	211.24
549.6405	208.5234
549.8011	206.8904
549.9619	199.8233
550.1225	198.0984
550.2831	204.0174
550.4438	200.647
550.6044	203.2601
550.765	211.6225
550.9257	207.6778
551.0863	204.2943
551.2469	201.4533
551.4075	197.5763
551.5681	201.5495
551.7287	209.5942
551.8893	206.8163
552.0498	212.2108
552.2104	208.2935
552.371	207.645
552.5315	196.4893
552.6921	203.5802
552.8526	197.6787
553.0131	212.9003
553.1736	204.0618
553.3342	198.3262
553.4947	200.7962
553.6552	209.687
553.8157	202.2756
553.9762	204.1364
554.1367	206.326
554.2971	210.218
554.4576	204.1209
554.618	203.209
554.7785	204.7318
554.939	205.4102
555.0994	207.1203
555.2598	201.3091
555.4203	201.699
555.5807	196.5526
555.7411	207.2657
555.9015	205.2994
556.0619	200.6538
556.2223	193.5729
556.3827	198.1666
556.5431	192.8034
556.7034	196.5386
556.8638	198.3329
557.0242	190.8308
557.1845	196.0983
557.3448	198.8466
557.5052	196.7281
557.6655	193.1168
557.8259	191.5069
557.9861	193.5289
558.1465	196.4402
558.3068	197.3634
558.467	191.4411
558.6274	185.7041
558.7877	179.9191
558.9479	181.6019
559.1082	184.8283
559.2684	189.6659
559.4287	187.3918
559.5889	186.008
559.7491	183.7043
559.9094	190.9424
560.0696	177.5519
560.2299	183.3572
560.3901	183.0889
560.5502	193.0813
560.7104	193.7665
560.8707	191.2149
561.0308	190.2707
561.191	189.7559
561.3511	184.8903
561.5114	184.8488
561.6714	181.6363
561.8316	178.8705
561.9918	176.0044
562.1519	180.819
562.312	186.0958
562.4722	182.7192
562.6323	172.9643
562.7924	177.5839
562.9525	190.8066
563.1125	183.0548
563.2726	191.4358
563.4327	181.1011
563.5928	175.0793
563.7528	177.9161
563.9129	178.0387
564.0729	178.0007
564.233	182.0025
564.393	174.2343
564.553	177.2263
564.7131	180.1143
564.873	179.8107
565.0331	176.6447
565.1931	174.6759
565.353	175.7375
565.5131	177.1241
565.673	171.1317
565.833	177.042
565.9929	167.2763
566.1529	167.0545
566.3129	172.939
566.4728	172.3376
566.6328	174.3025
566.7927	169.1439
566.9526	167.6354
567.1125	171.5702
567.2724	179.2217
567.4323	181.49
567.5922	181.5773
567.7521	170.7464
567.9119	176.0208
568.0718	172.1722
568.2317	166.3035
568.3915	158.6031
568.5514	165.355
568.7112	167.6457
568.871	166.1727
569.0309	162.8757
569.1907	159.6368
569.3505	167.2466
569.5103	166.122
569.6701	170.2624
569.8299	167.6981
569.9897	162.665
570.1495	154.3377
570.3092	157.4911
570.469	163.1693
570.6287	156.5314
570.7885	150.1331
570.9482	154.3193
571.108	159.6114
571.2677	158.1805
571.4274	156.6266
571.5871	159.8325
571.7468	157.7505
571.9066	162.1885
572.0662	161.3264
572.2259	159.0558
572.3856	166.8911
572.5452	158.8305
572.7049	155.7004
572.8646	161.5807
573.0242	158.3336
573.1838	156.7436
573.3435	157.318
573.5031	157.8394
573.6627	157.7634
573.8223	152.826
573.9819	156.5105
574.1415	157.8768
574.3011	153.1018
574.4607	154.3291
574.6203	155.5562
574.7798	155.0435
574.9394	155.06
575.099	156.1558
575.2585	146.7221
575.418	149.1284
575.5776	153.6857
575.7371	151.5266
575.8966	147.9011
576.0562	144.0863
576.2156	148.5026
576.3751	150.3188
576.5346	151.5292
576.6941	146.9847
576.8536	143.9653
577.0131	150.5874
577.1725	149.2516
577.332	146.1579
577.4914	147.588
577.6508	146.0831
577.8103	147.4501
577.9697	139.5367
578.1291	139.8038
578.2885	139.3106
578.4479	140.7043
578.6073	149.769
578.7667	147.0515
578.9261	140.0802
579.0854	140.5406
579.2448	140.0758
579.4042	141.7955
579.5635	138.0674
579.7229	140.023
579.8822	141.3193
580.0416	136.8243
580.2009	137.5777
580.3602	138.8811
580.5195	134.8916
580.6788	131.8022
580.8381	132.9212
580.9974	137.1014
581.1566	134.9126
581.3159	136.9387
581.4752	139.508
581.6345	133.7353
581.7937	134.5989
581.9529	135.3914
582.1122	131.685
582.2714	135.1752
582.4306	135.6175
582.5898	133.7612
582.749	132.5784
582.9082	137.9771
583.0674	136.5129
583.2266	136.6315
583.3857	135.5496
583.5449	136.0124
583.7041	132.272
583.8633	133.5936
584.0224	132.4062
584.1815	134.6292
584.3407	140.2991
584.4998	134.4368
584.6589	126.9305
584.818	129.4763
584.9771	131.2846
585.1362	132.9621
585.2953	131.1322
585.4544	126.7206
585.6135	127.9397
585.7725	123.2618
585.9316	123.0488
586.0906	128.947
586.2497	124.346
586.4087	123.8488
586.5677	125.8158
586.7267	123.3327
586.8858	129.9192
587.0448	127.5935
587.2038	127.6022
587.3628	132.2458
587.5218	124.2162
587.6807	123.8681
587.8397	125.1366
587.9987	125.919
588.1577	128.0409
588.3166	127.3109
588.4755	124.6344
588.6345	118.6302
588.7934	108.6923
588.9523	109.0916
589.1112	110.7313
589.2701	107.5483
589.429	106.9056
589.5879	110.2036
589.7468	109.2444
589.9056	114.2159
590.0645	116.2067
590.2234	117.2855
590.3822	121.2647
590.5411	120.9985
590.6999	116.8879
590.8588	116.2398
591.0176	122.2716
591.1764	115.26
591.3352	114.9907
591.494	117.9378
591.6528	113.6627
591.8116	116.5044
591.9703	114.358
592.1291	115.8957
592.2878	116.2625
592.4467	122.412
592.6053	113.498
592.7641	116.4801
592.9229	119.9312
593.0816	114.7124
593.2403	113.6845
593.399	115.005
593.5577	116.1492
593.7164	118.5261
593.8751	118.0462
594.0338	115.569
594.1924	113.6313
594.3511	111.1623
594.5098	114.2218
594.6684	109.4735
594.8271	113.5411
594.9857	114.0815
595.1443	109.1879
595.303	107.6575
595.4615	113.5382
595.6202	113.2413
595.7787	122.1966
595.9374	120.694
596.0959	115.2798
596.2545	112.3054
596.4131	112.3029
596.5717	116.5501
596.7302	115.9082
596.8887	114.6837
597.0473	114.4313
597.2058	117.5795
597.3644	116.0169
597.5229	111.0355
597.6814	113.3943
597.8399	114.5485
597.9984	109.5925
598.1569	111.4097
598.3154	114.2736
598.4738	112.6599
598.6323	116.6365
598.7908	112.9571
598.9492	112.0979
599.1076	111.7108
599.2661	112.716
599.4245	113.4881
599.5829	115.2776
599.7413	119.6063
599.8997	113.1432
600.0581	119.6264
600.2165	117.3654
600.3749	116.5568
600.5333	113.612
600.6917	116.8366
600.85	109.9574
601.0084	107.6041
601.1667	112.9729
601.325	113.5734
601.4833	109.3369
601.6417	109.3858
601.8	113.7396
601.9583	107.2635
602.1166	106.3941
602.2749	102.7938
602.4332	107.076
602.5914	111.2843
602.7498	108.3042
602.908	109.8928
603.0662	113.6608
603.2245	108.6751
603.3828	107.274
603.541	118.074
603.6992	115.8022
603.8574	108.0668
604.0156	110.3599
604.1738	113.2252
604.332	106.779
604.4902	108.9165
604.6484	109.3695
604.8065	111.8798
604.9647	111.0098
605.1229	114.5835
605.281	105.7835
605.4391	105.0264
605.5973	102.7342
605.7554	106.276
605.9135	107.5946
606.0717	105.7944
606.2297	110.5691
606.3878	110.3122
606.5459	111.3233
606.704	109.111
606.8621	101.8195
607.0201	102.7684
607.1782	109.5995
607.3362	104.3605
607.4943	108.054
607.6523	111.8076
607.8104	106.5801
607.9684	107.1753
608.1264	108.3178
608.2844	102.8111
608.4424	105.3313
608.6003	98.30373
608.7584	105.5277
608.9163	107.0913
609.0743	104.6988
609.2322	99.84618
609.3902	104.5074
609.5482	107.4238
609.7061	101.5154
609.864	102.482
610.0219	96.84529
610.1798	101.6203
610.3377	101.9516
610.4956	99.51033
610.6535	103.5048
610.8114	97.69918
610.9693	97.47133
611.1271	96.09953
611.285	107.1009
611.4429	100.3647
611.6007	97.15067
611.7585	99.41305
611.9164	100.6625
612.0742	99.48831
612.232	91.13949
612.3898	94.85926
612.5476	93.35732
612.7054	97.73425
612.8632	95.09267
613.0209	96.5448
613.1787	98.25409
613.3365	90.99206
613.4942	96.75376
613.652	93.82215
613.8097	96.88428
613.9674	91.70406
614.1252	96.28594
614.2829	98.59328
614.4406	91.76187
614.5983	97.19846
614.756	94.98428
614.9136	95.07632
615.0714	95.23284
615.229	97.88302
615.3867	96.59153
615.5443	99.38921
615.702	97.88242
615.8596	90.64092
616.0172	86.97589
616.1748	90.84702
616.3325	88.38891
616.4901	85.30732
616.6476	91.04152
616.8052	88.4501
616.9628	90.42298
617.1204	84.44378
617.278	89.46779
617.4355	86.8326
617.5931	91.35087
617.7506	87.42742
617.9081	88.88649
618.0657	89.26604
618.2232	90.85017
618.3807	88.51408
618.5382	88.85757
618.6957	90.57371
618.8532	90.68743
619.0107	90.87437
619.1682	89.17707
619.3256	86.68015
619.4831	87.59909
619.6406	88.23135
619.798	88.29323
619.9554	92.13109
620.1129	97.19563
620.2703	90.91705
620.4277	88.61263
620.5851	90.42731
620.7425	93.54004
620.8998	83.04122
621.0573	87.0211
621.2146	89.20911
621.372	80.95876
621.5294	86.63963
621.6867	89.29745
621.8441	90.66504
622.0013	90.25117
622.1587	90.16324
622.316	84.88185
622.4733	85.65938
622.6306	89.70097
622.7879	90.3819
622.9452	93.19061
623.1025	95.6312
623.2598	89.20538
623.4171	84.6741
623.5743	89.07372
623.7316	88.24793
623.8888	93.61254
624.046	93.48731
624.2032	88.31606
624.3605	91.73373
624.5176	91.47987
624.6749	87.52335
624.8321	87.81004
624.9893	89.40729
625.1464	88.31749
625.3036	86.21544
625.4608	82.70139
625.6179	84.46293
625.7751	89.08201
625.9322	83.65137
626.0894	85.13901
626.2465	85.61878
626.4036	90.28912
626.5607	90.20369
626.7178	88.19575
626.8749	88.10724
627.032	89.99689
627.189	84.9935
627.3461	88.0074
627.5032	84.69785
627.6602	83.1955
627.8173	84.43262
627.9743	80.26105
628.1313	81.24258
628.2884	83.98473
628.4454	85.71643
628.6024	84.12044
628.7594	85.97864
628.9164	87.26692
629.0734	85.14693
629.2303	86.11703
629.3873	78.67587
629.5443	85.41767
629.7012	87.84918
629.8582	86.60818
630.0151	75.63264
630.172	76.33956
630.3289	81.89567
630.4858	85.44989
630.6428	84.68477
630.7996	80.51385
630.9565	78.5101
631.1134	83.67499
631.2703	79.99814
631.4272	88.22538
631.584	80.79958
631.7408	81.50046
631.8977	78.80813
632.0546	84.21353
632.2114	83.52448
632.3682	78.25546
632.525	78.75603
632.6818	80.82929
632.8386	83.47447
632.9954	85.70878
633.1522	81.59695
633.3089	77.05634
633.4657	81.73195
633.6224	79.40243
633.7792	78.41823
633.9359	84.89562
634.0927	83.58378
634.2494	79.26755
634.4061	80.69588
634.5628	77.08349
634.7195	82.82785
634.8762	88.58027
635.0329	85.02044
635.1895	81.17924
635.3462	78.52906
635.5029	77.89527
635.6595	83.9832
635.8162	80.4301
635.9728	73.11202
636.1295	82.82813
636.2861	76.66593
636.4427	78.30882
636.5992	77.1925
636.7559	77.22294
636.9124	76.46976
637.069	76.31062
637.2256	79.34367
637.3821	81.2832
637.5387	82.36078
637.6953	80.13537
637.8518	79.63808
638.0084	80.46169
638.1649	82.67439
638.3214	79.4109
638.4779	75.74878
638.6344	75.14719
638.7909	78.31989
638.9474	84.34642
639.1038	81.7478
639.2603	79.01651
639.4167	77.85428
639.5732	74.86389
639.7297	76.15935
639.8861	72.9837
640.0425	70.82349
640.199	73.57788
640.3553	71.33508
640.5118	75.83627
640.6682	80.43581
640.8245	73.98957
640.981	72.69836
641.1373	71.40768
641.2936	75.49933
641.45	73.72855
641.6064	71.36087
641.7627	71.72002
641.9191	71.62792
642.0754	74.62442
642.2317	74.63134
642.388	74.19254
642.5443	71.8589
642.7006	73.46355
642.8569	77.89925
643.0131	77.34564
643.1694	71.04845
643.3257	72.08887
643.4819	69.00449
643.6382	70.4334
643.7944	70.36887
643.9506	72.64591
644.1069	73.25247
644.2631	68.75167
644.4193	69.82479
644.5754	73.74342
644.7316	74.66348
644.8878	67.71248
645.044	74.10208
645.2002	73.20015
645.3563	73.70536
645.5125	67.69255
645.6686	71.3959
645.8248	69.57449
645.9809	66.50038
646.137	69.36923
646.2931	66.48918
646.4492	63.91301
646.6053	62.90822
646.7614	67.65828
646.9174	65.35405
647.0735	64.11647
647.2296	65.49634
647.3856	66.21177
647.5417	64.4967
647.6977	67.40177
647.8537	68.37283
648.0098	62.00591
648.1658	64.12765
648.3218	63.20351
648.4777	61.13743
648.6337	57.35337
648.7897	63.98887
648.9457	61.74129
649.1016	63.88368
649.2576	59.11341
649.4135	60.59898
649.5695	59.36892
649.7254	61.65416
649.8813	59.95703
650.0372	61.00662
650.1932	60.05791
650.3491	67.90374
650.5049	63.60037
650.6608	65.80933
650.8167	58.03478
650.9725	63.10929
651.1284	64.75211
651.2842	63.85348
651.4401	64.0368
651.5959	58.16283
651.7518	55.79339
651.9076	59.15165
652.0634	60.37978
652.2192	60.32723
652.3749	57.11095
652.5308	61.04438
652.6865	62.53221
652.8423	58.39951
652.998	59.26597
653.1538	60.93083
653.3096	61.45381
653.4653	58.24851
653.621	66.2394
653.7767	64.24058
653.9324	64.54807
654.0881	66.72958
654.2438	62.49176
654.3995	59.68167
654.5552	60.26949
654.7109	63.16565
654.8665	58.60299
655.0222	52.04202
655.1778	53.76736
655.3334	62.2762
655.4891	59.7312
655.6447	57.32979
655.8003	58.8185
655.9559	57.52805
656.1115	53.75969
656.2671	54.3309
656.4227	48.32471
656.5782	51.20166
656.7338	52.81004
656.8893	52.54034
657.0449	56.0477
657.2004	55.75201
657.356	60.82111
657.5115	64.13988
657.667	55.73787
657.8225	59.0118
657.978	60.17186
658.1335	55.83279
658.289	56.95448
658.4445	56.37995
658.5999	64.41982
658.7554	62.4002
658.9108	59.79082
659.0663	57.48775
659.2217	55.44759
659.3771	57.30935
659.5325	55.30104
659.6879	52.96262
659.8433	61.0253
659.9987	62.32441
660.1541	59.43099
660.3095	52.95273
660.4648	57.02688
660.6202	54.70113
660.7756	53.73562
660.9309	56.86404
661.0862	57.11169
661.2416	54.75859
661.3969	58.82124
661.5522	56.05487
661.7075	56.26217
661.8628	64.06505
662.0181	58.15207
662.1733	58.30907
662.3286	52.66931
662.4839	53.41351
662.6391	51.70939
662.7944	53.49937
662.9496	52.46592
663.1048	54.50346
663.26	58.8528
663.4152	54.81769
663.5704	52.02179
663.7256	60.51319
663.8808	59.63454
664.036	54.99577
664.1912	53.43443
664.3463	51.74941
664.5015	53.54883
664.6566	52.29969
664.8118	53.88053
664.9669	57.13414
665.122	58.40716
665.2771	57.88832
665.4322	56.44682
665.5873	48.71762
665.7424	53.97021
665.8975	51.46315
666.0526	56.82328
666.2076	53.48129
666.3627	49.30986
666.5177	48.53505
666.6727	49.60445
666.8278	51.24746
666.9828	51.66837
667.1378	55.4913
667.2928	55.58733
667.4478	51.36924
667.6028	53.86268
667.7578	55.18121
667.9127	60.22776
668.0677	54.96849
668.2226	55.84753
668.3776	47.85217
668.5325	49.02275
668.6874	48.92103
668.8423	53.12119
668.9973	51.47258
669.1522	51.10669
669.3071	50.49532
669.4619	52.89208
669.6168	54.51881
669.7717	57.6233
669.9265	51.08315
670.0814	55.37169
670.2362	54.12489
670.3911	51.90479
670.5459	50.78215
670.7007	52.69493
670.8555	55.45491
671.0103	52.01558
671.1651	45.82384
671.3199	47.07696
671.4747	46.67392
671.6295	48.44636
671.7842	47.66585
671.939	48.37141
672.0937	54.97892
672.2484	51.14204
672.4031	47.30604
672.5579	51.63611
672.7126	54.14274
672.8673	54.60349
673.022	53.62568
673.1767	49.67565
673.3314	47.87791
673.486	49.01397
673.6407	49.87785
673.7953	48.32389
673.95	46.31196
674.1046	49.78329
674.2592	47.17141
674.4138	47.68731
674.5684	46.94123
674.723	46.33043
674.8776	45.45958
675.0322	47.44324
675.1868	49.98767
675.3414	49.85143
675.4959	54.27189
675.6505	51.76021
675.805	54.76112
675.9595	50.54279
676.1141	48.03412
676.2686	47.48201
676.4231	46.74767
676.5776	47.23346
676.7321	50.50251
676.8866	48.53182
677.041	44.61267
677.1955	48.44861
677.35	51.77348
677.5044	47.2161
677.6589	48.21767
677.8133	46.2715
677.9677	50.24989
678.1221	45.7473
678.2766	52.78668
678.4309	45.2249
678.5853	44.49896
678.7397	47.2376
678.8941	41.28234
679.0485	46.85468
679.2028	52.37399
679.3571	49.41984
679.5115	48.45764
679.6658	52.66978
679.8201	51.60638
679.9744	56.29893
680.1288	48.70024
680.2831	47.11319
680.4373	49.94086
680.5916	48.99098
680.7459	45.69368
680.9001	45.32571
681.0544	48.49174
681.2087	47.4337
681.3629	38.73778
681.5171	43.01536
681.6713	44.90701
681.8256	49.14589
681.9797	48.21292
682.134	46.52317
682.2881	46.27039
682.4423	43.5642
682.5965	48.16163
682.7507	46.3484
682.9048	50.63236
683.059	52.34584
683.2131	49.13785
683.3672	44.7238
683.5213	45.25748
683.6754	51.33767
683.8295	51.96549
683.9836	46.56085
684.1377	49.00108
684.2918	46.0428
684.4459	48.99009
684.5999	48.69896
684.754	47.12822
684.908	48.59935
685.062	44.61844
685.2161	47.22388
685.3701	50.51207
685.5241	46.19476
685.6781	44.40629
685.8321	50.88332
685.9861	44.4197
686.14	48.24225
686.294	47.39435
686.4479	42.8938
686.6019	43.97803
686.7559	37.55801
686.9098	40.90106
687.0637	43.30558
687.2176	39.3285
687.3715	37.69208
687.5254	39.06971
687.6793	43.03498
687.8332	48.73199
687.9871	43.43462
688.1409	45.15628
688.2947	48.39546
688.4486	48.40804
688.6024	54.64904
688.7563	47.47024
688.9101	46.1132
689.0639	43.14914
689.2177	42.46386
689.3715	44.55964
689.5253	48.51988
689.6791	49.03798
689.8328	49.47002
689.9866	45.2777
690.1403	52.93532
690.2941	53.96688
690.4478	49.10436
690.6015	45.2318
690.7552	47.17113
690.9089	46.40952
691.0626	46.37695
691.2164	49.67638
691.37	48.15784
691.5237	46.52722
691.6774	54.40978
691.831	49.04398
691.9847	50.67499
692.1383	51.71564
692.2919	53.09592
692.4456	47.27437
692.5992	48.66955
692.7527	49.33487
692.9064	48.44004
693.0599	50.77371
693.2136	56.55833
693.3671	55.88127
693.5207	57.20995
693.6742	52.37993
693.8278	49.48344
693.9813	55.46718
694.1348	48.64506
694.2883	54.46955
694.4418	54.80185
694.5953	57.54768
694.7488	52.94362
694.9023	56.9148
695.0558	56.92444
695.2093	55.40717
695.3627	54.44065
695.5162	58.07197
695.6696	58.97068
695.8231	57.24536
695.9764	56.02761
696.1299	62.45575
696.2833	62.43623
696.4367	64.47005
696.5901	64.57243
696.7435	61.19915
696.8968	59.9224
697.0502	61.25861
697.2036	66.41497
697.3569	64.1497
697.5102	63.25751
697.6635	64.9889
697.8168	61.12332
697.9702	68.73096
698.1235	71.87579
698.2768	67.55542
698.4301	68.74205
698.5833	66.97944
698.7366	69.73061
698.8898	62.45854
699.0431	70.95797
699.1964	69.21724
699.3495	68.73793
699.5028	69.69884
699.656	65.433
699.8092	68.10878
699.9624	69.35973
700.1156	73.77425
700.2688	75.94307
700.4219	74.03567
700.5751	66.73272
700.7283	75.75115
700.8814	82.0199
701.0345	73.53252
701.1877	74.38503
701.3408	73.27667
701.4939	78.26406
701.647	78.83853
701.8001	76.16087
701.9532	79.99261
702.1063	79.96436
702.2593	78.51219
702.4124	77.39525
702.5654	77.1386
702.7184	77.4943
702.8715	80.68173
703.0245	76.41669
703.1776	78.43733
703.3305	84.53411
703.4835	77.88956
703.6365	81.55033
703.7895	81.71557
703.9424	83.0517
704.0954	78.28729
704.2484	76.83831
704.4013	80.67827
704.5543	84.85768
704.7072	83.92825
704.8601	87.37154
705.013	85.50262
705.1659	84.79179
705.3188	83.87688
705.4717	88.90284
705.6246	89.75061
705.7774	96.57711
705.9303	87.54965
706.0831	94.30913
706.236	86.40955
706.3888	93.93813
706.5416	87.57536
706.6944	89.32854
706.8472	91.4876
707	85.45914
707.1528	92.91386
707.3056	89.71781
707.4583	94.44573
707.6111	97.10313
707.7639	96.66101
707.9166	95.63178
708.0693	92.60285
708.222	89.76661
708.3748	91.5656
708.5275	94.36288
708.6802	90.00234
708.8328	92.96181
708.9855	95.2254
709.1382	93.81558
709.2909	101.0842
709.4435	97.53732
709.5962	99.31571
709.7488	100.7622
709.9014	100.6897
710.054	96.03569
710.2067	95.38071
710.3593	98.04441
710.5118	102.8016
710.6644	105.5786
710.817	106.4597
710.9695	107.8639
711.1221	107.362
711.2747	100.3069
711.4272	93.91954
711.5797	95.50871
711.7322	97.26015
711.8848	101.1992
712.0373	102.7524
712.1898	101.4532
712.3422	106.3004
712.4948	101.8796
712.6472	111.7857
712.7996	104.9966
712.9521	103.0355
713.1046	103.5576
713.257	107.9829
713.4094	110.3885
713.5618	111.0778
713.7142	106.8025
713.8666	109.6553
714.019	104.5513
714.1714	109.7518
714.3237	110.1384
714.4761	107.9274
714.6285	99.26981
714.7808	104.0749
714.9331	109.5696
715.0854	110.7666
715.2378	106.7948
715.3901	110.0186
715.5424	114.5568
715.6947	114.538
715.8469	109.326
715.9992	115.2179
716.1515	109.0953
716.3037	104.0617
716.456	106.9703
716.6082	97.68031
716.7604	99.9938
716.9127	103.1662
717.0649	91.78928
717.2171	89.14687
717.3693	92.70109
717.5214	93.29929
717.6736	92.75124
717.8258	97.00741
717.978	99.5046
718.1301	105.4195
718.2822	101.2873
718.4344	97.40322
718.5865	93.67551
718.7386	91.65043
718.8907	91.08685
719.0428	95.16312
719.1949	103.7021
719.3469	92.93527
719.499	95.48053
719.6511	104.3906
719.8031	105.0453
719.9551	95.59285
720.1072	102.4943
720.2592	103.4538
720.4112	100.1897
720.5632	96.5976
720.7152	99.22292
720.8672	108.5386
721.0192	108.9984
721.1711	114.0844
721.3231	116.6326
721.475	121.0893
721.627	128.8787
721.7789	124.8587
721.9308	121.6353
722.0828	122.2428
722.2347	122.8162
722.3866	121.1184
722.5385	124.852
722.6903	118.83
722.8422	122.5212
722.9941	118.4105
723.1459	115.1526
723.2977	110.6346
723.4496	107.2908
723.6014	105.3156
723.7532	114.3943
723.905	119.1728
724.0568	110.2246
724.2086	110.4004
724.3604	119.0202
724.5121	110.4069
724.6639	112.2584
724.8157	114.4557
724.9674	114.054
725.1191	120.0635
725.2709	112.7096
725.4226	110.8236
725.5743	113.329
725.726	123.3085
725.8777	127.6787
726.0294	132.2812
726.181	123.0479
726.3327	114.0797
726.4844	108.9566
726.636	118.7589
726.7877	123.0187
726.9393	124.7605
727.0909	130.1042
727.2425	125.3323
727.3941	120.2494
727.5457	119.363
727.6973	117.7261
727.8488	113.9405
728.0004	119.7458
728.1519	121.5671
728.3035	126.536
728.455	132.9816
728.6066	135.5125
728.7581	131.6389
728.9095	126.829
729.0611	115.0045
729.2126	112.8499
729.364	112.7442
729.5155	121.2282
729.667	132.2017
729.8184	137.2128
729.9698	137.077
730.1213	134.1884
730.2727	131.6526
730.4241	134.3606
730.5756	133.2039
730.7269	132.1531
730.8784	137.1371
731.0297	135.9141
731.1811	126.3023
731.3325	136.3537
731.4838	136.6938
731.6351	134.8139
731.7865	137.6
731.9378	138.3567
732.0891	140.1421
732.2404	146.6293
732.3917	149.2408
732.543	153.4534
732.6943	145.8315
732.8456	147.354
732.9968	143.4648
733.1481	149.3075
733.2993	152.6524
733.4506	152.2732
733.6018	153.5864
733.753	154.9797
733.9042	153.4048
734.0554	156.5753
734.2066	162.7727
734.3578	154.6055
734.509	157.2095
734.6602	156.5019
734.8113	155.96
734.9624	151.7793
735.1136	156.032
735.2647	154.6855
735.4158	156.1042
735.5669	156.4131
735.718	157.6704
735.8691	148.6098
736.0201	155.3605
736.1713	152.9764
736.3223	153.6225
736.4733	152.8839
736.6244	155.0502
736.7755	155.0299
736.9265	157.8409
737.0775	160.7305
737.2285	158.9096
737.3795	162.7127
737.5305	164.5995
737.6815	150.083
737.8324	160.3258
737.9834	159.3581
738.1343	162.8661
738.2853	157.8629
738.4362	155.8513
738.5871	156.7494
738.738	157.8926
738.8889	150.6367
739.0399	153.0876
739.1907	157.6031
739.3416	155.9154
739.4925	157.416
739.6433	163.9399
739.7942	164.3492
739.945	159.657
740.0958	164.7101
740.2467	161.8636
740.3975	159.5934
740.5483	162.6199
740.6991	167.6871
740.8499	162.7679
741.0007	165.0674
741.1514	166.1824
741.3022	159.8864
741.4529	157.9394
741.6036	159.8609
741.7544	163.6288
741.9051	159.436
742.0558	163.5186
742.2065	168.3417
742.3572	167.0697
742.5079	159.9862
742.6586	161.9939
742.8093	165.3024
742.9599	180.9224
743.1105	169.4797
743.2612	170.9084
743.4118	167.5941
743.5624	170.7961
743.7131	170.2031
743.8636	167.0708
744.0142	171.6885
744.1648	168.5118
744.3154	165.5698
744.4659	163.151
744.6165	157.8353
744.767	159.8458
744.9176	162.9164
745.0681	163.0967
745.2186	169.4341
745.3691	164.4501
745.5197	163.3775
745.6702	171.3833
745.8206	167.69
745.9711	167.5671
746.1215	163.0878
746.272	165.9167
746.4224	165.0366
746.5729	161.4744
746.7233	165.8425
746.8737	166.4027
747.0241	168.5352
747.1745	163.9515
747.3249	158.3926
747.4753	165.1392
747.6257	162.7191
747.776	164.0738
747.9264	164.1008
748.0767	168.4373
748.2271	169.8231
748.3774	167.6842
748.5276	165.6156
748.678	162.9223
748.8282	161.2032
748.9786	162.7186
749.1288	162.6445
749.2791	166.4869
749.4294	166.2397
749.5796	162.7077
749.7299	158.3285
749.8801	158.7694
750.0303	164.7508
750.1805	163.3332
750.3307	159.5438
750.4809	157.8016
750.6311	166.32
750.7813	160.579
750.9314	163.0301
751.0816	156.2435
751.2318	154.6077
751.3818	152.8325
751.532	156.3954
751.6821	160.0747
751.8322	167.5634
751.9823	165.7293
752.1324	160.9377
752.2825	162.8597
752.4326	160.4138
752.5826	159.4267
752.7327	155.3351
752.8827	158.1295
753.0327	158.8184
753.1827	157.3623
753.3328	158.1132
753.4828	166.4988
753.6328	155.6747
753.7828	151.3333
753.9327	155.3464
754.0827	156.5274
754.2327	154.9857
754.3826	155.0115
754.5325	156.8947
754.6825	155.1345
754.8324	153.262
754.9823	153.1547
755.1322	151.332
755.2821	144.018
755.432	143.81
755.5818	148.2058
755.7318	149.8648
755.8816	153.64
756.0314	153.6612
756.1813	155.1485
756.3311	155.4594
756.4809	149.3759
756.6307	146.9995
756.7805	151.0924
756.9303	148.7255
757.0801	144.3865
757.2299	142.3023
757.3796	137.326
757.5294	140.161
757.6791	151.8239
757.8289	147.5073
757.9786	140.3657
758.1283	148.6411
758.278	146.0155
758.4277	143.4064
758.5773	139.5743
758.7271	142.9963
758.8767	138.2926
759.0264	145.0252
759.176	138.2388
759.3256	127.4182
759.4753	102.3614
759.6249	76.23265
759.7745	61.81102
759.9241	53.43622
760.0737	46.57763
760.2233	41.08215
760.3729	35.7724
760.5224	36.22475
760.6719	34.82713
760.8215	41.07146
760.971	43.58612
761.1205	44.82272
761.2701	50.91069
761.4196	61.25258
761.5691	74.64164
761.7186	86.8045
761.868	100.4279
762.0175	103.3834
762.167	91.53084
762.3164	80.15392
762.4659	70.42176
762.6153	63.64247
762.7647	69.55219
762.9141	67.32192
763.0635	65.04569
763.2129	62.93815
763.3623	65.80115
763.5117	64.70064
763.661	66.63968
763.8104	69.01254
763.9597	71.35116
764.1091	78.46289
764.2584	81.28904
764.4077	74.47852
764.557	85.2923
764.7063	86.95863
764.8556	89.54991
765.0049	88.71062
765.1541	88.54826
765.3034	99.44579
765.4526	93.76277
765.6019	91.95597
765.7511	92.88776
765.9003	100.3642
766.0496	99.29097
766.1987	102.7956
766.348	105.3056
766.4971	106.3591
766.6463	110.4402
766.7955	111.9194
766.9446	112.5011
767.0938	112.6509
767.2429	112.8214
767.392	115.7074
767.5411	116.4521
767.6902	123.5979
767.8394	114.6224
767.9884	120.8695
768.1375	121.7056
768.2866	125.6944
768.4356	123.2567
768.5847	117.9446
768.7337	123.346
768.8828	122.5476
769.0317	117.3714
769.1808	115.3943
769.3298	119.0543
769.4788	113.9681
769.6277	118.4741
769.7767	122.5025
769.9257	123.9882
770.0746	117.6453
770.2236	114.8435
770.3725	127.4025
770.5214	122.5321
770.6703	126.4827
770.8193	124.6863
770.9681	123.6313
771.1171	115.3398
771.2659	117.2964
771.4148	122.0625
771.5637	121.0156
771.7125	115.2391
771.8613	118.6228
772.0101	121.9414
772.159	117.8736
772.3078	122.5721
772.4566	114.4618
772.6054	117.4976
772.7542	120.1029
772.903	121.9499
773.0517	119.5807
773.2004	117.4799
773.3492	122.693
773.4979	120.1004
773.6467	114.1168
773.7953	116.4854
773.944	114.7865
774.0928	117.6493
774.2415	120.5286
774.3901	115.9382
774.5388	109.1669
774.6874	119.1438
774.8361	114.0984
774.9847	109.1508
775.1334	117.3791
775.282	118.5383
775.4305	114.5119
775.5792	116.4429
775.7277	111.3119
775.8763	111.5188
776.0249	113.1219
776.1735	116.2089
776.322	112.6635
776.4705	116.5924
776.6191	113.4102
776.7676	120.7104
776.9161	117.5884
777.0646	118.4993
777.2131	112.1872
777.3616	108.4958
777.5101	110.0202
777.6585	116.9913
777.8069	106.5077
777.9554	107.3488
778.1038	107.8835
778.2523	115.4292
778.4007	115.8784
778.5491	113.7617
778.6974	108.9736
778.8459	111.239
778.9942	118.35
779.1426	108.9721
779.291	111.3402
779.4393	111.6511
779.5876	114.5019
779.736	111.3004
779.8843	109.4327
780.0326	110.7475
780.1809	109.764
780.3292	108.4299
780.4775	113.2031
780.6257	115.1184
780.774	112.5132
780.9222	108.8761
781.0704	101.4361
781.2187	104.4772
781.3669	113.4363
781.5151	114.802
781.6633	115.3023
781.8115	109.0087
781.9597	108.466
782.1078	111.4603
782.256	104.9095
782.4042	104.06
782.5523	106.7182
782.7004	108.8398
782.8486	106.9464
782.9967	107.5174
783.1448	100.9298
783.2929	104.8606
783.441	109.4963
783.5891	108.4545
783.7371	106.6986
783.8851	104.531
784.0332	103.5333
784.1812	105.9825
784.3293	105.6458
784.4773	105.4166
784.6253	108.3954
784.7733	103.2594
784.9213	108.3
785.0692	102.2352
785.2172	100.177
785.3652	102.9765
785.5131	105.3746
785.6611	104.5572
785.809	105.4591
785.9569	100.4577
786.1048	99.92744
786.2527	102.6483
786.4006	104.6842
786.5485	105.1905
786.6964	102.7535
786.8442	99.96155
786.9921	98.25648
787.1399	101.3589
787.2877	102.4131
787.4355	101.145
787.5833	102.6005
787.7311	102.3354
787.8789	98.06416
788.0267	98.41753
788.1745	99.39275
788.3223	104.3764
788.47	103.1394
788.6177	103.2567
788.7654	103.3776
788.9132	96.64969
789.0609	99.13838
789.2086	103.8714
789.3563	99.06557
789.504	95.28625
789.6517	96.36517
789.7993	97.67879
789.947	96.98828
790.0946	99.38633
790.2422	98.91813
790.3898	94.84982
790.5375	95.96057
790.6851	99.3913
790.8326	90.0429
790.9802	94.45797
791.1278	93.53994
791.2754	96.409
791.423	104.4974
791.5705	95.32575
791.718	92.86253
791.8655	92.33276
792.0131	97.80892
792.1606	100.5595
792.308	92.07831
792.4556	89.6593
792.603	93.99232
792.7505	97.54459
792.8979	93.72563
793.0454	92.6383
793.1928	96.44872
793.3403	97.2012
793.4877	95.44529
793.6351	90.11982
793.7825	91.42493
793.9299	90.40192
794.0772	93.56723
794.2246	95.86093
794.3719	90.90917
794.5193	91.5836
794.6666	91.9614
794.814	96.04443
794.9613	89.6812
795.1086	91.81547
795.2559	92.00512
795.4032	92.73727
795.5505	86.65027
795.6978	84.49393
795.845	87.5049
795.9922	86.88435
796.1395	91.28506
796.2867	88.96061
796.4339	88.63988
796.5811	92.02601
796.7283	91.10503
796.8755	90.07971
797.0227	89.45438
797.1699	92.26147
797.317	91.53453
797.4642	92.25164
797.6113	89.00481
797.7584	85.44812
797.9056	85.18452
798.0527	91.60224
798.1998	89.03856
798.3469	92.11822
798.494	91.55844
798.641	84.29518
798.7881	84.81797
798.9351	86.14516
799.0822	87.06642
799.2292	91.62527
799.3762	87.55016
799.5232	87.76067
799.6702	80.00549
799.8172	88.25945
799.9642	85.50807
800.1111	86.8822
800.2581	86.60226
800.4051	88.21484
800.552	84.05427
800.6989	91.35788
800.8458	87.7086
800.9927	80.11729
801.1396	83.41682
801.2866	84.8744
801.4334	86.46072
801.5803	82.67701
801.7272	90.71349
801.874	87.06602
802.0209	88.6326
802.1677	87.4454
802.3145	78.60393
802.4613	86.10309
802.6081	84.49935
802.7549	80.40452
802.9017	84.13672
803.0485	85.86485
803.1952	81.90115
803.342	78.65247
803.4887	81.61278
803.6354	80.87987
803.7822	83.05928
803.9289	76.54796
804.0756	83.4865
804.2223	78.43251
804.369	76.91904
804.5156	75.91103
804.6623	78.09481
804.8089	85.13184
804.9556	78.60881
805.1022	80.47182
805.2488	84.89858
805.3954	83.08526
805.542	79.59617
805.6886	82.56355
805.8352	87.46024
805.9818	82.03176
806.1283	80.88302
806.2749	77.61433
806.4214	78.59083
806.5679	78.36518
806.7145	78.40343
806.861	78.02087
807.0074	81.79991
807.154	86.61133
807.3004	80.98449
807.4469	76.32693
807.5934	84.95814
807.7398	81.1043
807.8862	81.53969
808.0327	83.73135
808.1791	78.325
808.3255	76.20389
808.4719	73.12936
808.6183	79.09534
808.7647	75.41394
808.9111	76.16746
809.0574	74.95359
809.2037	77.83304
809.3501	77.44828
809.4965	73.97878
809.6428	70.63005
809.7891	75.10225
809.9354	75.02523
810.0817	75.24784
810.2279	76.35779
810.3742	75.62022
810.5204	74.5136
810.6667	71.80856
810.8129	74.73762
810.9592	64.18011
811.1054	65.1274
811.2516	70.12959
811.3978	66.2766
811.5439	70.45169
811.6901	72.43402
811.8363	69.80251
811.9825	68.94154
812.1286	75.15307
812.2748	74.24087
812.4209	66.40403
812.567	67.19892
812.7131	68.98837
812.8592	60.57663
813.0053	65.5112
813.1514	64.14466
813.2974	58.132
813.4435	56.28226
813.5895	56.43967
813.7356	58.90907
813.8816	65.01775
814.0276	60.52577
814.1736	60.71975
814.3196	58.7951
814.4656	60.08152
814.6116	59.26397
814.7576	55.78146
814.9035	59.83996
815.0494	54.71488
815.1954	54.26727
815.3413	54.3287
815.4872	56.07766
815.6331	58.61265
815.779	57.53598
815.9249	57.74672
816.0707	56.26441
816.2166	55.29287
816.3625	48.83928
816.5083	51.16817
816.6542	50.34377
816.8	55.67909
816.9458	47.50959
817.0916	49.0141
817.2374	56.43987
817.3832	52.34266
817.5289	59.84331
817.6747	54.4933
817.8204	49.50175
817.9662	40.49493
818.1119	47.84787
818.2576	57.77674
818.4034	58.29964
818.5491	58.09332
818.6948	58.06298
818.8405	57.06446
818.9861	56.98709
819.1318	58.43289
819.2774	55.88871
819.423	56.44685
819.5687	56.84575
819.7143	50.3083
819.8599	46.6015
820.0055	48.35826
820.1511	49.08788
820.2967	55.26804
820.4422	61.52437
820.5878	65.25568
820.7333	58.54089
820.8788	58.59135
821.0244	60.40875
821.1699	60.79094
821.3154	61.99994
821.4609	59.47286
821.6064	62.41623
821.7519	55.66014
821.8973	54.9991
822.0428	54.92745
822.1882	53.33334
822.3337	55.21549
822.4791	47.18924
822.6245	48.07025
822.7699	36.65606
822.9153	36.38268
823.0607	35.1995
823.2061	37.08575
823.3514	44.26523
823.4968	50.24686
823.6422	55.84151
823.7875	52.18557
823.9328	56.82905
824.0781	52.94206
824.2234	46.46199
824.3687	51.86177
824.514	57.38747
824.6592	58.47715
824.8045	60.19182
824.9498	61.31235
825.095	59.02092
825.2402	58.02923
825.3854	58.52026
825.5306	56.3486
825.6758	52.13808
825.821	48.95245
825.9662	53.34638
826.1114	52.03136
826.2565	54.87268
826.4017	59.46797
826.5468	52.78687
826.692	56.59507
826.837	54.77425
826.9822	57.06773
827.1273	54.29489
827.2723	52.51506
827.4174	51.57157
827.5625	51.61109
827.7075	54.50192
827.8526	51.53418
827.9976	46.08187
828.1426	48.52858
828.2877	50.65125
828.4327	54.46532
828.5776	48.12957
828.7227	51.67986
828.8676	48.57924
829.0126	48.79535
829.1575	50.68756
829.3024	48.864
829.4474	53.96601
829.5923	53.34869
829.7372	49.50176
829.8821	54.793
830.027	56.0794
830.1719	48.51047
830.3168	46.40746
830.4616	48.52974
830.6064	51.01863
830.7513	54.9313
830.8961	54.28237
831.041	51.22912
831.1857	50.57421
831.3306	47.94148
831.4753	46.70125
831.6201	50.63133
831.7649	48.6786
831.9096	43.04416
832.0544	44.95919
832.1991	51.87175
832.3438	52.02768
832.4885	49.18446
832.6332	45.83836
832.778	49.3598
832.9226	48.56607
833.0673	49.21485
833.2119	50.46317
833.3566	49.3539
833.5012	49.75916
833.6459	51.81654
833.7905	46.60832
833.9351	45.58802
834.0797	47.54009
834.2243	52.10881
834.3688	53.96276
834.5134	53.04896
834.658	49.12851
834.8026	50.91955
834.9471	47.30259
835.0916	49.35991
835.2361	52.47852
835.3806	49.92839
835.5251	40.44392
835.6696	48.19857
835.8141	51.25993
835.9586	48.97379
836.103	42.36124
836.2474	54.56284
836.3918	53.71719
836.5363	47.99004
836.6807	48.55912
836.8251	51.6359
836.9695	51.79354
837.1138	51.21469
837.2582	45.99342
837.4026	45.86636
837.5469	48.04947
837.6913	52.27951
837.8356	52.51165
837.9799	49.78253
838.1242	49.0022
838.2686	51.66756
838.4128	50.69043
838.5571	51.74702
838.7014	48.74755
838.8456	46.9313
838.9899	46.63063
839.1341	52.14439
839.2783	55.16721
839.4225	48.05724
839.5667	48.47065
839.7109	52.62772
839.8551	49.51608
839.9993	50.34131
840.1434	49.84299
840.2876	53.8821
840.4317	47.44402
840.5759	50.0745
840.72	51.77345
840.8641	52.53942
841.0082	50.26754
841.1523	46.73774
841.2963	47.70033
841.4404	49.17744
841.5845	50.8577
841.7285	44.96529
841.8726	44.30902
842.0165	49.70697
842.1606	48.84695
842.3046	45.82729
842.4485	48.88309
842.5925	47.52689
842.7365	45.8508
842.8805	52.61365
843.0244	47.80605
843.1684	47.31869
843.3123	48.37123
843.4562	48.7847
843.6002	49.57909
843.744	49.22872
843.8879	46.90436
844.0318	50.40953
844.1757	51.83535
844.3195	47.14474
844.4634	50.61356
844.6072	49.38048
844.751	49.88011
844.8948	50.37038
845.0386	50.55924
845.1824	50.63438
845.3262	51.5401
845.47	47.35529
845.6138	49.29642
845.7575	45.90845
845.9012	45.81473
846.045	41.62085
846.1887	45.90825
846.3324	48.37949
846.4761	42.99109
846.6198	46.09446
846.7635	48.04159
846.9071	46.56421
847.0508	42.82622
847.1944	48.15634
847.3381	45.66478
847.4817	47.89463
847.6253	50.44976
847.7689	49.73001
847.9125	49.61823
848.0561	48.87987
848.1996	47.542
848.3432	44.18436
848.4868	43.5022
848.6303	46.77292
848.7738	43.81751
848.9174	40.45891
849.0609	39.09865
849.2043	42.95263
849.3478	47.00177
849.4913	41.96368
849.6348	43.368
849.7782	43.345
849.9217	39.39656
850.0651	38.00015
850.2086	45.31802
850.3519	47.29221
850.4954	43.35976
850.6387	44.46283
850.7821	48.44243
850.9255	48.37242
851.0688	46.60994
851.2122	45.86137
851.3555	45.32917
851.4988	42.20634
851.6422	46.57293
851.7855	41.48252
851.9288	41.33521
852.0721	47.73976
852.2153	46.8696
852.3586	38.80023
852.5018	43.87652
852.6451	50.64222
852.7883	47.21749
852.9315	44.56794
853.0748	45.27153
853.218	45.5941
853.3611	45.81834
853.5043	45.97382
853.6475	44.10878
853.7906	44.73512
853.9338	39.12996
854.0769	34.67588
854.22	32.14734
854.3632	26.37222
854.5063	33.5547
854.6494	36.28291
854.7924	40.4455
854.9355	38.34952
855.0786	40.22731
855.2216	35.96884
855.3647	34.11261
855.5077	42.64627
855.6507	42.69933
855.7937	40.67047
855.9367	43.36159
856.0797	44.91808
856.2227	41.3987
856.3657	40.19337
856.5086	39.45215
856.6516	40.70524
856.7945	47.32904
856.9374	42.1461
857.0803	36.98892
857.2232	40.12017
857.3661	42.37681
857.509	41.28916
857.6519	40.28384
857.7947	40.36093
857.9376	46.71445
858.0804	42.62809
858.2232	43.19759
858.366	46.4436
858.5089	42.67696
858.6516	41.95089
858.7944	35.59262
858.9372	45.0293
859.08	43.6904
859.2227	39.64186
859.3654	40.26382
859.5082	40.30685
859.6509	43.65014
859.7936	40.3814
859.9363	40.69722
860.079	41.25338
860.2217	37.61841
860.3643	42.75303
860.507	40.18577
860.6496	41.8932
860.7922	40.98542
860.9349	41.04482
861.0775	34.85372
861.2201	38.38261
861.3627	40.39148
861.5052	37.73304
861.6478	42.05816
861.7904	42.7496
861.9329	40.01944
862.0755	36.19672
862.218	38.73676
862.3605	40.81738
862.503	41.13484
862.6455	37.81436
862.788	38.22755
862.9305	41.28708
863.0729	45.2872
863.2154	39.63643
863.3578	38.39897
863.5002	42.31004
863.6426	38.61164
863.7851	39.85268
863.9275	35.74353
864.0698	39.97739
864.2122	36.57731
864.3546	37.43382
864.4969	42.91328
864.6393	35.56246
864.7816	35.93629
864.924	39.76404
865.0662	36.16681
865.2086	39.1935
865.3508	40.60554
865.4931	38.77676
865.6354	32.3468
865.7776	32.06163
865.9199	38.06071
866.0621	28.86837
866.2043	29.93806
866.3466	28.12274
866.4888	35.33541
866.6309	34.3008
866.7731	36.23828
866.9153	34.18831
867.0574	34.44726
867.1996	34.52267
867.3417	36.34797
867.4839	33.39821
867.626	28.87938
867.7681	35.44685
867.9102	36.81932
868.0522	42.05902
868.1943	35.07202
868.3364	35.7401
868.4785	36.3399
868.6205	34.00185
868.7625	35.66897
868.9045	33.39717
869.0465	35.33004
869.1885	36.25339
869.3305	35.50609
869.4725	36.35094
869.6144	35.3837
869.7564	34.35317
869.8983	32.65905
870.0403	33.34792
870.1822	36.26013
870.3241	34.07945
870.466	33.15525
870.6079	33.27706
870.7498	32.40904
870.8916	34.13511
871.0335	36.79737
871.1754	31.50573
871.3171	38.90706
871.459	37.50876
871.6008	34.51205
871.7426	32.54033
871.8844	32.88235
872.0262	36.50978
872.1679	35.15606
872.3097	32.23468
872.4514	28.68745
872.5931	34.11813
872.7349	34.92732
872.8766	31.07281
873.0183	32.23619
873.16	34.97374
873.3017	35.23838
873.4434	27.30848
873.585	28.89739
873.7266	33.35048
873.8683	33.7451
874.0099	33.57401
874.1516	33.96811
874.2932	32.89999
874.4348	33.34488
874.5763	33.58614
874.7179	31.62662
874.8594	33.06229
875.001	33.41642
875.1425	32.23162
875.2841	36.14666
875.4256	34.69701
875.5671	34.3847
875.7086	33.15121
875.85	34.02406
875.9915	29.3108
876.133	32.67106
876.2744	33.22252
876.4159	32.32101
876.5573	31.43633
876.6987	30.55891
876.8401	34.03859
876.9815	33.19713
877.1229	33.75231
877.2643	29.22152
877.4056	32.58774
877.547	32.35679
877.6884	30.43642
877.8297	30.59558
877.971	31.66794
878.1123	31.97927
878.2536	32.79163
878.3949	32.14024
878.5362	34.05576
878.6774	31.22197
878.8187	36.43221
878.9599	36.48627
879.1011	23.88232
879.2424	27.46966
879.3836	28.99973
879.5248	28.63886
879.666	32.41249
879.8071	34.52938
879.9483	33.67714
880.0895	34.83099
880.2306	35.85765
880.3718	29.74466
880.5129	30.45388
880.654	32.60778
880.7951	26.88548
880.9362	32.32477
881.0773	27.9533
881.2183	33.90398
881.3594	39.23613
881.5004	31.21455
881.6414	32.53461
881.7825	31.21286
881.9235	28.34883
882.0645	31.02326
882.2054	25.44436
882.3464	26.78615
882.4874	29.65018
882.6284	30.84851
882.7693	29.11132
882.9103	31.83286
883.0512	31.21349
883.1921	27.4181
883.333	27.86762
883.4739	32.10583
883.6147	33.58862
883.7556	30.42345
883.8965	27.74275
884.0374	28.04129
884.1782	30.8225
884.319	30.69676
884.4598	27.19115
884.6006	27.64064
884.7414	34.26641
884.8822	28.40244
885.0229	25.01564
885.1637	28.79681
885.3044	31.77866
885.4452	29.90432
885.5859	25.79368
885.7266	26.88137
885.8673	29.15373
886.008	29.73615
886.1487	27.66454
886.2894	25.48988
886.43	28.13192
886.5707	27.62467
886.7113	26.6253
886.8519	26.96129
886.9926	22.82179
887.1331	26.39945
887.2737	27.06981
887.4143	27.14119
887.5549	27.95444
887.6954	27.67817
887.836	26.78291
887.9765	22.97556
888.1171	25.99464
888.2576	29.19942
888.3981	24.35207
888.5386	22.32421
888.679	26.22889
888.8195	25.97896
888.96	26.82631
889.1004	29.36504
889.2408	24.8049
889.3813	28.65916
889.5217	28.99844
889.6621	28.43628
889.8025	30.24937
889.9429	28.37334
890.0833	27.16613
890.2236	27.04726
890.364	30.60786
890.5043	26.30247
890.6446	29.38605
890.7849	26.17925
890.9252	27.85156
891.0655	23.26387
891.2058	29.85757
891.3461	25.76514
891.4863	25.06522
891.6266	28.55033
891.7668	28.82681
891.907	27.60534
892.0472	31.55273
892.1874	27.79938
892.3276	22.06296
892.4678	28.85927
892.608	29.16699
892.7481	26.67479
892.8883	20.13668
893.0284	27.54698
893.1685	27.10571
893.3087	26.61516
893.4487	20.4768
893.5889	24.11651
893.7289	23.37365
893.869	27.11695
894.009	24.14297
894.1491	26.59644
894.2891	29.39039
894.4291	21.71048
894.5692	23.89228
894.7092	26.66051
894.8491	22.93417
894.9891	20.61211
895.1291	23.07723
895.269	22.83119
895.409	22.5175
895.549	25.24022
895.6888	25.88565
895.8288	23.00988
895.9687	25.82414
896.1086	22.84556
896.2484	23.10219
896.3883	18.97833
896.5281	21.05022
896.668	22.57433
896.8079	20.96481
896.9476	21.40862
897.0875	17.9569
897.2272	18.07019
897.3671	18.51505
897.5068	25.49368
897.6466	22.83077
897.7864	17.62603
897.9261	22.67095
898.0658	20.2014
898.2056	24.77253
898.3453	21.10562
898.4849	20.96766
898.6246	17.11731
898.7643	16.82482
898.904	14.24268
899.0436	17.14004
899.1833	11.60731
899.3229	13.72757
899.4625	19.79697
899.6021	22.93479
899.7417	24.15079
899.8813	23.16949
900.0209	22.28068
900.1605	23.30277
900.3	15.94349
900.4395	15.84309
900.579	21.30336
900.7186	18.25473
900.8581	19.89388
900.9976	19.94192
901.1371	19.0844
901.2766	17.40906
901.416	19.24235
901.5555	18.61048
901.6949	20.70543
901.8344	19.42885
901.9738	20.4394
902.1132	19.11262
902.2526	21.22891
902.3919	15.60928
902.5313	20.77855
902.6707	19.2086
