SPECTRUM DATA FILE
SpectrumCount:	1
PixelCount:	3648
UserName:	ToughBook User
SampleName:	
LightSource:	
Comments:	
DeviceName:	Qwave
DeviceManufacturer:	Broadcom
DeviceSerialNo:	11311

Name:	last spectrum
Date:	2024-05-02T14:53:17.5898716+02:00
ExposureTime:	0.02
TemporalAvg:	1
IntensityUnit:	normalizedCounts
CCDLoadLevel:	0.04835297
Temperature:	33.0318
DiagramColor:	200
ProcessingSteps:	335

Wavelength [nm]	Intensity1
334.421	6.777354
334.5891	7.340362
334.7573	10.32192
334.9254	14.93466
335.0935	15.09358
335.2616	11.3556
335.4297	9.141786
335.5978	9.69016
335.7659	14.53516
335.934	11.61424
336.1021	5.05807
336.2701	10.09049
336.4382	6.604156
336.6063	8.830798
336.7744	13.40384
336.9424	13.62135
337.1105	11.17286
337.2785	12.57844
337.4466	9.225392
337.6146	7.985542
337.7827	10.40707
337.9507	11.60435
338.1187	17.88141
338.2867	11.32013
338.4548	11.71825
338.6228	7.443758
338.7908	10.80605
338.9588	7.951256
339.1268	8.551288
339.2948	10.74145
339.4628	10.78239
339.6308	14.14594
339.7988	11.37099
339.9667	11.44577
340.1347	10.61981
340.3027	8.190659
340.4707	7.184931
340.6386	14.93415
340.8066	10.6247
340.9745	10.92715
341.1425	7.959368
341.3104	3.346138
341.4784	7.663494
341.6463	13.38077
341.8142	10.35658
341.9821	10.92519
342.1501	11.93449
342.318	12.29062
342.4859	7.545283
342.6538	8.469649
342.8217	8.775705
342.9896	15.01599
343.1575	10.18156
343.3254	11.24034
343.4933	13.24065
343.6612	9.791151
343.829	13.77455
343.9969	12.78261
344.1648	13.87923
344.3326	14.65987
344.5005	10.39509
344.6683	10.60531
344.8362	10.59648
345.004	12.9597
345.1719	14.26064
345.3397	17.42429
345.5075	13.01352
345.6754	10.40838
345.8432	10.4656
346.011	13.30002
346.1788	11.46114
346.3466	7.753802
346.5144	10.84971
346.6822	9.015497
346.85	14.16348
347.0178	11.75951
347.1856	12.18937
347.3534	11.99081
347.5211	8.928116
347.6889	8.408301
347.8567	10.61584
348.0244	12.29846
348.1922	14.20002
348.3599	16.4988
348.5277	12.7855
348.6954	6.394864
348.8632	6.500859
349.0309	8.507789
349.1986	12.68162
349.3663	17.07963
349.5341	14.76034
349.7018	13.07079
349.8695	12.24053
350.0372	11.96738
350.2049	8.496392
350.3726	8.933643
350.5403	8.678731
350.7079	7.810568
350.8756	5.045165
351.0433	8.089866
351.211	8.946185
351.3786	12.07564
351.5463	11.10631
351.714	10.5639
351.8816	9.574741
352.0493	8.075399
352.2169	13.64712
352.3846	13.98335
352.5522	18.01816
352.7198	11.73674
352.8875	11.67594
353.0551	13.86775
353.2227	16.66242
353.3903	18.0656
353.5579	10.38136
353.7255	11.41488
353.8931	7.081932
354.0607	12.5396
354.2283	11.5756
354.3958	13.91229
354.5634	12.87214
354.731	15.34566
354.8986	15.4675
355.0661	15.31112
355.2337	12.32407
355.4012	10.60742
355.5688	12.40093
355.7363	15.06394
355.9039	13.34045
356.0714	11.04731
356.239	8.806101
356.4065	10.62965
356.574	13.51649
356.7415	12.0393
356.909	8.537798
357.0765	11.93941
357.244	14.67705
357.4115	16.19286
357.579	15.0354
357.7465	12.81234
357.914	12.81134
358.0815	13.88648
358.249	14.95792
358.4164	10.87197
358.5839	12.42795
358.7513	13.37192
358.9188	13.07528
359.0862	11.95136
359.2537	10.76915
359.4211	15.14413
359.5886	11.47793
359.756	12.56704
359.9234	14.28225
360.0909	13.10118
360.2583	12.16535
360.4257	14.40728
360.5931	13.6181
360.7605	13.25531
360.9279	11.95489
361.0953	13.87169
361.2627	11.98514
361.4301	13.89779
361.5974	16.63417
361.7648	12.70457
361.9322	13.88657
362.0995	11.55426
362.2669	14.57169
362.4343	15.46026
362.6016	14.66749
362.769	16.49921
362.9363	19.2388
363.1036	13.63494
363.271	13.5232
363.4383	14.31962
363.6056	9.609531
363.7729	16.60911
363.9402	16.5155
364.1075	18.63589
364.2748	14.93752
364.4421	14.34824
364.6094	18.20881
364.7767	17.98489
364.944	14.47811
365.1113	19.80071
365.2786	22.34984
365.4458	15.83726
365.6131	15.33271
365.7803	19.24693
365.9476	18.48831
366.1148	17.2561
366.2821	15.20113
366.4493	16.53193
366.6166	17.53452
366.7838	15.19634
366.951	14.51973
367.1182	12.36094
367.2855	20.09911
367.4527	18.45943
367.6199	17.89503
367.7871	14.98723
367.9543	12.64234
368.1215	14.50545
368.2886	18.557
368.4558	17.8345
368.623	14.6479
368.7902	15.60047
368.9573	14.21654
369.1245	11.30405
369.2917	11.51676
369.4588	13.85922
369.6259	11.56691
369.7931	14.1721
369.9602	13.83456
370.1274	15.63561
370.2945	16.47681
370.4616	17.57272
370.6287	14.10215
370.7958	8.96028
370.963	14.78956
371.1301	17.35252
371.2971	18.76011
371.4643	19.68859
371.6313	18.61535
371.7984	19.59048
371.9655	17.31008
372.1326	18.57703
372.2997	17.23849
372.4667	19.13794
372.6338	14.73659
372.8008	21.20342
372.9679	14.20326
373.1349	18.17237
373.3019	15.10506
373.469	15.7357
373.636	16.13456
373.803	14.27132
373.9701	19.41401
374.1371	13.4655
374.3041	16.78502
374.4711	15.5163
374.6381	15.89374
374.8051	17.72207
374.9721	18.84036
375.1391	22.35774
375.3061	17.15261
375.473	20.26491
375.64	19.29109
375.8069	16.60465
375.9739	20.36264
376.1409	19.46456
376.3078	16.25354
376.4748	15.17992
376.6417	14.5788
376.8087	17.15761
376.9756	21.12201
377.1425	16.32101
377.3094	16.19438
377.4763	14.60195
377.6432	17.31004
377.8102	18.47509
377.9771	15.41792
378.144	16.05805
378.3109	17.74926
378.4777	16.81599
378.6446	18.07128
378.8115	17.11961
378.9784	14.97649
379.1452	16.34405
379.3121	16.36712
379.4789	14.5982
379.6458	11.17343
379.8127	11.31023
379.9795	14.41074
380.1463	17.17746
380.3131	18.28099
380.48	15.92655
380.6468	17.23027
380.8136	16.78506
380.9804	20.79539
381.1472	16.6002
381.314	18.83424
381.4808	18.75914
381.6476	18.4679
381.8144	17.61042
381.9812	20.87458
382.148	22.17241
382.3147	17.95998
382.4815	18.78611
382.6483	16.30857
382.815	19.54677
382.9818	13.74139
383.1485	15.53078
383.3153	17.16715
383.482	11.68917
383.6487	15.05023
383.8155	14.69899
383.9822	18.31555
384.1489	16.05085
384.3156	16.96081
384.4823	17.15339
384.649	18.98519
384.8157	17.08568
384.9824	22.45056
385.1491	18.16626
385.3158	21.35887
385.4825	18.99441
385.6491	16.85549
385.8158	12.89399
385.9825	16.33511
386.1491	18.33538
386.3157	22.46436
386.4824	23.8009
386.649	23.163
386.8157	15.04698
386.9823	19.36778
387.1489	23.50653
387.3156	19.56187
387.4821	20.63097
387.6488	23.0201
387.8154	19.56318
387.982	21.44205
388.1486	22.83099
388.3152	16.47182
388.4818	23.73356
388.6483	24.53105
388.8149	19.91298
388.9815	19.09552
389.148	21.17767
389.3146	22.7371
389.4811	23.15311
389.6477	16.14396
389.8142	24.0216
389.9808	23.74473
390.1473	19.56371
390.3138	20.0871
390.4804	21.08208
390.6469	20.47592
390.8134	24.13106
390.9799	22.55712
391.1464	22.30875
391.3129	26.87402
391.4794	24.58308
391.6459	20.84166
391.8124	20.14847
391.9789	21.55299
392.1453	27.82785
392.3118	26.20967
392.4782	18.25652
392.6447	19.3157
392.8112	17.22
392.9776	19.11511
393.144	19.82317
393.3105	19.42634
393.4769	19.18733
393.6433	18.58413
393.8098	18.77824
393.9762	21.09291
394.1426	24.32744
394.309	24.21635
394.4754	19.74936
394.6418	22.17094
394.8082	21.84808
394.9746	22.70678
395.141	26.8825
395.3073	22.11055
395.4737	25.68544
395.64	25.85495
395.8064	25.9897
395.9728	26.4826
396.1391	20.94182
396.3055	19.58476
396.4718	21.54219
396.6381	14.54014
396.8045	13.52324
396.9708	17.36303
397.1371	20.79461
397.3034	20.63343
397.4697	29.56545
397.636	31.62402
397.8023	27.54236
397.9686	23.24541
398.1349	22.20722
398.3012	27.91638
398.4675	28.72211
398.6337	29.9966
398.8	28.10162
398.9662	28.42279
399.1325	32.01988
399.2988	30.96842
399.465	31.32066
399.6313	25.35863
399.7975	28.60224
399.9637	30.25401
400.1299	29.31831
400.2961	30.39915
400.4624	28.85336
400.6286	28.27065
400.7948	27.92775
400.961	27.89656
401.1272	33.61045
401.2934	28.2309
401.4595	26.4767
401.6257	26.24898
401.7919	24.56087
401.9581	27.01052
402.1242	27.05709
402.2904	32.45692
402.4565	32.78821
402.6227	32.34836
402.7888	27.06842
402.955	27.99526
403.1211	27.43289
403.2872	28.4639
403.4533	28.79577
403.6194	30.60659
403.7856	28.58536
403.9517	28.73244
404.1177	28.14591
404.2838	29.41876
404.4499	31.22907
404.616	24.79602
404.7821	29.20417
404.9482	30.32404
405.1142	33.15242
405.2803	32.21066
405.4464	32.49905
405.6124	29.90677
405.7784	27.30792
405.9445	24.94654
406.1105	26.5136
406.2766	28.50607
406.4426	27.88741
406.6086	29.15771
406.7746	27.04322
406.9406	32.85614
407.1066	33.08977
407.2726	29.59708
407.4386	30.4511
407.6046	31.42074
407.7706	30.54342
407.9366	32.11275
408.1025	34.90854
408.2685	35.52414
408.4344	35.44257
408.6004	32.87217
408.7664	39.14746
408.9323	33.4238
409.0983	35.42968
409.2642	39.68628
409.4301	39.50894
409.596	38.62118
409.762	38.01259
409.9279	34.07357
410.0938	38.29078
410.2597	37.20165
410.4256	37.76072
410.5915	34.06449
410.7574	31.65504
410.9232	36.56483
411.0891	35.21848
411.255	40.66128
411.4209	41.21508
411.5867	42.49165
411.7526	41.10326
411.9184	40.09713
412.0843	36.34242
412.2501	43.5311
412.4159	43.61296
412.5818	42.95573
412.7476	39.12652
412.9134	35.85148
413.0792	39.63669
413.245	34.2385
413.4108	33.12736
413.5766	39.73861
413.7424	41.09065
413.9082	43.21755
414.074	39.61129
414.2397	36.29467
414.4055	37.09031
414.5713	35.02858
414.737	42.53295
414.9028	39.98352
415.0685	41.54066
415.2343	40.90094
415.4	39.39058
415.5658	41.25666
415.7315	39.91814
415.8972	42.91509
416.0629	41.39299
416.2286	37.957
416.3943	38.30669
416.56	37.29098
416.7257	37.49226
416.8914	42.99923
417.0571	45.76366
417.2228	39.24503
417.3884	38.504
417.5541	39.09274
417.7198	41.45844
417.8854	39.94984
418.0511	37.61944
418.2167	44.44094
418.3824	40.6897
418.548	45.78575
418.7136	41.709
418.8792	38.25235
419.0449	44.79805
419.2105	46.38461
419.3761	39.81294
419.5417	38.04692
419.7073	45.8102
419.8729	43.43867
420.0385	39.59319
420.204	39.3936
420.3696	45.33446
420.5352	44.76986
420.7007	42.43549
420.8663	44.61055
421.0319	43.65176
421.1974	44.05029
421.3629	46.79118
421.5285	42.37197
421.694	47.76578
421.8595	43.75759
422.0251	48.41594
422.1906	45.65234
422.3561	42.57885
422.5216	45.23008
422.6871	43.32623
422.8526	43.6236
423.0181	46.72283
423.1835	50.81092
423.349	49.71711
423.5145	43.5739
423.68	40.98594
423.8454	48.96853
424.0109	50.23823
424.1763	46.4112
424.3418	50.70353
424.5072	55.60669
424.6726	48.72935
424.838	44.52151
425.0035	48.85667
425.1689	47.39203
425.3343	49.18567
425.4997	47.19221
425.6651	51.06648
425.8305	53.00013
425.9959	51.1512
426.1613	48.56947
426.3267	48.73867
426.492	54.14642
426.6574	51.75051
426.8228	51.42482
426.9881	46.41362
427.1534	45.81531
427.3188	50.51979
427.4841	47.78872
427.6495	51.69986
427.8148	51.4397
427.9801	48.44261
428.1454	51.78701
428.3107	50.85425
428.476	51.17377
428.6414	50.33302
428.8066	50.12616
428.9719	48.30675
429.1372	47.2274
429.3025	51.88219
429.4678	47.91321
429.633	40.27044
429.7983	46.72015
429.9636	44.75133
430.1288	41.77228
430.294	39.58108
430.4593	39.80764
430.6245	43.27517
430.7897	38.82145
430.955	40.79916
431.1202	44.35424
431.2854	45.00071
431.4506	48.28111
431.6158	52.81325
431.781	50.87848
431.9462	56.46142
432.1114	55.71119
432.2766	53.14704
432.4417	47.44191
432.6069	46.69722
432.772	48.15323
432.9372	54.26014
433.1024	58.21742
433.2675	56.07509
433.4326	58.0116
433.5977	58.4559
433.7629	50.64198
433.928	47.28565
434.0931	44.42237
434.2582	46.12077
434.4233	49.61029
434.5884	52.12953
434.7535	57.79494
434.9186	55.62075
435.0837	49.11692
435.2488	52.92718
435.4138	52.45094
435.5789	55.6083
435.744	59.55236
435.909	62.84489
436.0741	59.1275
436.2391	59.27967
436.4042	56.95972
436.5692	58.73957
436.7342	62.53179
436.8992	63.66952
437.0643	58.03647
437.2293	54.30045
437.3943	59.22237
437.5593	62.20755
437.7243	60.63028
437.8893	64.5248
438.0542	65.93415
438.2192	55.19321
438.3842	57.61046
438.5491	62.02678
438.7141	58.5868
438.8791	56.94196
439.044	60.12184
439.209	62.56081
439.3739	63.81788
439.5388	66.7663
439.7037	63.37661
439.8687	62.46379
440.0336	61.71712
440.1985	62.61705
440.3634	57.96345
440.5283	58.50261
440.6932	56.64588
440.8581	61.26169
441.0229	63.12496
441.1878	66.97137
441.3527	70.30016
441.5175	65.30391
441.6824	66.45196
441.8472	66.93609
442.0121	78.6049
442.1769	67.27522
442.3418	62.50568
442.5066	61.20864
442.6714	65.45385
442.8362	68.64684
443.001	69.06965
443.1659	63.56947
443.3307	66.75595
443.4955	63.19609
443.6602	67.29308
443.825	66.14174
443.9898	67.34417
444.1546	68.35872
444.3193	65.58659
444.4841	64.14214
444.6488	69.00133
444.8136	73.63827
444.9783	80.05423
445.1431	75.91145
445.3078	69.78802
445.4725	67.76242
445.6372	66.3217
445.802	64.50562
445.9667	60.02441
446.1314	62.40142
446.2961	66.7354
446.4608	62.1309
446.6255	68.58771
446.7901	64.40589
446.9548	64.04646
447.1195	68.15517
447.2841	80.58578
447.4488	73.90795
447.6134	73.62341
447.7781	75.1393
447.9427	72.65026
448.1074	69.26113
448.272	69.46979
448.4366	72.94814
448.6012	74.67957
448.7658	72.96822
448.9305	72.10333
449.095	69.74757
449.2596	74.51016
449.4242	74.12218
449.5888	72.2476
449.7534	71.20293
449.9179	75.11185
450.0825	73.03438
450.2471	73.29469
450.4116	78.72102
450.5762	83.00568
450.7407	80.57775
450.9052	78.00901
451.0698	78.93733
451.2343	80.65496
451.3988	76.64286
451.5633	76.96379
451.7278	78.4932
451.8923	80.61085
452.0568	77.35017
452.2213	78.26311
452.3858	78.76971
452.5503	81.84959
452.7148	76.00804
452.8792	73.14841
453.0437	76.70179
453.2081	80.51048
453.3726	76.58179
453.537	79.40491
453.7015	83.74951
453.8659	84.09736
454.0303	83.43391
454.1947	80.56608
454.3592	83.93495
454.5236	85.31895
454.688	85.05489
454.8524	81.19372
455.0168	78.3063
455.1811	80.77589
455.3455	80.67281
455.5099	82.866
455.6743	78.47166
455.8386	78.061
456.003	85.17218
456.1673	89.38147
456.3317	89.03542
456.496	82.46445
456.6603	84.79568
456.8246	90.19485
456.989	85.64794
457.1533	84.93245
457.3176	87.43388
457.4819	87.26699
457.6462	87.94767
457.8105	86.60534
457.9748	87.58415
458.1391	84.42425
458.3033	87.2478
458.4676	84.714
458.6319	84.31144
458.7961	86.00247
458.9604	87.43182
459.1246	84.58626
459.2888	84.37238
459.4531	78.89529
459.6173	83.60871
459.7815	83.06368
459.9457	83.8394
460.11	85.7461
460.2741	85.84937
460.4384	80.99355
460.6025	80.26982
460.7667	84.0047
460.9309	84.66565
461.0951	88.66548
461.2592	82.83021
461.4234	86.97833
461.5876	85.79968
461.7517	87.89092
461.9159	91.69887
462.08	90.33902
462.2441	86.43914
462.4082	87.90311
462.5724	88.63705
462.7365	85.96154
462.9006	86.30629
463.0647	90.25636
463.2288	83.82552
463.3929	88.72595
463.557	88.12465
463.721	85.14406
463.8851	82.43851
464.0492	84.71378
464.2132	90.50979
464.3773	86.78506
464.5414	86.73576
464.7054	90.0753
464.8694	82.25135
465.0334	83.09814
465.1975	83.71951
465.3615	88.0334
465.5255	90.4003
465.6895	88.37753
465.8535	88.34296
466.0175	85.46282
466.1815	82.30527
466.3455	88.64924
466.5095	88.95727
466.6734	82.29631
466.8374	88.20578
467.0014	88.16612
467.1653	87.79231
467.3293	87.02874
467.4932	84.14298
467.6571	89.2267
467.8211	89.82542
467.985	82.2476
468.1489	85.71978
468.3128	84.7879
468.4767	91.30696
468.6406	92.44939
468.8045	92.44453
468.9684	91.72724
469.1323	89.44769
469.2962	96.13663
469.46	96.21216
469.6239	91.89834
469.7878	96.02736
469.9516	88.03733
470.1154	91.46683
470.2793	90.43958
470.4431	86.53073
470.607	89.69578
470.7708	90.13631
470.9346	92.37496
471.0984	93.63554
471.2622	91.95036
471.426	93.25375
471.5898	97.08298
471.7536	96.22356
471.9174	96.18442
472.0811	94.2635
472.2449	97.1392
472.4087	92.0154
472.5724	92.46586
472.7362	92.95797
472.8999	89.28584
473.0637	91.72495
473.2274	95.91373
473.3911	91.82317
473.5548	91.55307
473.7185	92.14499
473.8822	90.15347
474.0459	90.28553
474.2096	97.53368
474.3733	95.18491
474.537	97.10055
474.7007	96.17884
474.8643	96.15979
475.028	95.23398
475.1917	97.5461
475.3553	93.64597
475.519	94.39205
475.6826	89.26659
475.8463	91.73022
476.0099	93.53909
476.1735	95.97119
476.3371	95.30641
476.5007	95.02395
476.6643	97.58445
476.8279	91.63115
476.9915	97.52612
477.1551	95.3056
477.3187	93.36201
477.4823	101.69
477.6458	99.57636
477.8094	95.10988
477.9729	99.2225
478.1365	99.82046
478.3	93.62054
478.4636	95.43375
478.6271	94.45325
478.7906	97.02469
478.9541	95.40121
479.1176	100.5267
479.2812	104.181
479.4447	98.75826
479.6082	96.26006
479.7716	98.74878
479.9351	95.037
480.0986	96.15263
480.2621	97.57625
480.4255	97.64787
480.589	99.80899
480.7524	96.52826
480.9159	94.21468
481.0793	97.69133
481.2428	99.14793
481.4062	100.2293
481.5696	101.4571
481.733	93.2095
481.8964	97.98724
482.0598	100.5894
482.2232	94.34738
482.3866	92.93229
482.55	98.35177
482.7134	97.83844
482.8768	103.2517
483.0401	96.97771
483.2035	101.976
483.3668	103.6443
483.5302	100.1909
483.6935	97.68638
483.8568	90.38065
484.0202	92.71774
484.1835	91.81266
484.3468	99.61263
484.5101	96.05505
484.6734	93.80875
484.8367	97.93095
485	97.86944
485.1633	100.3839
485.3266	91.30299
485.4899	92.41703
485.6531	89.2131
485.8164	87.60732
485.9796	82.93255
486.1429	81.25198
486.3061	84.49469
486.4694	84.0935
486.6326	91.34436
486.7958	94.86769
486.959	92.36114
487.1223	90.66787
487.2855	86.50324
487.4486	93.37187
487.6118	100.7683
487.775	101.6027
487.9382	99.03375
488.1014	100.6566
488.2646	105.8376
488.4277	99.86263
488.5909	97.56847
488.754	100.4113
488.9171	92.55287
489.0803	90.10481
489.2434	94.88356
489.4066	99.15195
489.5697	102.6735
489.7328	108.9643
489.8959	106.6577
490.059	104.7894
490.2221	104.2588
490.3852	102.4846
490.5482	100.4789
490.7113	92.65015
490.8744	95.25607
491.0374	97.22583
491.2005	95.08688
491.3636	101.6234
491.5266	106.2541
491.6896	100.9444
491.8527	95.72647
492.0157	97.69136
492.1787	96.34669
492.3417	102.3195
492.5047	99.58308
492.6677	106.6501
492.8307	106.0123
492.9937	104.5658
493.1567	102.8881
493.3196	108.4887
493.4826	108.8191
493.6456	103.1698
493.8085	100.6768
493.9715	97.99554
494.1344	105.1082
494.2974	113.5423
494.4603	103.9679
494.6232	100.5623
494.7861	111.3841
494.949	106.963
495.1119	113.3492
495.2748	109.1685
495.4377	104.1811
495.6006	97.71752
495.7635	98.80852
495.9264	99.41003
496.0892	107.4151
496.2521	114.4815
496.4149	109.1752
496.5778	109.7979
496.7407	110.9899
496.9035	109.9758
497.0663	108.6497
497.2291	108.8154
497.3919	108.0989
497.5547	112.4988
497.7176	111.1629
497.8804	110.9494
498.0432	106.349
498.2059	100.4197
498.3687	102.0833
498.5315	105.8414
498.6942	114.5977
498.857	114.5604
499.0198	111.715
499.1825	110.1757
499.3452	108.6842
499.508	110.0108
499.6707	109.5645
499.8334	109.5864
499.9962	109.7299
500.1589	106.2263
500.3216	104.4974
500.4843	103.4465
500.6469	105.834
500.8096	110.0242
500.9723	110.0454
501.135	102.3696
501.2976	100.6765
501.4603	108.4731
501.623	106.4183
501.7856	106.1674
501.9482	109.3503
502.1109	111.7284
502.2735	115.8273
502.4361	116.6057
502.5987	117.4556
502.7614	114.2924
502.924	116.9455
503.0865	116.7016
503.2491	115.2048
503.4117	113.2033
503.5743	115.1185
503.7368	111.5232
503.8994	106.3048
504.062	102.6548
504.2245	109.7091
504.3871	112.7171
504.5496	122.2271
504.7121	117.4603
504.8746	122.0369
505.0372	118.5785
505.1997	114.1951
505.3622	120.1293
505.5247	119.4292
505.6872	120.482
505.8497	124.8693
506.0121	122.6457
506.1746	129.7759
506.3371	119.2374
506.4995	117.0471
506.662	122.1273
506.8244	121.496
506.9869	125.5587
507.1493	121.9931
507.3117	121.0738
507.4742	120.1043
507.6366	121.0566
507.799	128.5195
507.9614	122.6817
508.1238	120.5519
508.2862	124.3596
508.4485	129.1825
508.6109	129.3156
508.7733	130.5975
508.9357	130.7724
509.098	129.0328
509.2604	132.2319
509.4227	129.8865
509.5851	134.1952
509.7474	127.7975
509.9097	129.0011
510.072	130.5151
510.2343	138.4608
510.3966	135.3159
510.5589	134.4555
510.7212	131.5577
510.8835	129.3189
511.0458	135.8453
511.2081	131.3869
511.3703	137.6608
511.5326	140.7565
511.6949	136.7645
511.8571	141.4343
512.0193	142.8685
512.1816	134.5872
512.3438	134.5922
512.506	130.0791
512.6682	130.4979
512.8304	134.8411
512.9926	140.6191
513.1548	134.1607
513.317	139.4218
513.4792	140.6386
513.6414	135.6019
513.8035	133.9583
513.9657	136.7612
514.1279	136.9147
514.29	139.8393
514.4521	135.3903
514.6143	129.7373
514.7764	140.1717
514.9385	140.5245
515.1006	139.9896
515.2628	142.2402
515.4249	144.2713
515.587	148.4669
515.7491	144.567
515.9111	139.4661
516.0732	139.9903
516.2353	142.7059
516.3973	135.6135
516.5594	135.8188
516.7214	121.5349
516.8835	123.3362
517.0455	123.6414
517.2076	123.9494
517.3696	125.264
517.5316	132.9824
517.6937	144.8822
517.8557	151.1239
518.0176	149.1579
518.1796	140.2245
518.3416	132.5205
518.5036	136.8822
518.6656	142.2559
518.8275	150.2196
518.9895	154.5606
519.1514	151.6784
519.3134	151.622
519.4753	149.6463
519.6373	155.4401
519.7992	158.3238
519.9611	157.4441
520.123	161.7072
520.2849	160.8524
520.4468	158.4088
520.6087	158.4353
520.7706	154.4636
520.9325	157.4973
521.0944	159.9354
521.2562	165.9664
521.4181	163.6815
521.58	166.4598
521.7418	161.0258
521.9036	165.0952
522.0655	169.2081
522.2273	174.1687
522.3891	170.7944
522.551	163.4317
522.7128	162.66
522.8746	163.8672
523.0363	170.9207
523.1981	167.7017
523.3599	160.6308
523.5217	168.6455
523.6835	175.1488
523.8452	174.122
524.007	183.787
524.1687	176.5303
524.3304	183.1333
524.4922	185.0739
524.6539	183.369
524.8157	187.0923
524.9774	180.207
525.1391	189.5906
525.3008	181.5789
525.4625	179.5614
525.6241	185.4358
525.7858	188.7264
525.9475	191.9929
526.1092	190.2235
526.2709	176.4481
526.4325	167.8332
526.5942	166.8632
526.7558	176.8201
526.9174	180.5981
527.079	176.2685
527.2407	179.9109
527.4023	182.8307
527.5639	186.7838
527.7255	193.9666
527.8871	192.717
528.0487	194.8636
528.2103	198.7259
528.3718	195.3836
528.5334	195.9605
528.695	196.8173
528.8565	202.3976
529.0181	197.9707
529.1796	203.88
529.3412	207.4934
529.5027	205.826
529.6642	200.5887
529.8257	195.5167
529.9872	202.3685
530.1487	198.6862
530.3102	202.791
530.4717	210.2521
530.6332	211.2525
530.7947	212.7653
530.9562	214.6888
531.1176	214.1086
531.2791	219.729
531.4405	208.4627
531.6019	204.6685
531.7634	205.8312
531.9248	209.6948
532.0862	212.4703
532.2477	211.75
532.4091	208.7761
532.5704	202.5147
532.7319	193.2828
532.8932	198.3006
533.0546	197.4974
533.216	203.8128
533.3774	212.8065
533.5388	221.8463
533.7001	219.0183
533.8615	215.9796
534.0228	205.6855
534.1841	206.095
534.3455	211.3956
534.5068	207.5015
534.6681	209.2595
534.8293	206.4308
534.9907	204.737
535.152	210.7239
535.3132	211.3799
535.4745	207.3475
535.6358	223.1064
535.7971	222.507
535.9583	217.9628
536.1196	218.4273
536.2808	214.7443
536.4421	212.7469
536.6033	212.9648
536.7645	205.3591
536.9258	205.8913
537.087	207.7574
537.2482	204.1207
537.4094	207.606
537.5706	215.322
537.7318	216.7185
537.8929	213.96
538.0541	209.7119
538.2153	208.2128
538.3764	211.6268
538.5376	217.4765
538.6987	218.4195
538.8599	216.5021
539.021	207.823
539.1821	211.723
539.3432	218.3687
539.5043	211.075
539.6655	214.7469
539.8265	206.9612
539.9876	213.7614
540.1487	209.4065
540.3098	207.0016
540.4708	203.3096
540.6319	195.5652
540.793	208.9174
540.954	210.9827
541.1151	209.737
541.2761	208.7049
541.4371	206.6694
541.5981	212.4147
541.7592	210.6348
541.9202	213.5924
542.0812	208.8475
542.2422	203.8487
542.4031	204.2785
542.5641	210.9687
542.7251	209.9657
542.886	210.6515
543.0471	212.1784
543.208	202.9013
543.369	200.1786
543.5298	212.0952
543.6908	210.7437
543.8517	218.7439
544.0126	224.6752
544.1736	222.5639
544.3345	215.9364
544.4954	210.4768
544.6563	204.8932
544.8171	204.3028
544.978	216.0027
545.1389	219.3033
545.2997	220.6581
545.4606	214.8341
545.6215	207.8163
545.7823	214.1157
545.9432	212.4041
546.104	216.3189
546.2648	214.7401
546.4256	220.4395
546.5864	208.1724
546.7473	218.3503
546.908	217.6712
547.0688	209.8058
547.2296	221.2653
547.3904	222.8063
547.5511	216.1045
547.7119	210.2024
547.8727	206.7903
548.0334	208.1237
548.1942	211.9716
548.3549	215.6484
548.5156	221.2099
548.6763	219.6824
548.837	216.2506
548.9977	218.9628
549.1584	218.7166
549.3192	218.3698
549.4798	220.2452
549.6405	216.378
549.8011	215.612
549.9619	216.3447
550.1225	224.0879
550.2831	221.8506
550.4438	219.05
550.6044	215.2036
550.765	218.1525
550.9257	214.1638
551.0863	218.9804
551.2469	221.303
551.4075	216.7705
551.5681	213.2038
551.7287	220.5827
551.8893	220.8117
552.0498	221.0749
552.2104	227.9692
552.371	221.3818
552.5315	217.0062
552.6921	219.0371
552.8526	216.5747
553.0131	214.4637
553.1736	219.4466
553.3342	223.0411
553.4947	220.0498
553.6552	218.9042
553.8157	215.6106
553.9762	217.2915
554.1367	220.7929
554.2971	219.3155
554.4576	210.4529
554.618	215.5918
554.7785	215.4081
554.939	226.8063
555.0994	223.6008
555.2598	219.6544
555.4203	214.8093
555.5807	214.41
555.7411	209.0452
555.9015	211.2385
556.0619	215.9622
556.2223	219.3577
556.3827	212.9249
556.5431	208.4677
556.7034	208.8224
556.8638	205.833
557.0242	204.5241
557.1845	209.0275
557.3448	207.1624
557.5052	206.517
557.6655	204.7314
557.8259	208.9452
557.9861	216.0184
558.1465	213.8942
558.3068	214.3537
558.467	206.4028
558.6274	196.5616
558.7877	194.6604
558.9479	191.7485
559.1082	196.4903
559.2684	199.9101
559.4287	200.7413
559.5889	204.4922
559.7491	200.8194
559.9094	194.0624
560.0696	196.7168
560.2299	201.2772
560.3901	193.4308
560.5502	203.1369
560.7104	203.7581
560.8707	204.6161
561.0308	201.6259
561.191	205.5293
561.3511	200.5808
561.5114	191.6123
561.6714	193.9824
561.8316	198.6409
561.9918	199.0595
562.1519	199.8682
562.312	194.0937
562.4722	192.9731
562.6323	201.5316
562.7924	197.5206
562.9525	200.2349
563.1125	199.5032
563.2726	198.6023
563.4327	200.5687
563.5928	202.6511
563.7528	196.3479
563.9129	198.0813
564.0729	194.1964
564.233	187.9516
564.393	190.6947
564.553	189.6861
564.7131	196.5005
564.873	196.5432
565.0331	196.2468
565.1931	186.4321
565.353	185.6223
565.5131	186.8893
565.673	181.3528
565.833	180.6594
565.9929	178.0688
566.1529	180.196
566.3129	184.422
566.4728	188.1698
566.6328	184.0287
566.7927	185.0137
566.9526	189.6571
567.1125	189.2785
567.2724	188.8501
567.4323	185.275
567.5922	183.6953
567.7521	184.3133
567.9119	183.9533
568.0718	179.9681
568.2317	177.9995
568.3915	176.7709
568.5514	179.7898
568.7112	177.6547
568.871	182.4186
569.0309	179.6652
569.1907	178.4358
569.3505	186.1367
569.5103	181.6049
569.6701	183.359
569.8299	182.0776
569.9897	170.0103
570.1495	170.5278
570.3092	171.2852
570.469	176.9778
570.6287	174.4334
570.7885	169.7527
570.9482	167.5638
571.108	166.0907
571.2677	173.2436
571.4274	174.6658
571.5871	178.1581
571.7468	174.7951
571.9066	177.9115
572.0662	174.9397
572.2259	174.0675
572.3856	179.0347
572.5452	178.5713
572.7049	168.1201
572.8646	169.3619
573.0242	174.7807
573.1838	177.4406
573.3435	172.3101
573.5031	172.4427
573.6627	174.4774
573.8223	183.3932
573.9819	172.7728
574.1415	162.482
574.3011	170.0174
574.4607	172.0173
574.6203	171.8266
574.7798	168.2766
574.9394	164.8856
575.099	168.9104
575.2585	168.0254
575.418	167.2373
575.5776	167.1723
575.7371	162.2269
575.8966	161.9823
576.0562	167.5368
576.2156	162.042
576.3751	168.8009
576.5346	168.1916
576.6941	163.1712
576.8536	166.7054
577.0131	162.717
577.1725	169.4789
577.332	163.0631
577.4914	158.5396
577.6508	163.8259
577.8103	161.0516
577.9697	162.8716
578.1291	161.5944
578.2885	157.3408
578.4479	156.7153
578.6073	152.3075
578.7667	157.0018
578.9261	155.3415
579.0854	155.2423
579.2448	157.1497
579.4042	155.3653
579.5635	158.4046
579.7229	155.6247
579.8822	160.3192
580.0416	161.055
580.2009	153.5578
580.3602	157.9131
580.5195	162.8185
580.6788	158.9985
580.8381	158.582
580.9974	154.5292
581.1566	150.1706
581.3159	156.6525
581.4752	158.2818
581.6345	151.6889
581.7937	154.9143
581.9529	155.2337
582.1122	152.3157
582.2714	149.0902
582.4306	149.7563
582.5898	155.2484
582.749	144.3102
582.9082	152.0352
583.0674	152.8404
583.2266	150.4706
583.3857	151.9236
583.5449	152.3096
583.7041	149.1723
583.8633	147.529
584.0224	145.9374
584.1815	144.6593
584.3407	148.6712
584.4998	149.2083
584.6589	148.6721
584.818	147.8893
584.9771	144.159
585.1362	144.0764
585.2953	149.6907
585.4544	144.3916
585.6135	145.1274
585.7725	143.4374
585.9316	142.2218
586.0906	146.5631
586.2497	150.0697
586.4087	146.8618
586.5677	142.2073
586.7267	143.2039
586.8858	143.1869
587.0448	144.5831
587.2038	140.7994
587.3628	143.2049
587.5218	142.8544
587.6807	140.2328
587.8397	142.8323
587.9987	138.085
588.1577	140.1825
588.3166	134.183
588.4755	138.0282
588.6345	136.8236
588.7934	134.5046
588.9523	131.208
589.1112	125.6237
589.2701	125.0725
589.429	129.442
589.5879	122.7675
589.7468	127.6853
589.9056	130.5672
590.0645	134.2883
590.2234	136.9972
590.3822	133.3699
590.5411	129.8818
590.6999	133.3756
590.8588	137.3748
591.0176	135.8826
591.1764	136.8864
591.3352	136.8618
591.494	133.9253
591.6528	134.2471
591.8116	130.2839
591.9703	130.1503
592.1291	130.1595
592.2878	124.6516
592.4467	131.6003
592.6053	128.7625
592.7641	132.3339
592.9229	135.6969
593.0816	136.4278
593.2403	131.8506
593.399	135.0317
593.5577	136.5043
593.7164	132.9146
593.8751	134.778
594.0338	132.5675
594.1924	135.2091
594.3511	131.5525
594.5098	129.6416
594.6684	126.1817
594.8271	129.6261
594.9857	128.5752
595.1443	136.0801
595.303	134.0453
595.4615	131.3736
595.6202	133.644
595.7787	131.652
595.9374	131.5192
596.0959	127.2983
596.2545	133.7497
596.4131	128.0676
596.5717	128.6558
596.7302	126.614
596.8887	129.6555
597.0473	128.3081
597.2058	137.0752
597.3644	129.98
597.5229	130.8058
597.6814	132.4962
597.8399	131.9027
597.9984	126.8047
598.1569	129.2049
598.3154	129.1549
598.4738	127.4794
598.6323	123.0908
598.7908	127.8984
598.9492	133.9243
599.1076	130.3668
599.2661	129.5676
599.4245	134.2731
599.5829	131.5984
599.7413	127.5163
599.8997	130.8568
600.0581	127.7965
600.2165	130.533
600.3749	131.2313
600.5333	130.8903
600.6917	130.251
600.85	125.146
601.0084	128.6015
601.1667	127.0474
601.325	123.9146
601.4833	124.2528
601.6417	128.6346
601.8	130.307
601.9583	128.9796
602.1166	131.8804
602.2749	122.6043
602.4332	129.6179
602.5914	127.5
602.7498	125.2197
602.908	128.7694
603.0662	122.7635
603.2245	126.5892
603.3828	126.3108
603.541	125.392
603.6992	128.3209
603.8574	130.5007
604.0156	131.3885
604.1738	122.8279
604.332	119.6462
604.4902	123.5945
604.6484	125.9746
604.8065	126.1157
604.9647	124.5369
605.1229	127.2891
605.281	118.9398
605.4391	128.0558
605.5973	125.7517
605.7554	121.4692
605.9135	125.76
606.0717	125.2371
606.2297	126.1676
606.3878	119.9433
606.5459	122.8263
606.704	122.8111
606.8621	128.269
607.0201	132.5758
607.1782	123.1348
607.3362	121.2939
607.4943	122.8169
607.6523	125.4599
607.8104	125.3203
607.9684	121.3167
608.1264	120.1741
608.2844	120.7473
608.4424	118.4635
608.6003	118.7274
608.7584	123.6435
608.9163	118.2525
609.0743	125.8831
609.2322	124.8172
609.3902	122.9206
609.5482	125.309
609.7061	126.834
609.864	121.9324
610.0219	119.7612
610.1798	119.765
610.3377	121.3043
610.4956	120.9963
610.6535	121.5385
610.8114	115.2609
610.9693	121.5621
611.1271	118.2895
611.285	117.4308
611.4429	119.1629
611.6007	118.66
611.7585	122.7868
611.9164	118.1309
612.0742	115.0876
612.232	107.0621
612.3898	109.355
612.5476	113.6345
612.7054	111.5471
612.8632	115.3969
613.0209	112.1671
613.1787	114.0937
613.3365	115.612
613.4942	113.972
613.652	114.0808
613.8097	114.5476
613.9674	107.8007
614.1252	107.3106
614.2829	109.1475
614.4406	112.6516
614.5983	113.312
614.756	111.9163
614.9136	114.1092
615.0714	111.7732
615.229	107.5174
615.3867	112.8344
615.5443	112.0302
615.702	112.8901
615.8596	107.1529
616.0172	111.6145
616.1748	109.8108
616.3325	107.7367
616.4901	107.8321
616.6476	104.8047
616.8052	103.2379
616.9628	111.058
617.1204	109.9633
617.278	112.2078
617.4355	108.5284
617.5931	106.0727
617.7506	112.7437
617.9081	113.4985
618.0657	106.0253
618.2232	104.952
618.3807	107.9388
618.5382	108.1834
618.6957	104.1521
618.8532	107.7381
619.0107	112.091
619.1682	104.2411
619.3256	105.1898
619.4831	107.5216
619.6406	106.3728
619.798	106.9301
619.9554	108.4436
620.1129	107.8116
620.2703	102.8952
620.4277	108.7643
620.5851	103.0421
620.7425	108.0628
620.8998	104.382
621.0573	103.7949
621.2146	105.7877
621.372	106.8186
621.5294	99.33157
621.6867	105.1045
621.8441	106.1187
622.0013	105.7013
622.1587	107.1512
622.316	107.3539
622.4733	104.3136
622.6306	101.5356
622.7879	101.0264
622.9452	104.6255
623.1025	103.1292
623.2598	102.6179
623.4171	106.0528
623.5743	101.9338
623.7316	102.0929
623.8888	106.5543
624.046	106.1967
624.2032	106.0661
624.3605	102.7934
624.5176	96.99839
624.6749	103.513
624.8321	102.0957
624.9893	103.3161
625.1464	101.5186
625.3036	103.8946
625.4608	105.184
625.6179	101.7104
625.7751	102.4851
625.9322	101.6872
626.0894	102.3798
626.2465	105.185
626.4036	101.6963
626.5607	103.4919
626.7178	104.8386
626.8749	101.8221
627.032	103.3286
627.189	101.7329
627.3461	103.754
627.5032	102.7091
627.6602	103.6365
627.8173	100.2341
627.9743	101.0221
628.1313	101.4154
628.2884	106.148
628.4454	96.0902
628.6024	98.60931
628.7594	98.41611
628.9164	95.68585
629.0734	101.0139
629.2303	98.23158
629.3873	103.7334
629.5443	106.9412
629.7012	100.5841
629.8582	104.077
630.0151	97.98878
630.172	90.70666
630.3289	94.36866
630.4858	99.38689
630.6428	103.7754
630.7996	100.3373
630.9565	97.67886
631.1134	99.36333
631.2703	94.56639
631.4272	95.29931
631.584	97.64537
631.7408	97.93797
631.8977	96.01823
632.0546	91.43958
632.2114	98.77663
632.3682	97.58838
632.525	96.38513
632.6818	100.4064
632.8386	97.38229
632.9954	100.6878
633.1522	97.96358
633.3089	95.6519
633.4657	96.34769
633.6224	96.63263
633.7792	93.02418
633.9359	89.64991
634.0927	93.03147
634.2494	99.64136
634.4061	95.37327
634.5628	97.88389
634.7195	88.53838
634.8762	92.96449
635.0329	94.75952
635.1895	103.0985
635.3462	100.5732
635.5029	98.25206
635.6595	99.86761
635.8162	96.28646
635.9728	95.91434
636.1295	102.1455
636.2861	89.64878
636.4427	90.22239
636.5992	89.81469
636.7559	93.83904
636.9124	93.08511
637.069	89.37743
637.2256	90.87999
637.3821	89.79379
637.5387	86.66373
637.6953	93.9431
637.8518	99.43281
638.0084	94.45526
638.1649	97.57777
638.3214	94.73657
638.4779	94.05202
638.6344	94.52398
638.7909	85.01363
638.9474	87.9881
639.1038	89.25272
639.2603	91.09803
639.4167	98.54371
639.5732	90.78461
639.7297	88.63408
639.8861	94.92251
640.0425	87.63673
640.199	93.22113
640.3553	90.05752
640.5118	90.86497
640.6682	91.02357
640.8245	90.57845
640.981	91.47549
641.1373	89.30043
641.2936	91.8456
641.45	88.07626
641.6064	89.8985
641.7627	89.55432
641.9191	85.77907
642.0754	91.15134
642.2317	81.95067
642.388	87.43718
642.5443	90.89293
642.7006	88.75643
642.8569	89.44815
643.0131	85.43476
643.1694	89.22894
643.3257	86.18407
643.4819	84.3343
643.6382	86.43871
643.7944	83.81487
643.9506	84.54819
644.1069	86.66412
644.2631	82.41699
644.4193	82.36851
644.5754	82.87363
644.7316	85.50618
644.8878	81.25926
645.044	80.53289
645.2002	83.83186
645.3563	89.2819
645.5125	86.95528
645.6686	85.24561
645.8248	79.5427
645.9809	81.31342
646.137	82.51077
646.2931	81.04507
646.4492	78.37267
646.6053	83.32678
646.7614	82.62386
646.9174	80.30146
647.0735	79.73327
647.2296	78.03196
647.3856	79.82641
647.5417	81.78571
647.6977	83.7082
647.8537	76.5214
648.0098	85.83677
648.1658	85.08846
648.3218	83.32745
648.4777	79.2337
648.6337	79.32212
648.7897	77.79969
648.9457	75.62592
649.1016	76.06808
649.2576	73.63491
649.4135	73.01887
649.5695	72.37145
649.7254	71.01685
649.8813	75.17792
650.0372	81.63739
650.1932	80.50288
650.3491	75.44444
650.5049	74.4183
650.6608	75.61147
650.8167	76.38064
650.9725	75.49763
651.1284	78.28314
651.2842	73.07944
651.4401	75.14347
651.5959	72.23863
651.7518	78.9179
651.9076	70.16228
652.0634	77.7412
652.2192	77.32789
652.3749	81.26064
652.5308	77.02804
652.6865	80.07034
652.8423	78.741
652.998	79.79702
653.1538	71.51269
653.3096	77.22836
653.4653	78.72913
653.621	77.37133
653.7767	78.17987
653.9324	76.34582
654.0881	73.98833
654.2438	76.00417
654.3995	74.88348
654.5552	75.91196
654.7109	73.28802
654.8665	72.10484
655.0222	71.4995
655.1778	66.33887
655.3334	71.39892
655.4891	75.54851
655.6447	74.95798
655.8003	70.51189
655.9559	68.80095
656.1115	70.06284
656.2671	67.75273
656.4227	66.12991
656.5782	67.70358
656.7338	68.69054
656.8893	66.82629
657.0449	71.02974
657.2004	73.96584
657.356	72.35045
657.5115	72.41969
657.667	72.29089
657.8225	74.57178
657.978	71.27506
658.1335	68.91996
658.289	69.88267
658.4445	69.2985
658.5999	70.33211
658.7554	72.96511
658.9108	70.26604
659.0663	76.87818
659.2217	76.89039
659.3771	73.97256
659.5325	74.61847
659.6879	73.42896
659.8433	75.86842
659.9987	75.02164
660.1541	74.50067
660.3095	70.28573
660.4648	71.52245
660.6202	72.05128
660.7756	70.67751
660.9309	68.66966
661.0862	75.19843
661.2416	70.30698
661.3969	67.0586
661.5522	66.85967
661.7075	71.09564
661.8628	76.3639
662.0181	77.17256
662.1733	75.32573
662.3286	69.99496
662.4839	63.29161
662.6391	70.03227
662.7944	67.10383
662.9496	74.05075
663.1048	66.91518
663.26	69.9023
663.4152	73.6613
663.5704	67.44852
663.7256	62.4448
663.8808	67.85026
664.036	67.14461
664.1912	62.61097
664.3463	69.8207
664.5015	70.67923
664.6566	68.76943
664.8118	68.66869
664.9669	67.04194
665.122	70.02361
665.2771	71.65119
665.4322	63.16055
665.5873	64.21072
665.7424	72.4646
665.8975	68.00955
666.0526	68.1036
666.2076	71.77358
666.3627	68.44131
666.5177	68.8655
666.6727	58.25402
666.8278	62.55234
666.9828	64.71815
667.1378	66.88811
667.2928	65.49612
667.4478	66.91161
667.6028	63.76442
667.7578	71.22857
667.9127	71.50774
668.0677	64.00101
668.2226	58.23161
668.3776	64.09396
668.5325	67.82819
668.6874	67.31356
668.8423	69.11573
668.9973	69.80503
669.1522	68.05028
669.3071	67.22034
669.4619	66.54878
669.6168	64.99314
669.7717	62.61594
669.9265	59.76765
670.0814	63.21149
670.2362	65.9209
670.3911	63.60658
670.5459	63.95782
670.7007	61.95554
670.8555	61.1268
671.0103	62.80653
671.1651	58.76443
671.3199	63.05202
671.4747	57.49222
671.6295	64.97198
671.7842	62.72765
671.939	64.50479
672.0937	60.36372
672.2484	60.7759
672.4031	60.58838
672.5579	64.46994
672.7126	61.87936
672.8673	61.49665
673.022	63.6349
673.1767	61.44085
673.3314	59.94577
673.486	56.7929
673.6407	63.28653
673.7953	69.59473
673.95	64.38978
674.1046	62.75874
674.2592	61.1532
674.4138	67.10384
674.5684	58.59462
674.723	66.1578
674.8776	62.19805
675.0322	59.75938
675.1868	64.31799
675.3414	59.20003
675.4959	61.6663
675.6505	57.69392
675.805	60.99286
675.9595	63.57683
676.1141	61.69659
676.2686	61.43866
676.4231	60.51049
676.5776	59.5078
676.7321	61.26321
676.8866	61.73685
677.041	62.88984
677.1955	61.84876
677.35	63.57684
677.5044	57.87593
677.6589	58.10686
677.8133	55.9543
677.9677	61.03201
678.1221	58.18247
678.2766	62.6933
678.4309	60.77687
678.5853	61.12602
678.7397	63.2213
678.8941	61.89985
679.0485	62.06285
679.2028	59.74821
679.3571	59.45597
679.5115	60.18063
679.6658	60.42202
679.8201	58.2915
679.9744	57.16438
680.1288	54.60431
680.2831	60.63164
680.4373	62.27765
680.5916	62.91965
680.7459	62.44201
680.9001	64.67674
681.0544	61.85509
681.2087	62.3548
681.3629	60.79046
681.5171	61.08025
681.6713	61.0688
681.8256	59.64429
681.9797	61.63915
682.134	62.8329
682.2881	58.16813
682.4423	57.43382
682.5965	55.7674
682.7507	60.03983
682.9048	61.98974
683.059	59.59953
683.2131	56.02061
683.3672	54.54436
683.5213	58.72994
683.6754	60.15127
683.8295	58.32253
683.9836	51.81704
684.1377	57.86283
684.2918	60.07568
684.4459	57.92041
684.5999	62.6018
684.754	58.72841
684.908	63.70377
685.062	58.44684
685.2161	60.27573
685.3701	57.11434
685.5241	56.3685
685.6781	58.00787
685.8321	57.16841
685.9861	56.00403
686.14	58.62883
686.294	56.10262
686.4479	55.10325
686.6019	54.71347
686.7559	53.84275
686.9098	55.35112
687.0637	51.31914
687.2176	53.29304
687.3715	49.22522
687.5254	50.31944
687.6793	55.47511
687.8332	56.96214
687.9871	58.79744
688.1409	58.62029
688.2947	59.74501
688.4486	55.51304
688.6024	60.13091
688.7563	60.13752
688.9101	57.16984
689.0639	58.52176
689.2177	57.30486
689.3715	60.92186
689.5253	51.93961
689.6791	61.87975
689.8328	60.26812
689.9866	55.71268
690.1403	57.24789
690.2941	58.675
690.4478	62.01378
690.6015	59.93826
690.7552	58.16434
690.9089	62.29224
691.0626	60.37854
691.2164	60.71645
691.37	60.79616
691.5237	59.54565
691.6774	59.20175
691.831	64.86623
691.9847	61.38652
692.1383	58.79316
692.2919	64.69946
692.4456	64.15091
692.5992	61.50617
692.7527	64.39075
692.9064	66.81303
693.0599	61.25078
693.2136	60.85396
693.3671	60.4657
693.5207	59.24609
693.6742	61.53312
693.8278	61.84328
693.9813	57.12967
694.1348	61.63705
694.2883	66.34924
694.4418	66.41701
694.5953	70.12497
694.7488	66.62946
694.9023	65.84569
695.0558	66.42166
695.2093	66.50798
695.3627	69.73923
695.5162	67.71247
695.6696	68.65964
695.8231	64.93777
695.9764	69.45115
696.1299	70.85458
696.2833	65.46139
696.4367	69.39941
696.5901	63.86829
696.7435	66.93034
696.8968	71.08234
697.0502	70.55296
697.2036	75.90225
697.3569	73.60041
697.5102	71.59913
697.6635	75.81412
697.8168	73.25682
697.9702	71.21658
698.1235	72.16341
698.2768	69.92097
698.4301	74.91719
698.5833	77.37491
698.7366	73.92651
698.8898	70.38567
699.0431	74.48851
699.1964	74.88052
699.3495	74.70972
699.5028	74.97598
699.656	79.56762
699.8092	77.33173
699.9624	80.40784
700.1156	77.96379
700.2688	71.78691
700.4219	77.27654
700.5751	78.10064
700.7283	77.79636
700.8814	76.59864
701.0345	83.33685
701.1877	80.35004
701.3408	79.52914
701.4939	86.36346
701.647	85.99123
701.8001	82.43375
701.9532	82.0444
702.1063	82.29336
702.2593	85.51021
702.4124	85.74536
702.5654	80.1856
702.7184	79.44401
702.8715	86.13142
703.0245	85.07793
703.1776	88.51459
703.3305	88.4302
703.4835	89.40817
703.6365	90.03354
703.7895	89.23692
703.9424	88.13811
704.0954	88.25832
704.2484	88.69858
704.4013	94.39525
704.5543	89.74322
704.7072	91.94202
704.8601	88.452
705.013	91.03979
705.1659	91.41891
705.3188	96.09824
705.4717	99.8465
705.6246	88.28726
705.7774	85.30821
705.9303	89.87556
706.0831	94.50223
706.236	92.94161
706.3888	94.10275
706.5416	96.53739
706.6944	99.87606
706.8472	98.10094
707	97.74445
707.1528	96.63633
707.3056	100.4118
707.4583	102.997
707.6111	103.6057
707.7639	100.0831
707.9166	99.51352
708.0693	98.08685
708.222	101.0155
708.3748	98.49022
708.5275	103.3434
708.6802	100.7362
708.8328	102.2489
708.9855	97.76715
709.1382	99.07173
709.2909	102.5618
709.4435	101.6389
709.5962	101.6654
709.7488	103.2978
709.9014	103.8059
710.054	98.94137
710.2067	104.0769
710.3593	110.8519
710.5118	98.00333
710.6644	105.5752
710.817	105.9756
710.9695	105.2044
711.1221	101.6756
711.2747	103.2038
711.4272	108.017
711.5797	107.1126
711.7322	113.9454
711.8848	106.5628
712.0373	110.8887
712.1898	112.3202
712.3422	108.2665
712.4948	110.9833
712.6472	109.801
712.7996	105.6697
712.9521	109.6206
713.1046	107.1948
713.257	110.0177
713.4094	109.8435
713.5618	108.4097
713.7142	110.891
713.8666	113.8666
714.019	109.7709
714.1714	110.5335
714.3237	115.9204
714.4761	108.8777
714.6285	110.9292
714.7808	112.6773
714.9331	116.8705
715.0854	110.7559
715.2378	116.7259
715.3901	113.5895
715.5424	113.0439
715.6947	113.5273
715.8469	120.4885
715.9992	114.1637
716.1515	109.7334
716.3037	111.0488
716.456	103.0033
716.6082	104.6011
716.7604	106.7801
716.9127	101.662
717.0649	104.8351
717.2171	102.9087
717.3693	104.2102
717.5214	101.5244
717.6736	101.1836
717.8258	101.7185
717.978	110.0579
718.1301	104.4939
718.2822	102.6889
718.4344	102.4857
718.5865	95.35157
718.7386	96.2931
718.8907	94.29343
719.0428	104.3419
719.1949	105.034
719.3469	101.6858
719.499	100.1309
719.6511	98.49083
719.8031	99.03829
719.9551	104.8201
720.1072	103.5775
720.2592	103.1523
720.4112	106.6298
720.5632	103.9082
720.7152	108.7497
720.8672	119.9029
721.0192	121.6121
721.1711	118.1721
721.3231	126.4356
721.475	123.0963
721.627	121.4507
721.7789	117.3367
721.9308	125.5978
722.0828	125.6298
722.2347	126.2155
722.3866	131.1457
722.5385	117.9528
722.6903	115.2273
722.8422	118.9046
722.9941	119.2888
723.1459	114.7322
723.2977	118.5526
723.4496	106.8308
723.6014	111.1216
723.7532	115.8722
723.905	118.0653
724.0568	114.6437
724.2086	113.2911
724.3604	114.3383
724.5121	115.9707
724.6639	123.2839
724.8157	123.5106
724.9674	123.1068
725.1191	114.3502
725.2709	117.6351
725.4226	119.2534
725.5743	113.8164
725.726	114.2679
725.8777	125.1957
726.0294	119.2957
726.181	120.7419
726.3327	119.8611
726.4844	116.9041
726.636	118.2369
726.7877	128.362
726.9393	134.9526
727.0909	131.5576
727.2425	129.7386
727.3941	127.8948
727.5457	123.0685
727.6973	111.3306
727.8488	115.7836
728.0004	120.6274
728.1519	133.8034
728.3035	134.729
728.455	137.6666
728.6066	136.6549
728.7581	135.1755
728.9095	127.4249
729.0611	120.1102
729.2126	120.0058
729.364	123.9254
729.5155	128.0999
729.667	134.2411
729.8184	134.8168
729.9698	135.5469
730.1213	130.822
730.2727	127.6212
730.4241	131.9819
730.5756	137.0033
730.7269	133.9118
730.8784	131.2289
731.0297	128.9176
731.1811	131.2669
731.3325	132.5296
731.4838	142.5381
731.6351	132.1211
731.7865	137.5825
731.9378	133.7885
732.0891	139.1721
732.2404	150.5019
732.3917	145.8735
732.543	147.78
732.6943	147.2878
732.8456	143.5141
732.9968	145.5156
733.1481	152.4458
733.2993	145.9733
733.4506	142.6594
733.6018	152.5823
733.753	153.6802
733.9042	148.4066
734.0554	151.8436
734.2066	160.2054
734.3578	159.563
734.509	156.3796
734.6602	154.4801
734.8113	147.0191
734.9624	153.1487
735.1136	150.216
735.2647	148.1227
735.4158	157.1718
735.5669	148.8749
735.718	155.7063
735.8691	152.5941
736.0201	160.2586
736.1713	159.4288
736.3223	155.9763
736.4733	157.5743
736.6244	157.7397
736.7755	159.3839
736.9265	158.2429
737.0775	156.3048
737.2285	158.7021
737.3795	165.7173
737.5305	164.8758
737.6815	163.2308
737.8324	166.8024
737.9834	159.3626
738.1343	162.5594
738.2853	163.1468
738.4362	164.9358
738.5871	157.2267
738.738	155.3593
738.8889	151.7017
739.0399	154.4291
739.1907	160.6948
739.3416	164.2188
739.4925	163.4656
739.6433	161.1909
739.7942	157.1039
739.945	163.241
740.0958	168.5149
740.2467	168.9854
740.3975	164.4668
740.5483	167.9031
740.6991	162.1747
740.8499	161.4057
741.0007	157.6475
741.1514	161.2027
741.3022	169.3989
741.4529	160.3918
741.6036	164.4678
741.7544	156.7306
741.9051	164.8116
742.0558	167.92
742.2065	166.946
742.3572	161.797
742.5079	160.1885
742.6586	164.753
742.8093	163.4189
742.9599	166.4384
743.1105	169.9809
743.2612	172.8829
743.4118	168.2749
743.5624	174.5309
743.7131	171.478
743.8636	168.3774
744.0142	168.3301
744.1648	170.6298
744.3154	164.2882
744.4659	166.1688
744.6165	163.9071
744.767	164.434
744.9176	164.8801
745.0681	169.568
745.2186	170.9799
745.3691	168.4727
745.5197	166.9781
745.6702	166.8689
745.8206	168.3181
745.9711	167.2705
746.1215	157.4868
746.272	168.1609
746.4224	168.4747
746.5729	171.092
746.7233	169.4479
746.8737	165.4933
747.0241	172.7471
747.1745	168.1841
747.3249	163.0918
747.4753	164.0437
747.6257	163.8705
747.776	164.7377
747.9264	173.9057
748.0767	172.0533
748.2271	167.932
748.3774	166.1394
748.5276	167.2616
748.678	167.6546
748.8282	169.4506
748.9786	160.1242
749.1288	163.6222
749.2791	161.4122
749.4294	156.262
749.5796	161.2481
749.7299	164.7365
749.8801	163.3651
750.0303	160.9892
750.1805	161.6692
750.3307	159.4196
750.4809	160.4449
750.6311	162.8407
750.7813	162.9262
750.9314	159.758
751.0816	161.8367
751.2318	162.5701
751.3818	159.734
751.532	158.843
751.6821	160.059
751.8322	156.051
751.9823	160.7073
752.1324	154.1022
752.2825	151.4614
752.4326	159.6121
752.5826	158.9072
752.7327	156.2153
752.8827	157.9989
753.0327	156.2381
753.1827	153.3987
753.3328	151.4996
753.4828	155.2939
753.6328	156.4375
753.7828	154.2012
753.9327	156.5947
754.0827	159.2914
754.2327	156.5764
754.3826	158.171
754.5325	150.932
754.6825	152.2111
754.8324	157.388
754.9823	151.4525
755.1322	152.0026
755.2821	158.3447
755.432	152.8596
755.5818	144.8232
755.7318	150.3271
755.8816	152.6445
756.0314	151.4598
756.1813	152.9492
756.3311	150.9977
756.4809	149.1458
756.6307	151.6139
756.7805	143.9646
756.9303	149.8142
757.0801	148.2211
757.2299	145.8174
757.3796	151.1788
757.5294	157.547
757.6791	152.7095
757.8289	151.2554
757.9786	152.5925
758.1283	151.088
758.278	148.9306
758.4277	142.0112
758.5773	139.794
758.7271	140.006
758.8767	148.5521
759.0264	146.3578
759.176	137.9489
759.3256	130.8701
759.4753	104.0156
759.6249	79.07095
759.7745	63.0825
759.9241	56.20325
760.0737	46.67754
760.2233	50.38316
760.3729	41.4935
760.5224	37.17447
760.6719	38.4624
760.8215	42.45164
760.971	50.47942
761.1205	51.81498
761.2701	56.25716
761.4196	68.39039
761.5691	76.81781
761.7186	92.25851
761.868	99.71944
762.0175	97.39725
762.167	92.31124
762.3164	82.51997
762.4659	77.20971
762.6153	74.40023
762.7647	72.69227
762.9141	71.81976
763.0635	75.76582
763.2129	68.94794
763.3623	69.86186
763.5117	71.03208
763.661	71.13023
763.8104	68.15411
763.9597	76.77504
764.1091	79.07133
764.2584	73.51317
764.4077	74.85833
764.557	84.8006
764.7063	87.84455
764.8556	90.03642
765.0049	90.1731
765.1541	97.18848
765.3034	102.0884
765.4526	94.01222
765.6019	98.92188
765.7511	103.2032
765.9003	104.6688
766.0496	104.8741
766.1987	108.0589
766.348	109.8851
766.4971	114.3605
766.6463	110.6058
766.7955	113.6095
766.9446	117.748
767.0938	115.0564
767.2429	116.0778
767.392	122.9943
767.5411	122.1576
767.6902	117.4759
767.8394	117.6379
767.9884	124.3463
768.1375	121.8845
768.2866	118.5018
768.4356	120.5419
768.5847	120.3933
768.7337	120.4903
768.8828	120.2499
769.0317	121.0274
769.1808	119.8761
769.3298	125.4283
769.4788	120.9351
769.6277	124.3002
769.7767	121.4071
769.9257	121.3898
770.0746	122.9923
770.2236	126.8479
770.3725	125.6893
770.5214	131.3296
770.6703	128.8702
770.8193	122.0937
770.9681	122.709
771.1171	119.1043
771.2659	120.6307
771.4148	121.5417
771.5637	126.1864
771.7125	126.0585
771.8613	124.8139
772.0101	125.0547
772.159	127.8608
772.3078	123.3536
772.4566	121.8075
772.6054	123.1262
772.7542	128.0207
772.903	123.9343
773.0517	119.7832
773.2004	117.055
773.3492	116.6717
773.4979	119.2631
773.6467	121.0943
773.7953	124.1849
773.944	121.5928
774.0928	118.4391
774.2415	119.1438
774.3901	122.3448
774.5388	118.1373
774.6874	112.0256
774.8361	117.4364
774.9847	114.6503
775.1334	112.1473
775.282	110.129
775.4305	116.3732
775.5792	119.2823
775.7277	113.7721
775.8763	117.6145
776.0249	117.6161
776.1735	116.9663
776.322	115.499
776.4705	116.8705
776.6191	120.2507
776.7676	124.0501
776.9161	119.2358
777.0646	120.8211
777.2131	119.2661
777.3616	116.8717
777.5101	112.0563
777.6585	110.0179
777.8069	113.4242
777.9554	116.9925
778.1038	112.0007
778.2523	111.2631
778.4007	114.0668
778.5491	113.3471
778.6974	117.9419
778.8459	115.6663
778.9942	119.2226
779.1426	109.7331
779.291	119.4343
779.4393	118.3719
779.5876	112.8964
779.736	109.7961
779.8843	112.6645
780.0326	114.8205
780.1809	108.9669
780.3292	112.4968
780.4775	112.9988
780.6257	111.0247
780.774	114.4805
780.9222	106.172
781.0704	102.7171
781.2187	108.1102
781.3669	110.8243
781.5151	113.5871
781.6633	109.0266
781.8115	117.392
781.9597	114.3884
782.1078	109.1601
782.256	109.5378
782.4042	113.7468
782.5523	111.3415
782.7004	111.4044
782.8486	107.4321
782.9967	105.1307
783.1448	105.6748
783.2929	108.3441
783.441	103.9644
783.5891	102.2871
783.7371	107.5401
783.8851	107.7444
784.0332	106.8704
784.1812	106.2686
784.3293	104.826
784.4773	107.8637
784.6253	107.9691
784.7733	106.8147
784.9213	108.2924
785.0692	107.2395
785.2172	105.0925
785.3652	103.1787
785.5131	103.9007
785.6611	105.5069
785.809	104.8505
785.9569	100.4179
786.1048	98.01691
786.2527	104.7867
786.4006	103.0015
786.5485	104.5744
786.6964	111.1851
786.8442	107.5996
786.9921	101.4755
787.1399	100.7573
787.2877	105.835
787.4355	101.6081
787.5833	108.1621
787.7311	106.9242
787.8789	98.14877
788.0267	98.48334
788.1745	102.2466
788.3223	101.9011
788.47	105.3699
788.6177	102.6432
788.7654	101.8833
788.9132	101.9512
789.0609	98.97771
789.2086	96.72929
789.3563	97.46922
789.504	92.0209
789.6517	95.39108
789.7993	98.88885
789.947	100.1986
790.0946	102.6875
790.2422	101.5233
790.3898	95.04675
790.5375	101.0933
790.6851	100.3672
790.8326	91.74512
790.9802	97.77029
791.1278	102.924
791.2754	100.1348
791.423	97.3189
791.5705	95.91245
791.718	94.70565
791.8655	96.85408
792.0131	94.92257
792.1606	101.3295
792.308	98.58356
792.4556	97.91946
792.603	99.8661
792.7505	99.68465
792.8979	95.7662
793.0454	96.7627
793.1928	91.00407
793.3403	95.69903
793.4877	97.20831
793.6351	92.74648
793.7825	102.0126
793.9299	96.9605
794.0772	96.01598
794.2246	93.39136
794.3719	91.66624
794.5193	89.56752
794.6666	92.62296
794.814	94.44117
794.9613	96.43784
795.1086	98.04595
795.2559	99.71589
795.4032	96.70702
795.5505	92.98376
795.6978	94.11541
795.845	87.59489
795.9922	89.39409
796.1395	92.67093
796.2867	92.78291
796.4339	97.25745
796.5811	96.34255
796.7283	94.71834
796.8755	96.84878
797.0227	90.98794
797.1699	91.57268
797.317	91.53803
797.4642	92.24257
797.6113	95.27142
797.7584	94.46203
797.9056	93.05934
798.0527	95.9219
798.1998	94.19864
798.3469	93.08942
798.494	87.11809
798.641	86.98759
798.7881	91.24844
798.9351	85.2561
799.0822	86.12897
799.2292	91.40894
799.3762	89.77496
799.5232	87.04228
799.6702	88.04602
799.8172	91.36315
799.9642	84.97252
800.1111	86.18192
800.2581	89.34026
800.4051	87.09569
800.552	90.32487
800.6989	85.53872
800.8458	83.07307
800.9927	92.09799
801.1396	87.91769
801.2866	83.78353
801.4334	90.07001
801.5803	87.68987
801.7272	92.06052
801.874	89.5939
802.0209	86.86305
802.1677	85.55907
802.3145	82.98398
802.4613	84.23645
802.6081	81.80479
802.7549	83.81081
802.9017	84.77155
803.0485	82.48228
803.1952	82.29254
803.342	84.64395
803.4887	83.2816
803.6354	86.87823
803.7822	80.77234
803.9289	81.20252
804.0756	80.89638
804.2223	76.75042
804.369	80.67789
804.5156	81.32863
804.6623	82.51352
804.8089	83.46278
804.9556	81.06142
805.1022	79.67971
805.2488	83.82662
805.3954	80.31754
805.542	75.9277
805.6886	81.42528
805.8352	85.4535
805.9818	87.49592
806.1283	80.97594
806.2749	83.9509
806.4214	80.95335
806.5679	86.42368
806.7145	83.29046
806.861	81.46217
807.0074	76.2009
807.154	78.76046
807.3004	78.60117
807.4469	75.82007
807.5934	82.15387
807.7398	80.39058
807.8862	74.23907
808.0327	81.85485
808.1791	78.63096
808.3255	72.89445
808.4719	78.5332
808.6183	77.76201
808.7647	74.82091
808.9111	71.57133
809.0574	76.77985
809.2037	77.57988
809.3501	79.49712
809.4965	78.62569
809.6428	70.02352
809.7891	73.28667
809.9354	72.96283
810.0817	74.90857
810.2279	76.54591
810.3742	79.48465
810.5204	72.81683
810.6667	71.66918
810.8129	73.80441
810.9592	67.88987
811.1054	73.79607
811.2516	72.40821
811.3978	71.43114
811.5439	74.27028
811.6901	78.1394
811.8363	71.55884
811.9825	72.2349
812.1286	68.17515
812.2748	74.32831
812.4209	70.29601
812.567	69.11881
812.7131	66.20065
812.8592	67.85503
813.0053	67.64518
813.1514	66.57323
813.2974	65.15138
813.4435	63.09162
813.5895	63.12667
813.7356	62.73144
813.8816	67.28978
814.0276	67.53313
814.1736	63.37201
814.3196	60.68528
814.4656	57.94983
814.6116	60.48619
814.7576	60.07714
814.9035	53.87469
815.0494	54.24343
815.1954	56.81694
815.3413	56.29237
815.4872	57.15459
815.6331	54.81015
815.779	61.76678
815.9249	58.54147
816.0707	59.13734
816.2166	54.0946
816.3625	46.91044
816.5083	48.35381
816.6542	55.38737
816.8	55.17099
816.9458	48.67917
817.0916	58.90855
817.2374	60.14816
817.3832	63.32227
817.5289	61.21833
817.6747	52.58186
817.8204	49.17094
817.9662	46.15584
818.1119	53.48092
818.2576	54.75274
818.4034	57.68511
818.5491	64.46093
818.6948	65.40669
818.8405	61.8836
818.9861	57.12024
819.1318	56.20881
819.2774	55.24564
819.423	54.83701
819.5687	51.07319
819.7143	50.68629
819.8599	51.32188
820.0055	54.56107
820.1511	56.90511
820.2967	58.35634
820.4422	65.54263
820.5878	65.20715
820.7333	60.55781
820.8788	59.55176
821.0244	59.56316
821.1699	60.14326
821.3154	63.418
821.4609	60.60955
821.6064	54.95067
821.7519	61.47465
821.8973	54.10318
822.0428	55.98166
822.1882	54.08802
822.3337	53.04844
822.4791	53.87636
822.6245	44.37001
822.7699	45.9645
822.9153	44.86402
823.0607	44.78687
823.2061	45.78445
823.3514	44.62225
823.4968	47.15011
823.6422	56.29471
823.7875	55.22264
823.9328	53.5462
824.0781	55.40066
824.2234	53.72921
824.3687	53.66109
824.514	54.89599
824.6592	59.23509
824.8045	61.13705
824.9498	64.57455
825.095	63.76891
825.2402	56.25036
825.3854	56.70966
825.5306	57.3504
825.6758	58.92146
825.821	57.26969
825.9662	53.23942
826.1114	53.20389
826.2565	53.26817
826.4017	54.87959
826.5468	52.09219
826.692	56.37569
826.837	63.40407
826.9822	62.29829
827.1273	56.81414
827.2723	53.4618
827.4174	50.73995
827.5625	49.38169
827.7075	55.57521
827.8526	57.46146
827.9976	53.95927
828.1426	51.66217
828.2877	51.91658
828.4327	52.34036
828.5776	56.52276
828.7227	53.24922
828.8676	51.33371
829.0126	49.08077
829.1575	48.39245
829.3024	45.67056
829.4474	52.87678
829.5923	52.62478
829.7372	51.36211
829.8821	55.08486
830.027	49.12196
830.1719	51.24894
830.3168	52.91325
830.4616	50.85837
830.6064	50.11368
830.7513	48.97752
830.8961	53.9544
831.041	53.869
831.1857	52.90373
831.3306	49.8841
831.4753	51.63554
831.6201	50.81836
831.7649	45.53772
831.9096	48.58218
832.0544	59.87403
832.1991	54.32573
832.3438	52.00853
832.4885	58.93672
832.6332	57.03636
832.778	54.16114
832.9226	51.71091
833.0673	49.29221
833.2119	51.75291
833.3566	51.42939
833.5012	47.67555
833.6459	47.36384
833.7905	50.24281
833.9351	51.60387
834.0797	54.82157
834.2243	52.88344
834.3688	56.08371
834.5134	53.11594
834.658	54.64174
834.8026	52.95237
834.9471	53.072
835.0916	50.51398
835.2361	55.59636
835.3806	51.94051
835.5251	56.39229
835.6696	49.06529
835.8141	43.21702
835.9586	45.31304
836.103	47.18781
836.2474	52.18098
836.3918	53.20145
836.5363	47.09826
836.6807	46.77665
836.8251	51.53144
836.9695	52.06508
837.1138	55.43801
837.2582	46.85783
837.4026	47.80177
837.5469	50.18773
837.6913	52.04937
837.8356	51.97131
837.9799	54.42346
838.1242	50.72538
838.2686	50.71904
838.4128	50.64352
838.5571	48.03943
838.7014	48.48779
838.8456	52.89535
838.9899	56.14032
839.1341	57.18604
839.2783	57.83074
839.4225	54.46605
839.5667	51.12495
839.7109	48.10217
839.8551	56.34555
839.9993	51.58544
840.1434	50.69158
840.2876	51.79967
840.4317	50.80955
840.5759	53.81643
840.72	53.14952
840.8641	44.30056
841.0082	49.82086
841.1523	52.90707
841.2963	48.17888
841.4404	50.75937
841.5845	49.16223
841.7285	53.12422
841.8726	52.42953
842.0165	50.18319
842.1606	50.09917
842.3046	49.95827
842.4485	49.83092
842.5925	50.04762
842.7365	52.99304
842.8805	53.80228
843.0244	53.71266
843.1684	49.12846
843.3123	47.97314
843.4562	49.91605
843.6002	47.07105
843.744	49.80795
843.8879	49.52288
844.0318	47.32871
844.1757	45.98066
844.3195	51.44081
844.4634	46.4543
844.6072	50.69388
844.751	52.05372
844.8948	50.75201
845.0386	50.82532
845.1824	52.96306
845.3262	52.09104
845.47	52.1698
845.6138	46.51233
845.7575	55.15042
845.9012	52.08096
846.045	44.45248
846.1887	48.93788
846.3324	46.96774
846.4761	46.97549
846.6198	46.65598
846.7635	46.43398
846.9071	45.55512
847.0508	46.61536
847.1944	52.06965
847.3381	45.94655
847.4817	53.97075
847.6253	48.16656
847.7689	46.44733
847.9125	44.27574
848.0561	46.1876
848.1996	49.26384
848.3432	46.91849
848.4868	47.54433
848.6303	45.25392
848.7738	48.77679
848.9174	47.5137
849.0609	51.87685
849.2043	41.90693
849.3478	44.95304
849.4913	48.91789
849.6348	42.87116
849.7782	41.86169
849.9217	41.76732
850.0651	42.02689
850.2086	44.01679
850.3519	45.47645
850.4954	46.07703
850.6387	46.03914
850.7821	46.65568
850.9255	46.76119
851.0688	42.43755
851.2122	45.77938
851.3555	41.97624
851.4988	43.45343
851.6422	46.55473
851.7855	42.91605
851.9288	44.05564
852.0721	40.68848
852.2153	40.56328
852.3586	41.02164
852.5018	46.02371
852.6451	43.52564
852.7883	49.21939
852.9315	47.99624
853.0748	43.95471
853.218	45.19421
853.3611	41.18155
853.5043	43.70257
853.6475	42.41673
853.7906	46.40136
853.9338	37.17044
854.0769	37.20715
854.22	32.12766
854.3632	30.3792
854.5063	39.33472
854.6494	37.84605
854.7924	38.45831
854.9355	38.91732
855.0786	40.91253
855.2216	44.53834
855.3647	42.27477
855.5077	45.80735
855.6507	45.71478
855.7937	43.12769
855.9367	43.35878
856.0797	46.08727
856.2227	45.04183
856.3657	43.63293
856.5086	46.25665
856.6516	47.11697
856.7945	48.18613
856.9374	44.55058
857.0803	42.8736
857.2232	41.58257
857.3661	41.87101
857.509	46.17661
857.6519	39.93189
857.7947	44.06279
857.9376	43.72481
858.0804	48.53177
858.2232	45.53657
858.366	47.69447
858.5089	42.22361
858.6516	46.16399
858.7944	44.91188
858.9372	43.15888
859.08	40.71854
859.2227	39.02511
859.3654	43.65801
859.5082	46.26267
859.6509	43.30826
859.7936	38.74305
859.9363	40.93423
860.079	40.14181
860.2217	40.25703
860.3643	42.15291
860.507	41.53759
860.6496	37.56102
860.7922	39.79246
860.9349	37.68832
861.0775	40.96456
861.2201	41.90324
861.3627	43.22482
861.5052	40.64186
861.6478	38.94806
861.7904	36.50475
861.9329	42.28373
862.0755	42.47451
862.218	38.41691
862.3605	36.48071
862.503	37.07777
862.6455	41.13905
862.788	46.88712
862.9305	35.70806
863.0729	37.68954
863.2154	42.7389
863.3578	36.50534
863.5002	38.60075
863.6426	39.40651
863.7851	35.77719
863.9275	39.45465
864.0698	40.24242
864.2122	40.26627
864.3546	42.25867
864.4969	40.74143
864.6393	41.23433
864.7816	42.27798
864.924	41.23265
865.0662	41.75794
865.2086	37.47982
865.3508	37.4084
865.4931	38.56149
865.6354	32.92048
865.7776	35.00475
865.9199	33.7939
866.0621	28.67048
866.2043	32.07409
866.3466	33.33434
866.4888	33.91392
866.6309	36.95105
866.7731	34.53307
866.9153	30.9044
867.0574	35.42038
867.1996	34.1385
867.3417	36.62878
867.4839	34.15021
867.626	36.28261
867.7681	35.03162
867.9102	38.28593
868.0522	37.99223
868.1943	38.97398
868.3364	37.1936
868.4785	36.73956
868.6205	37.55417
868.7625	34.84185
868.9045	36.3812
869.0465	39.24646
869.1885	32.8858
869.3305	38.06724
869.4725	39.18744
869.6144	43.04572
869.7564	36.28249
869.8983	38.44874
870.0403	35.59152
870.1822	38.32562
870.3241	38.03573
870.466	31.928
870.6079	34.15709
870.7498	34.7747
870.8916	35.1158
871.0335	37.25219
871.1754	38.41703
871.3171	37.09346
871.459	33.72203
871.6008	38.97121
871.7426	36.59602
871.8844	38.58488
872.0262	38.7472
872.1679	35.72802
872.3097	41.23424
872.4514	35.17995
872.5931	32.88058
872.7349	30.3753
872.8766	25.47396
873.0183	32.41588
873.16	32.27228
873.3017	34.42914
873.4434	37.89272
873.585	32.74593
873.7266	33.24636
873.8683	34.59283
874.0099	32.05654
874.1516	33.69582
874.2932	34.26616
874.4348	35.50411
874.5763	33.0685
874.7179	30.53836
874.8594	34.14111
875.001	33.60323
875.1425	34.78002
875.2841	38.65563
875.4256	34.22869
875.5671	33.77045
875.7086	32.92432
875.85	30.61174
875.9915	31.96635
876.133	29.98099
876.2744	36.47551
876.4159	38.23252
876.5573	34.95178
876.6987	35.56824
876.8401	35.26141
876.9815	34.04597
877.1229	38.61251
877.2643	33.06298
877.4056	30.95858
877.547	30.84059
877.6884	32.46694
877.8297	36.24658
877.971	35.4561
878.1123	34.14355
878.2536	33.65081
878.3949	33.18692
878.5362	30.7773
878.6774	24.34863
878.8187	31.4194
878.9599	33.47592
879.1011	31.7704
879.2424	31.75939
879.3836	35.40381
879.5248	30.99588
879.666	25.7743
879.8071	28.48645
879.9483	32.28259
880.0895	34.49959
880.2306	35.73191
880.3718	31.40093
880.5129	32.67669
880.654	32.21923
880.7951	33.76859
880.9362	31.98913
881.0773	32.01425
881.2183	29.43995
881.3594	25.57492
881.5004	31.5758
881.6414	32.54036
881.7825	29.68282
881.9235	33.67318
882.0645	29.70726
882.2054	23.3306
882.3464	28.05563
882.4874	27.24549
882.6284	27.76079
882.7693	30.48371
882.9103	31.90126
883.0512	31.88528
883.1921	31.41944
883.333	28.74474
883.4739	29.39483
883.6147	33.14772
883.7556	33.16727
883.8965	23.95386
884.0374	31.75215
884.1782	28.71377
884.319	28.16138
884.4598	29.20474
884.6006	29.86482
884.7414	30.03947
884.8822	30.13821
885.0229	31.35808
885.1637	33.0034
885.3044	34.69953
885.4452	30.65322
885.5859	28.71632
885.7266	25.47828
885.8673	28.93773
886.008	32.48693
886.1487	27.75319
886.2894	30.91656
886.43	24.52142
886.5707	30.73364
886.7113	31.31982
886.8519	28.51563
886.9926	24.88029
887.1331	29.84172
887.2737	28.02276
887.4143	30.20106
887.5549	29.43947
887.6954	30.12069
887.836	30.80748
887.9765	28.20364
888.1171	30.24926
888.2576	32.23851
888.3981	27.85667
888.5386	27.97266
888.679	28.96671
888.8195	28.80157
888.96	31.7962
889.1004	25.69201
889.2408	24.77694
889.3813	30.11413
889.5217	26.46393
889.6621	26.7213
889.8025	32.97724
889.9429	31.4003
890.0833	31.07567
890.2236	32.02908
890.364	30.95261
890.5043	31.38273
890.6446	26.87198
890.7849	22.81091
890.9252	25.56576
891.0655	30.34034
891.2058	30.91774
891.3461	29.19243
891.4863	25.7361
891.6266	26.19097
891.7668	26.43109
891.907	30.03638
892.0472	31.63786
892.1874	27.55623
892.3276	28.67929
892.4678	33.66674
892.608	26.64362
892.7481	24.07148
892.8883	24.02512
893.0284	26.94129
893.1685	25.5358
893.3087	27.66384
893.4487	26.07503
893.5889	23.81538
893.7289	25.75637
893.869	26.92305
894.009	27.99006
894.1491	26.0742
894.2891	22.46668
894.4291	23.36344
894.5692	26.4004
894.7092	24.23038
894.8491	28.05674
894.9891	21.73607
895.1291	26.12289
895.269	28.61028
895.409	19.01592
895.549	27.89614
895.6888	28.13692
895.8288	22.49907
895.9687	20.36853
896.1086	23.79542
896.2484	23.09436
896.3883	16.31192
896.5281	21.39608
896.668	18.8632
896.8079	18.36079
896.9476	18.11882
897.0875	19.19198
897.2272	20.42034
897.3671	21.4805
897.5068	19.47561
897.6466	26.24729
897.7864	23.47674
897.9261	21.55408
898.0658	22.47812
898.2056	23.06197
898.3453	20.79795
898.4849	24.90355
898.6246	21.7965
898.7643	18.18806
898.904	16.57206
899.0436	18.6006
899.1833	19.87921
899.3229	16.35094
899.4625	24.82777
899.6021	23.68505
899.7417	24.91726
899.8813	22.84283
900.0209	15.18906
900.1605	17.28974
900.3	20.56817
900.4395	15.10816
900.579	22.46755
900.7186	22.02328
900.8581	20.84649
900.9976	25.0878
901.1371	20.73788
901.2766	22.14551
901.416	21.99834
901.5555	20.77786
901.6949	19.66936
901.8344	19.29716
901.9738	18.28406
902.1132	18.14291
902.2526	16.39994
902.3919	19.75257
902.5313	23.20761
902.6707	22.15817
