SPECTRUM DATA FILE
SpectrumCount:	1
PixelCount:	3648
UserName:	ToughBook User
SampleName:	
LightSource:	
Comments:	
DeviceName:	Qwave
DeviceManufacturer:	Broadcom
DeviceSerialNo:	11311

Name:	last spectrum
Date:	2024-05-02T14:53:05.4755979+02:00
ExposureTime:	0.02
TemporalAvg:	1
IntensityUnit:	normalizedCounts
CCDLoadLevel:	0.05364329
Temperature:	33.14276
DiagramColor:	200
ProcessingSteps:	335

Wavelength [nm]	Intensity1
334.421	12.83839
334.5891	12.3466
334.7573	9.697419
334.9254	9.714135
335.0935	12.37237
335.2616	10.81169
335.4297	11.70562
335.5978	10.4903
335.7659	9.114323
335.934	11.39773
336.1021	9.517291
336.2701	11.51484
336.4382	12.7629
336.6063	9.300154
336.7744	8.841221
336.9424	11.97764
337.1105	10.70127
337.2785	12.54643
337.4466	7.279723
337.6146	9.538
337.7827	13.43889
337.9507	12.19819
338.1187	8.966987
338.2867	9.005173
338.4548	10.72582
338.6228	10.4159
338.7908	9.420772
338.9588	11.42848
339.1268	9.576364
339.2948	12.67815
339.4628	8.256372
339.6308	9.401174
339.7988	10.77382
339.9667	13.32625
340.1347	13.31919
340.3027	11.43166
340.4707	9.427277
340.6386	6.379569
340.8066	5.73016
340.9745	12.70442
341.1425	8.467834
341.3104	13.41631
341.4784	11.85662
341.6463	5.887486
341.8142	7.117446
341.9821	11.41153
342.1501	7.764211
342.318	12.52359
342.4859	11.94437
342.6538	10.90209
342.8217	15.2256
342.9896	13.61406
343.1575	13.5288
343.3254	12.88927
343.4933	11.25737
343.6612	9.564222
343.829	9.237368
343.9969	10.41078
344.1648	12.57076
344.3326	15.20197
344.5005	5.546112
344.6683	7.531435
344.8362	12.63483
345.004	17.40945
345.1719	11.28773
345.3397	12.99933
345.5075	18.32691
345.6754	15.42938
345.8432	9.370222
346.011	9.598145
346.1788	9.505627
346.3466	15.27654
346.5144	10.39452
346.6822	10.98757
346.85	11.56672
347.0178	12.42849
347.1856	10.72331
347.3534	7.586868
347.5211	8.989385
347.6889	6.562596
347.8567	15.80111
348.0244	12.04261
348.1922	15.22121
348.3599	16.46892
348.5277	15.46939
348.6954	12.77502
348.8632	7.829144
349.0309	10.26071
349.1986	9.714226
349.3663	12.99639
349.5341	11.83203
349.7018	11.59504
349.8695	13.25754
350.0372	9.901785
350.2049	10.56413
350.3726	15.66491
350.5403	12.69813
350.7079	11.57767
350.8756	10.01612
351.0433	8.250033
351.211	7.695082
351.3786	8.693037
351.5463	10.38026
351.714	9.548816
351.8816	12.21764
352.0493	12.719
352.2169	13.11975
352.3846	12.34702
352.5522	14.70783
352.7198	16.93797
352.8875	21.94751
353.0551	20.01151
353.2227	12.28907
353.3903	10.8779
353.5579	12.8594
353.7255	13.90598
353.8931	10.90021
354.0607	14.7272
354.2283	18.71109
354.3958	15.15792
354.5634	12.58232
354.731	17.51396
354.8986	10.89629
355.0661	10.10359
355.2337	16.11082
355.4012	14.07981
355.5688	12.25111
355.7363	16.29657
355.9039	14.09025
356.0714	15.97099
356.239	15.72412
356.4065	14.47991
356.574	10.57265
356.7415	10.37652
356.909	12.0479
357.0765	14.16023
357.244	12.3739
357.4115	12.04125
357.579	12.48635
357.7465	13.96975
357.914	13.72075
358.0815	12.44336
358.249	11.98085
358.4164	12.81994
358.5839	11.61174
358.7513	10.36938
358.9188	10.06729
359.0862	8.977372
359.2537	13.63618
359.4211	14.45711
359.5886	9.153562
359.756	16.31624
359.9234	13.21201
360.0909	12.34301
360.2583	17.24092
360.4257	12.34001
360.5931	14.18247
360.7605	17.90001
360.9279	16.11864
361.0953	20.74868
361.2627	12.64307
361.4301	9.947106
361.5974	11.80866
361.7648	11.6728
361.9322	14.45887
362.0995	12.22317
362.2669	11.58104
362.4343	10.01229
362.6016	18.55868
362.769	17.45848
362.9363	16.623
363.1036	14.86665
363.271	11.73851
363.4383	12.35966
363.6056	13.45367
363.7729	17.3031
363.9402	13.54045
364.1075	15.68769
364.2748	16.61164
364.4421	14.77344
364.6094	14.47546
364.7767	14.89351
364.944	14.37822
365.1113	17.00278
365.2786	14.95311
365.4458	14.55293
365.6131	14.76018
365.7803	17.32733
365.9476	18.40827
366.1148	16.40158
366.2821	11.73155
366.4493	12.76159
366.6166	15.39797
366.7838	10.92756
366.951	12.56027
367.1182	16.43393
367.2855	17.08119
367.4527	15.30832
367.6199	11.98723
367.7871	10.9145
367.9543	13.86536
368.1215	18.8689
368.2886	14.3271
368.4558	11.9385
368.623	13.68581
368.7902	14.281
368.9573	17.85284
369.1245	15.23116
369.2917	11.27827
369.4588	14.2985
369.6259	14.86504
369.7931	15.62444
369.9602	10.78005
370.1274	15.12931
370.2945	14.28883
370.4616	13.56775
370.6287	15.75626
370.7958	15.32836
370.963	15.67013
371.1301	12.65824
371.2971	15.51242
371.4643	14.97327
371.6313	18.60102
371.7984	22.13349
371.9655	16.67465
372.1326	16.47642
372.2997	20.1517
372.4667	16.8413
372.6338	12.9195
372.8008	11.12894
372.9679	14.25863
373.1349	15.02998
373.3019	16.2968
373.469	18.21311
373.636	15.45267
373.803	18.92726
373.9701	18.48993
374.1371	18.29226
374.3041	16.23217
374.4711	13.32359
374.6381	19.86707
374.8051	18.88655
374.9721	15.566
375.1391	13.98858
375.3061	18.8571
375.473	19.6779
375.64	18.88304
375.8069	14.77129
375.9739	14.74826
376.1409	17.47948
376.3078	20.3091
376.4748	19.82681
376.6417	14.20555
376.8087	15.4649
376.9756	18.68695
377.1425	14.68924
377.3094	15.92107
377.4763	14.39651
377.6432	15.0137
377.8102	19.63822
377.9771	18.01571
378.144	20.73252
378.3109	16.9558
378.4777	20.16731
378.6446	19.41264
378.8115	18.018
378.9784	16.36879
379.1452	18.11713
379.3121	13.77012
379.4789	13.28119
379.6458	16.96136
379.8127	15.79924
379.9795	15.8488
380.1463	21.57123
380.3131	19.26599
380.48	17.50757
380.6468	15.88305
380.8136	15.81992
380.9804	14.82145
381.1472	17.83968
381.314	19.55077
381.4808	18.09085
381.6476	16.09571
381.8144	16.75072
381.9812	18.17662
382.148	19.19818
382.3147	14.20449
382.4815	15.84106
382.6483	18.67836
382.815	15.60968
382.9818	15.70454
383.1485	17.3125
383.3153	17.00237
383.482	17.86558
383.6487	22.64917
383.8155	20.60637
383.9822	20.40822
384.1489	18.34669
384.3156	22.5317
384.4823	18.64848
384.649	16.36175
384.8157	19.27968
384.9824	18.24459
385.1491	20.81043
385.3158	20.46028
385.4825	19.50102
385.6491	15.943
385.8158	14.02097
385.9825	15.22152
386.1491	17.75465
386.3157	22.30262
386.4824	17.62525
386.649	20.17478
386.8157	21.04658
386.9823	19.87892
387.1489	16.49754
387.3156	21.40725
387.4821	23.55467
387.6488	17.4744
387.8154	22.66757
387.982	18.85936
388.1486	19.88013
388.3152	19.68001
388.4818	25.13579
388.6483	21.19104
388.8149	21.71512
388.9815	21.74217
389.148	22.86794
389.3146	23.38578
389.4811	23.94676
389.6477	25.76449
389.8142	23.73737
389.9808	23.34797
390.1473	21.85904
390.3138	19.38039
390.4804	19.4518
390.6469	20.75245
390.8134	20.91486
390.9799	22.02796
391.1464	23.80252
391.3129	22.08664
391.4794	25.16068
391.6459	20.67139
391.8124	18.60375
391.9789	20.39356
392.1453	22.72762
392.3118	20.32714
392.4782	20.49705
392.6447	17.04718
392.8112	15.70233
392.9776	18.44033
393.144	16.26146
393.3105	20.09516
393.4769	16.48849
393.6433	21.57306
393.8098	20.43958
393.9762	16.60783
394.1426	21.79828
394.309	20.13903
394.4754	17.55879
394.6418	19.16224
394.8082	23.06963
394.9746	23.95106
395.141	27.70506
395.3073	29.18059
395.4737	27.83214
395.64	25.10348
395.8064	24.07882
395.9728	21.92723
396.1391	24.69971
396.3055	22.12538
396.4718	23.46719
396.6381	19.73627
396.8045	18.13723
396.9708	18.8163
397.1371	22.65608
397.3034	32.45158
397.4697	25.4081
397.636	25.50372
397.8023	27.3796
397.9686	31.15543
398.1349	25.7242
398.3012	29.56499
398.4675	27.88838
398.6337	28.80918
398.8	28.05252
398.9662	32.19452
399.1325	29.9066
399.2988	32.06523
399.465	31.40953
399.6313	29.09198
399.7975	30.57048
399.9637	22.16517
400.1299	30.69689
400.2961	32.67123
400.4624	30.12191
400.6286	32.71152
400.7948	29.58421
400.961	30.21059
401.1272	30.3302
401.2934	26.85695
401.4595	30.62454
401.6257	27.77993
401.7919	30.10024
401.9581	30.0958
402.1242	32.00407
402.2904	32.24172
402.4565	32.23887
402.6227	31.31759
402.7888	30.14061
402.955	28.84517
403.1211	25.25303
403.2872	35.02422
403.4533	29.84451
403.6194	31.54341
403.7856	28.45663
403.9517	27.89519
404.1177	30.00537
404.2838	32.20441
404.4499	31.3831
404.616	31.27752
404.7821	29.79309
404.9482	29.4698
405.1142	35.5625
405.2803	33.28514
405.4464	26.08737
405.6124	26.89903
405.7784	28.91036
405.9445	34.4232
406.1105	28.52605
406.2766	29.74501
406.4426	31.41454
406.6086	30.84854
406.7746	35.20216
406.9406	37.61594
407.1066	30.94169
407.2726	22.51222
407.4386	30.67831
407.6046	36.03793
407.7706	33.36143
407.9366	29.81495
408.1025	37.28
408.2685	40.52421
408.4344	33.43307
408.6004	37.05146
408.7664	39.25819
408.9323	38.15597
409.0983	41.10524
409.2642	41.77252
409.4301	36.57487
409.596	36.49606
409.762	38.24873
409.9279	36.38962
410.0938	31.94275
410.2597	35.10549
410.4256	35.55661
410.5915	36.90694
410.7574	40.79048
410.9232	38.9688
411.0891	39.42595
411.255	41.72526
411.4209	40.70722
411.5867	44.24979
411.7526	45.91322
411.9184	47.23361
412.0843	41.8782
412.2501	44.05767
412.4159	44.67378
412.5818	43.73372
412.7476	39.93882
412.9134	40.00619
413.0792	37.78793
413.245	39.57631
413.4108	45.86612
413.5766	41.45488
413.7424	34.98262
413.9082	46.01875
414.074	42.69109
414.2397	41.22328
414.4055	40.09548
414.5713	43.51979
414.737	43.03764
414.9028	42.15982
415.0685	39.03801
415.2343	40.66975
415.4	38.48781
415.5658	42.67079
415.7315	41.87532
415.8972	43.04511
416.0629	44.97554
416.2286	43.44417
416.3943	44.33747
416.56	41.79448
416.7257	48.06137
416.8914	47.4101
417.0571	43.55939
417.2228	39.97192
417.3884	43.01114
417.5541	44.96261
417.7198	41.08796
417.8854	38.66285
418.0511	43.09317
418.2167	40.81599
418.3824	40.54479
418.548	40.98457
418.7136	41.09702
418.8792	44.60923
419.0449	45.68958
419.2105	43.39161
419.3761	46.09165
419.5417	44.40971
419.7073	42.98199
419.8729	39.4817
420.0385	43.43387
420.204	42.3815
420.3696	45.49057
420.5352	46.48586
420.7007	52.24201
420.8663	48.23176
421.0319	49.72097
421.1974	47.34081
421.3629	51.36295
421.5285	51.65221
421.694	50.10427
421.8595	50.53685
422.0251	47.93803
422.1906	49.13175
422.3561	43.9506
422.5216	43.85556
422.6871	44.29392
422.8526	47.26099
423.0181	48.85189
423.1835	48.12568
423.349	47.81391
423.5145	44.64427
423.68	44.34741
423.8454	48.26817
424.0109	51.36001
424.1763	52.2955
424.3418	48.162
424.5072	54.28088
424.6726	54.18975
424.838	49.4683
425.0035	50.66629
425.1689	53.02628
425.3343	49.62809
425.4997	50.43205
425.6651	56.69522
425.8305	55.80501
425.9959	51.41139
426.1613	53.51368
426.3267	52.42989
426.492	50.6122
426.6574	56.94495
426.8228	54.71915
426.9881	54.06779
427.1534	51.6676
427.3188	51.32508
427.4841	52.01532
427.6495	55.74255
427.8148	56.82539
427.9801	56.12529
428.1454	55.49184
428.3107	52.90862
428.476	53.84674
428.6414	49.09663
428.8066	49.76559
428.9719	53.74182
429.1372	53.90575
429.3025	46.48026
429.4678	49.93581
429.633	48.41631
429.7983	48.90312
429.9636	44.05695
430.1288	47.02224
430.294	52.34199
430.4593	45.04565
430.6245	39.01957
430.7897	44.20562
430.955	44.07136
431.1202	45.57399
431.2854	48.69487
431.4506	51.93176
431.6158	56.2928
431.781	62.1782
431.9462	56.95597
432.1114	56.07042
432.2766	53.36694
432.4417	49.31295
432.6069	44.69906
432.772	53.66459
432.9372	57.76206
433.1024	56.26206
433.2675	63.40814
433.4326	58.50781
433.5977	58.44879
433.7629	52.79171
433.928	53.2959
434.0931	50.18378
434.2582	49.64721
434.4233	53.86329
434.5884	59.15269
434.7535	59.06878
434.9186	61.25425
435.0837	64.85703
435.2488	54.39538
435.4138	54.12428
435.5789	55.31454
435.744	60.73244
435.909	57.6579
436.0741	61.76995
436.2391	69.31802
436.4042	69.12719
436.5692	67.01185
436.7342	66.58572
436.8992	63.32904
437.0643	62.34715
437.2293	65.60555
437.3943	64.5582
437.5593	58.92844
437.7243	67.88397
437.8893	66.2515
438.0542	70.09119
438.2192	61.56466
438.3842	56.42418
438.5491	55.51544
438.7141	60.41154
438.8791	62.13034
439.044	59.33211
439.209	59.19033
439.3739	69.42829
439.5388	72.83319
439.7037	68.50689
439.8687	64.76903
440.0336	63.0097
440.1985	63.58232
440.3634	62.27214
440.5283	67.1293
440.6932	68.86662
440.8581	67.8132
441.0229	64.66128
441.1878	73.07598
441.3527	70.34343
441.5175	66.69846
441.6824	66.68524
441.8472	72.45385
442.0121	74.79903
442.1769	72.32737
442.3418	71.14496
442.5066	69.19255
442.6714	70.25905
442.8362	64.53323
443.001	71.25774
443.1659	72.57543
443.3307	65.31558
443.4955	71.23073
443.6602	70.76111
443.825	75.51495
443.9898	74.43451
444.1546	71.45522
444.3193	70.67168
444.4841	73.80777
444.6488	71.29853
444.8136	73.68658
444.9783	66.75544
445.1431	71.45566
445.3078	67.3149
445.4725	70.41335
445.6372	72.37173
445.802	66.67548
445.9667	68.58237
446.1314	68.79816
446.2961	67.57834
446.4608	69.96811
446.6255	73.97383
446.7901	75.07674
446.9548	75.79688
447.1195	74.18272
447.2841	77.1593
447.4488	78.92345
447.6134	77.8577
447.7781	80.02888
447.9427	78.02299
448.1074	81.11588
448.272	75.44382
448.4366	75.5951
448.6012	77.06316
448.7658	75.83707
448.9305	76.55341
449.095	77.05662
449.2596	77.33051
449.4242	75.6437
449.5888	72.53693
449.7534	72.44205
449.9179	73.9751
450.0825	80.73746
450.2471	83.65085
450.4116	83.18978
450.5762	87.77307
450.7407	86.50108
450.9052	85.70493
451.0698	89.00485
451.2343	85.36784
451.3988	83.58645
451.5633	84.87234
451.7278	83.4017
451.8923	84.09422
452.0568	84.78727
452.2213	84.9535
452.3858	85.76815
452.5503	85.68497
452.7148	77.94781
452.8792	77.30663
453.0437	82.77527
453.2081	81.59909
453.3726	77.33635
453.537	81.22653
453.7015	87.11963
453.8659	80.25077
454.0303	82.5036
454.1947	86.39471
454.3592	80.21061
454.5236	85.09657
454.688	93.33743
454.8524	82.44419
455.0168	85.11377
455.1811	87.11658
455.3455	81.04229
455.5099	83.24342
455.6743	82.55182
455.8386	86.21391
456.003	91.91871
456.1673	88.87729
456.3317	87.91161
456.496	84.10962
456.6603	93.19062
456.8246	93.13844
456.989	89.22342
457.1533	94.59987
457.3176	89.5304
457.4819	86.1192
457.6462	94.10937
457.8105	90.43704
457.9748	88.62285
458.1391	88.76571
458.3033	84.92672
458.4676	86.3501
458.6319	87.72553
458.7961	86.33112
458.9604	86.37772
459.1246	89.57836
459.2888	88.85365
459.4531	86.89714
459.6173	87.79024
459.7815	84.63206
459.9457	87.7939
460.11	90.07689
460.2741	84.1361
460.4384	83.2942
460.6025	90.463
460.7667	92.22803
460.9309	92.36768
461.0951	89.92774
461.2592	92.2656
461.4234	89.25274
461.5876	89.177
461.7517	91.39324
461.9159	90.24659
462.08	87.37991
462.2441	93.51835
462.4082	95.75423
462.5724	93.49844
462.7365	91.99249
462.9006	91.17412
463.0647	93.64476
463.2288	94.33653
463.3929	94.78904
463.557	95.11465
463.721	86.58659
463.8851	93.27358
464.0492	90.88287
464.2132	94.41265
464.3773	94.0392
464.5414	89.80851
464.7054	82.27817
464.8694	85.47302
465.0334	94.28211
465.1975	85.21932
465.3615	87.25761
465.5255	93.60698
465.6895	93.62654
465.8535	90.85078
466.0175	94.62968
466.1815	100.133
466.3455	92.35373
466.5095	90.93961
466.6734	88.95797
466.8374	88.16525
467.0014	90.73882
467.1653	90.99416
467.3293	94.10719
467.4932	98.81332
467.6571	97.07159
467.8211	94.85667
467.985	91.39003
468.1489	92.47675
468.3128	90.6823
468.4767	93.23862
468.6406	95.7402
468.8045	95.90044
468.9684	93.18871
469.1323	97.27927
469.2962	95.13878
469.46	95.7632
469.6239	92.23868
469.7878	94.62331
469.9516	94.89785
470.1154	95.03216
470.2793	91.80228
470.4431	93.50096
470.607	91.51527
470.7708	95.64114
470.9346	99.19546
471.0984	95.88581
471.2622	97.21304
471.426	96.87682
471.5898	103.5945
471.7536	96.60111
471.9174	99.43668
472.0811	101.0018
472.2449	95.05376
472.4087	102.8819
472.5724	98.56689
472.7362	96.43901
472.8999	97.76698
473.0637	93.08327
473.2274	92.55264
473.3911	105.0053
473.5548	100.6314
473.7185	99.21181
473.8822	102.9851
474.0459	103.7057
474.2096	104.6964
474.3733	101.1916
474.537	99.04025
474.7007	103.3361
474.8643	101.0453
475.028	98.64864
475.1917	98.1308
475.3553	99.11739
475.519	100.6375
475.6826	100.5626
475.8463	104.3814
476.0099	100.5085
476.1735	95.17971
476.3371	94.87968
476.5007	94.64039
476.6643	93.48011
476.8279	99.57822
476.9915	106.228
477.1551	105.8198
477.3187	101.6966
477.4823	101.2482
477.6458	102.7712
477.8094	102.2463
477.9729	99.43819
478.1365	101.8092
478.3	102.1526
478.4636	102.784
478.6271	102.6105
478.7906	103.1723
478.9541	99.52168
479.1176	102.8766
479.2812	100.8678
479.4447	108.2488
479.6082	102.9416
479.7716	102.3488
479.9351	102.8957
480.0986	101.8399
480.2621	103.8448
480.4255	102.4627
480.589	100.8009
480.7524	100.0475
480.9159	97.61754
481.0793	103.4019
481.2428	99.95913
481.4062	103.4623
481.5696	104.2361
481.733	102.6443
481.8964	106.9912
482.0598	103.1464
482.2232	100.1973
482.3866	101.9287
482.55	99.96089
482.7134	102.6434
482.8768	106.1086
483.0401	102.4251
483.2035	97.60989
483.3668	100.2795
483.5302	102.9128
483.6935	105.3255
483.8568	100.9977
484.0202	99.58929
484.1835	95.37492
484.3468	103.3562
484.5101	101.3417
484.6734	97.52749
484.8367	100.9408
485	103.7775
485.1633	102.2496
485.3266	103.2697
485.4899	96.08364
485.6531	95.82996
485.8164	93.37151
485.9796	82.46848
486.1429	78.68187
486.3061	82.34036
486.4694	90.72718
486.6326	94.42806
486.7958	93.84241
486.959	101.1633
487.1223	98.39324
487.2855	100.5317
487.4486	102.4545
487.6118	93.42502
487.775	101.7291
487.9382	104.6996
488.1014	102.9838
488.2646	107.2994
488.4277	103.7281
488.5909	98.74761
488.754	101.5675
488.9171	104.2397
489.0803	99.82512
489.2434	97.34277
489.4066	102.9952
489.5697	111.4038
489.7328	112.6108
489.8959	111.5494
490.059	112.1865
490.2221	105.1102
490.3852	106.3383
490.5482	105.8565
490.7113	107.825
490.8744	107.4355
491.0374	105.0682
491.2005	111.0375
491.3636	108.3651
491.5266	109.1813
491.6896	107.3453
491.8527	99.6459
492.0157	89.86432
492.1787	95.87276
492.3417	100.1675
492.5047	102.7693
492.6677	114.6306
492.8307	114.1496
492.9937	110.4283
493.1567	111.0147
493.3196	113.199
493.4826	106.4935
493.6456	105.5822
493.8085	109.1438
493.9715	105.7115
494.1344	110.4551
494.2974	115.8358
494.4603	116.0623
494.6232	112.927
494.7861	114.6122
494.949	107.6743
495.1119	111.957
495.2748	112.7969
495.4377	114.1678
495.6006	116.0755
495.7635	114.6794
495.9264	107.6589
496.0892	112.6706
496.2521	117.3694
496.4149	115.5909
496.5778	118.4433
496.7407	115.6846
496.9035	114.7681
497.0663	117.4373
497.2291	120.4893
497.3919	119.3679
497.5547	119.7527
497.7176	117.4555
497.8804	118.5277
498.0432	114.4719
498.2059	106.7166
498.3687	108.8829
498.5315	108.8029
498.6942	111.8463
498.857	116.434
499.0198	110.4502
499.1825	112.0137
499.3452	112.9118
499.508	110.9919
499.6707	123.2311
499.8334	121.3928
499.9962	118.6223
500.1589	112.3837
500.3216	113.939
500.4843	112.5197
500.6469	114.3162
500.8096	115.2122
500.9723	112.9626
501.135	113.8236
501.2976	110.4805
501.4603	105.8119
501.623	112.08
501.7856	114.0606
501.9482	113.0849
502.1109	119.1059
502.2735	117.1406
502.4361	117.4928
502.5987	114.6991
502.7614	112.296
502.924	120.7513
503.0865	119.9183
503.2491	120.0758
503.4117	119.9894
503.5743	112.272
503.7368	107.931
503.8994	117.0488
504.062	119.8439
504.2245	121.8067
504.3871	125.1111
504.5496	124.3451
504.7121	128.246
504.8746	130.3103
505.0372	124.0222
505.1997	125.1553
505.3622	131.3716
505.5247	130.0479
505.6872	134.3235
505.8497	137.1356
506.0121	132.9606
506.1746	132.601
506.3371	136.1759
506.4995	127.2987
506.662	125.7327
506.8244	131.458
506.9869	130.8184
507.1493	132.7607
507.3117	129.9035
507.4742	134.3348
507.6366	131.2034
507.799	131.1858
507.9614	133.0991
508.1238	125.655
508.2862	129.7169
508.4485	135.132
508.6109	135.3831
508.7733	141.2378
508.9357	141.6347
509.098	139.2002
509.2604	139.7203
509.4227	146.6723
509.5851	140.716
509.7474	135.0102
509.9097	135.389
510.072	128.1003
510.2343	138.9069
510.3966	143.9148
510.5589	145.0467
510.7212	139.4072
510.8835	138.2322
511.0458	145.9732
511.2081	148.9411
511.3703	145.265
511.5326	142.9816
511.6949	147.8046
511.8571	148.9818
512.0193	150.1494
512.1816	149.4164
512.3438	150.5156
512.506	143.3201
512.6682	142.5392
512.8304	142.2815
512.9926	150.3459
513.1548	145.987
513.317	148.6888
513.4792	144.2236
513.6414	144.1689
513.8035	143.52
513.9657	148.4486
514.1279	150.7657
514.29	144.2354
514.4521	147.191
514.6143	150.3934
514.7764	152.6948
514.9385	155.3016
515.1006	152.327
515.2628	149.3883
515.4249	149.0324
515.587	149.2821
515.7491	161.6659
515.9111	154.2693
516.0732	154.9396
516.2353	158.5192
516.3973	148.9216
516.5594	146.6503
516.7214	143.0573
516.8835	131.3044
517.0455	139.5036
517.2076	146.906
517.3696	141.5704
517.5316	147.0685
517.6937	156.0605
517.8557	166.869
518.0176	162.6616
518.1796	156.201
518.3416	144.9797
518.5036	139.2435
518.6656	150.8532
518.8275	164.7351
518.9895	161.0656
519.1514	163.857
519.3134	166.7668
519.4753	155.4777
519.6373	160.3628
519.7992	164.968
519.9611	170.6345
520.123	167.253
520.2849	176.3741
520.4468	165.8859
520.6087	170.6004
520.7706	173.1794
520.9325	175.7713
521.0944	176.6391
521.2562	182.8002
521.4181	178.8197
521.58	179.0741
521.7418	176.797
521.9036	176.4544
522.0655	189.4157
522.2273	194.2658
522.3891	180.6073
522.551	176.0894
522.7128	173.5979
522.8746	172.6714
523.0363	184.6627
523.1981	182.8736
523.3599	181.2931
523.5217	184.4753
523.6835	191.1858
523.8452	192.8749
524.007	193.2684
524.1687	200.0494
524.3304	200.5067
524.4922	201.0009
524.6539	197.3666
524.8157	187.959
524.9774	193.9666
525.1391	197.9051
525.3008	209.3165
525.4625	203.3953
525.6241	200.8918
525.7858	203.5246
525.9475	212.4298
526.1092	207.3101
526.2709	199.8099
526.4325	183.4157
526.5942	175.8161
526.7558	184.0675
526.9174	184.7359
527.079	184.8984
527.2407	192.6128
527.4023	203.1833
527.5639	204.8437
527.7255	212.568
527.8871	210.3288
528.0487	211.5259
528.2103	211.4746
528.3718	211.366
528.5334	213.2987
528.695	217.2249
528.8565	219.396
529.0181	222.3585
529.1796	224.8702
529.3412	227.9333
529.5027	229.1849
529.6642	226.1728
529.8257	216.161
529.9872	218.6889
530.1487	221.9577
530.3102	211.9608
530.4717	224.6764
530.6332	228.4114
530.7947	229.2232
530.9562	233.6066
531.1176	237.1801
531.2791	232.4147
531.4405	234.874
531.6019	230.4157
531.7634	232.7974
531.9248	228.1641
532.0862	219.1147
532.2477	222.3247
532.4091	220.4541
532.5704	213.1759
532.7319	210.7505
532.8932	218.6636
533.0546	221.2286
533.216	228.2617
533.3774	225.4038
533.5388	229.4205
533.7001	235.6998
533.8615	227.6685
534.0228	223.7928
534.1841	227.0396
534.3455	230.0509
534.5068	234.1967
534.6681	226.2063
534.8293	227.318
534.9907	229.9225
535.152	235.8769
535.3132	232.8628
535.4745	233.5697
535.6358	243.8038
535.7971	242.3891
535.9583	240.5378
536.1196	238.587
536.2808	239.0747
536.4421	228.5723
536.6033	227.5092
536.7645	227.0306
536.9258	218.6613
537.087	216.46
537.2482	227.4987
537.4094	227.9824
537.5706	240.0551
537.7318	243.2968
537.8929	239.3945
538.0541	241.9425
538.2153	234.0242
538.3764	234.6011
538.5376	239.0909
538.6987	240.9109
538.8599	238.5267
539.021	239.6682
539.1821	222.4735
539.3432	228.2469
539.5043	231.3417
539.6655	230.4038
539.8265	228.1255
539.9876	231.9422
540.1487	231.6597
540.3098	226.4105
540.4708	214.7264
540.6319	218.9171
540.793	221.5704
540.954	221.8724
541.1151	225.2649
541.2761	231.8981
541.4371	235.9345
541.5981	232.0954
541.7592	234.4818
541.9202	237.8662
542.0812	236.8646
542.2422	236.5539
542.4031	233.5326
542.5641	234.7434
542.7251	225.3027
542.886	229.864
543.0471	227.083
543.208	221.7946
543.369	223.9501
543.5298	227.8674
543.6908	230.9061
543.8517	241.8869
544.0126	238.4118
544.1736	239.7968
544.3345	235.7779
544.4954	230.6122
544.6563	223.3288
544.8171	221.5123
544.978	231.4871
545.1389	242.0382
545.2997	233.8105
545.4606	234.0497
545.6215	236.8603
545.7823	235.6935
545.9432	238.2704
546.104	237.6447
546.2648	239.1823
546.4256	237.7026
546.5864	233.7202
546.7473	241.4572
546.908	240.7891
547.0688	244.7747
547.2296	248.0259
547.3904	244.1463
547.5511	235.6834
547.7119	233.5028
547.8727	230.6918
548.0334	230.4838
548.1942	232.1991
548.3549	232.6542
548.5156	235.2543
548.6763	234.5185
548.837	235.6424
548.9977	244.3476
549.1584	245.5553
549.3192	246.0715
549.4798	249.5894
549.6405	239.3763
549.8011	240.8611
549.9619	241.6232
550.1225	244.9777
550.2831	239.6729
550.4438	237.318
550.6044	234.9289
550.765	239.0151
550.9257	239.0309
551.0863	240.9159
551.2469	244.9993
551.4075	240.2494
551.5681	233.0538
551.7287	237.8242
551.8893	241.4392
552.0498	249.9858
552.2104	247.5073
552.371	245.3412
552.5315	240.0018
552.6921	240.1921
552.8526	224.6305
553.0131	224.5028
553.1736	239.78
553.3342	238.7792
553.4947	233.0453
553.6552	244.0139
553.8157	241.5251
553.9762	238.6234
554.1367	244.024
554.2971	240.5363
554.4576	236.603
554.618	235.6604
554.7785	239.4105
554.939	244.5291
555.0994	239.2781
555.2598	240.3871
555.4203	242.9428
555.5807	239.7314
555.7411	240.6965
555.9015	241.3489
556.0619	238.8435
556.2223	234.7985
556.3827	228.5202
556.5431	228.5458
556.7034	236.9589
556.8638	231.9993
557.0242	233.1342
557.1845	230.7924
557.3448	226.5746
557.5052	233.5867
557.6655	235.1972
557.8259	227.7573
557.9861	223.5437
558.1465	227.7531
558.3068	234.9994
558.467	218.6721
558.6274	220.1805
558.7877	213.8466
558.9479	215.3522
559.1082	216.0387
559.2684	221.9268
559.4287	218.4974
559.5889	222.7427
559.7491	225.5758
559.9094	213.7492
560.0696	222.4244
560.2299	219.6402
560.3901	213.6767
560.5502	220.5322
560.7104	230.1587
560.8707	233.6491
561.0308	227.809
561.191	219.1227
561.3511	217.993
561.5114	207.9495
561.6714	209.7855
561.8316	213.9579
561.9918	220.9478
562.1519	217.1012
562.312	213.4301
562.4722	216.1331
562.6323	219.8489
562.7924	220.326
562.9525	223.9694
563.1125	227.8227
563.2726	216.1294
563.4327	208.4691
563.5928	214.4251
563.7528	212.9845
563.9129	211.9953
564.0729	209.5315
564.233	208.0209
564.393	211.8301
564.553	212.3337
564.7131	211.4924
564.873	213.2872
565.0331	212.8317
565.1931	211.6191
565.353	210.3659
565.5131	211.9573
565.673	203.4382
565.833	192.5375
565.9929	192.7659
566.1529	202.117
566.3129	200.4682
566.4728	200.8299
566.6328	205.9231
566.7927	199.6597
566.9526	206.7191
567.1125	211.4189
567.2724	211.2336
567.4323	201.1692
567.5922	200.8745
567.7521	206.3692
567.9119	201.8763
568.0718	201.2939
568.2317	198.2472
568.3915	200.4904
568.5514	194.691
568.7112	196.7337
568.871	199.8938
569.0309	196.3491
569.1907	191.8004
569.3505	193.4409
569.5103	205.5282
569.6701	201.4978
569.8299	200.6416
569.9897	193.0474
570.1495	188.7001
570.3092	194.8254
570.469	192.9931
570.6287	185.0272
570.7885	186.1233
570.9482	182.5789
571.108	176.8097
571.2677	184.0478
571.4274	185.2715
571.5871	189.033
571.7468	182.2136
571.9066	186.3258
572.0662	184.17
572.2259	186.3743
572.3856	184.3269
572.5452	190.0608
572.7049	198.3443
572.8646	190.7031
573.0242	188.5199
573.1838	186.2247
573.3435	192.1398
573.5031	185.8102
573.6627	188.9698
573.8223	194.5151
573.9819	192.2236
574.1415	193.5576
574.3011	191.8523
574.4607	191.9728
574.6203	188.0735
574.7798	189.0662
574.9394	185.8612
575.099	186.1449
575.2585	180.4192
575.418	173.8301
575.5776	176.0114
575.7371	184.2726
575.8966	182.467
576.0562	179.9827
576.2156	177.1982
576.3751	178.8491
576.5346	180.4663
576.6941	180.8826
576.8536	177.2385
577.0131	178.2831
577.1725	177.0385
577.332	179.9324
577.4914	177.5023
577.6508	181.8405
577.8103	172.1185
577.9697	176.5939
578.1291	179.2251
578.2885	171.9635
578.4479	165.5101
578.6073	169.6725
578.7667	175.1427
578.9261	177.9696
579.0854	174.0566
579.2448	166.0649
579.4042	169.3228
579.5635	171.3242
579.7229	170.6771
579.8822	173.4388
580.0416	175.4801
580.2009	177.3029
580.3602	166.9801
580.5195	166.3315
580.6788	165.5665
580.8381	162.5142
580.9974	169.7937
581.1566	168.996
581.3159	164.3917
581.4752	172.8881
581.6345	170.386
581.7937	163.7283
581.9529	165.5319
582.1122	162.8398
582.2714	160.8229
582.4306	169.1555
582.5898	166.768
582.749	170.4969
582.9082	166.5699
583.0674	168.4969
583.2266	161.9474
583.3857	162.1957
583.5449	157.7769
583.7041	164.0895
583.8633	166.2567
584.0224	156.655
584.1815	156.1794
584.3407	150.4988
584.4998	157.9696
584.6589	157.3804
584.818	156.409
584.9771	152.0839
585.1362	157.1329
585.2953	162.6201
585.4544	154.0331
585.6135	151.5783
585.7725	151.9517
585.9316	153.4774
586.0906	156.3293
586.2497	154.197
586.4087	151.8001
586.5677	157.0859
586.7267	153.457
586.8858	150.6981
587.0448	154.7485
587.2038	152.5138
587.3628	153.2632
587.5218	153.1289
587.6807	151.7677
587.8397	155.1802
587.9987	159.1098
588.1577	157.549
588.3166	153.4604
588.4755	146.4075
588.6345	146.4431
588.7934	140.7066
588.9523	130.4511
589.1112	136.9147
589.2701	137.4197
589.429	127.4075
589.5879	134.4902
589.7468	139.486
589.9056	142.1222
590.0645	142.3967
590.2234	146.6707
590.3822	140.667
590.5411	140.9999
590.6999	148.039
590.8588	141.9607
591.0176	131.7621
591.1764	139.5833
591.3352	137.205
591.494	137.5461
591.6528	137.4189
591.8116	139.4801
591.9703	136.2753
592.1291	140.9267
592.2878	137.7724
592.4467	136.9285
592.6053	140.8175
592.7641	140.3784
592.9229	140.3501
593.0816	139.1113
593.2403	139.3429
593.399	142.888
593.5577	140.1136
593.7164	137.2961
593.8751	139.099
594.0338	144.4722
594.1924	140.7258
594.3511	146.2833
594.5098	148.6609
594.6684	139.8429
594.8271	134.2324
594.9857	135.4647
595.1443	135.1853
595.303	141.9608
595.4615	145.2817
595.6202	139.2915
595.7787	141.709
595.9374	145.8072
596.0959	143.075
596.2545	137.1455
596.4131	139.7778
596.5717	138.6039
596.7302	140.4409
596.8887	140.1353
597.0473	137.858
597.2058	139.9023
597.3644	135.9944
597.5229	137.3571
597.6814	142.8481
597.8399	138.9461
597.9984	145.6746
598.1569	143.6628
598.3154	142.2591
598.4738	138.4854
598.6323	139.0979
598.7908	145.2179
598.9492	142.7798
599.1076	137.5358
599.2661	136.665
599.4245	138.1772
599.5829	145.3149
599.7413	144.4959
599.8997	140.5443
600.0581	139.3824
600.2165	136.2872
600.3749	138.981
600.5333	135.9505
600.6917	143.6304
600.85	132.1516
601.0084	133.2339
601.1667	139.4903
601.325	132.9414
601.4833	135.5105
601.6417	141.0435
601.8	134.8362
601.9583	138.33
602.1166	135.2568
602.2749	133.1504
602.4332	135.033
602.5914	134.8587
602.7498	137.0501
602.908	136.0875
603.0662	140.446
603.2245	139.1335
603.3828	140.9579
603.541	146.3932
603.6992	132.5259
603.8574	131.2514
604.0156	134.98
604.1738	138.5423
604.332	132.3202
604.4902	133.6433
604.6484	130.6066
604.8065	131.7334
604.9647	132.3316
605.1229	131.7207
605.281	131.5127
605.4391	131.8696
605.5973	131.1131
605.7554	131.9969
605.9135	142.2499
606.0717	134.2915
606.2297	129.3101
606.3878	135.1463
606.5459	129.6738
606.704	129.0715
606.8621	130.9683
607.0201	130.037
607.1782	130.1465
607.3362	128.7929
607.4943	128.0508
607.6523	134.5886
607.8104	134.5479
607.9684	129.7967
608.1264	125.1188
608.2844	131.2331
608.4424	131.62
608.6003	129.804
608.7584	128.387
608.9163	129.8678
609.0743	124.5385
609.2322	126.2869
609.3902	129.5236
609.5482	128.5065
609.7061	127.5519
609.864	133.7269
610.0219	133.6248
610.1798	124.8806
610.3377	126.1508
610.4956	123.1007
610.6535	126.0394
610.8114	118.1289
610.9693	122.6754
611.1271	124.6173
611.285	124.6787
611.4429	125.7044
611.6007	123.2226
611.7585	117.6997
611.9164	121.561
612.0742	118.4767
612.232	119.4577
612.3898	118.8657
612.5476	126.2172
612.7054	124.0798
612.8632	124.1789
613.0209	123.9377
613.1787	127.109
613.3365	133.1985
613.4942	128.0033
613.652	116.5779
613.8097	119.9725
613.9674	120.039
614.1252	117.0235
614.2829	119.4048
614.4406	125.7387
614.5983	122.3861
614.756	120.597
614.9136	118.9492
615.0714	117.427
615.229	115.1856
615.3867	112.655
615.5443	115.0731
615.702	111.3356
615.8596	118.5456
616.0172	112.8039
616.1748	113.9561
616.3325	114.0834
616.4901	110.8908
616.6476	116.0802
616.8052	113.3997
616.9628	114.2685
617.1204	115.5158
617.278	114.8446
617.4355	112.782
617.5931	117.6005
617.7506	123.7529
617.9081	119.0402
618.0657	116.2131
618.2232	111.2151
618.3807	112.1487
618.5382	108.5693
618.6957	113.8323
618.8532	112.6506
619.0107	117.3284
619.1682	110.2525
619.3256	106.6904
619.4831	108.5019
619.6406	111.5048
619.798	112.0687
619.9554	114.5672
620.1129	114.6918
620.2703	114.9072
620.4277	110.8935
620.5851	118.8204
620.7425	115.9224
620.8998	112.3792
621.0573	110.4236
621.2146	119.0422
621.372	113.0492
621.5294	115.2806
621.6867	113.2409
621.8441	117.6084
622.0013	112.145
622.1587	111.4348
622.316	115.7769
622.4733	116.3998
622.6306	109.7852
622.7879	111.6981
622.9452	108.3132
623.1025	113.2376
623.2598	107.1469
623.4171	107.9239
623.5743	112.4747
623.7316	107.9973
623.8888	105.9481
624.046	107.249
624.2032	107.703
624.3605	107.8056
624.5176	106.275
624.6749	107.1485
624.8321	109.2207
624.9893	108.8996
625.1464	105.2858
625.3036	107.6849
625.4608	108.4212
625.6179	103.9602
625.7751	103.783
625.9322	106.2341
626.0894	111.1005
626.2465	104.5822
626.4036	109.0906
626.5607	110.6401
626.7178	111.9531
626.8749	108.8194
627.032	111.232
627.189	107.5026
627.3461	108.8313
627.5032	101.5248
627.6602	106.8895
627.8173	105.5737
627.9743	95.62453
628.1313	102.6868
628.2884	104.6736
628.4454	104.2126
628.6024	102.3958
628.7594	104.7786
628.9164	107.0504
629.0734	106.9116
629.2303	103.1663
629.3873	98.6839
629.5443	101.8206
629.7012	103.8774
629.8582	104.6859
630.0151	106.4622
630.172	101.5483
630.3289	105.2626
630.4858	103.3518
630.6428	105.9579
630.7996	108.5683
630.9565	102.8287
631.1134	101.9857
631.2703	99.23869
631.4272	106.0986
631.584	97.42944
631.7408	98.80849
631.8977	99.71973
632.0546	106.3825
632.2114	104.3895
632.3682	104.1342
632.525	101.3852
632.6818	104.571
632.8386	108.3718
632.9954	100.6761
633.1522	102.7493
633.3089	98.69801
633.4657	101.0008
633.6224	99.04963
633.7792	95.0013
633.9359	100.3443
634.0927	102.9597
634.2494	99.37077
634.4061	103.0356
634.5628	99.3748
634.7195	97.96216
634.8762	103.9028
635.0329	101.9353
635.1895	103.6895
635.3462	107.5257
635.5029	104.3759
635.6595	103.3419
635.8162	100.0227
635.9728	104.117
636.1295	105.6245
636.2861	103.9366
636.4427	94.59377
636.5992	101.2976
636.7559	101.1419
636.9124	104.0725
637.069	100.6606
637.2256	101.3665
637.3821	96.02203
637.5387	92.39418
637.6953	100.518
637.8518	102.7411
638.0084	100.2195
638.1649	97.25517
638.3214	94.17598
638.4779	96.97281
638.6344	96.05454
638.7909	100.7934
638.9474	100.1262
639.1038	99.77551
639.2603	101.4136
639.4167	98.27696
639.5732	96.01946
639.7297	93.93954
639.8861	94.96237
640.0425	91.79684
640.199	93.06269
640.3553	98.50457
640.5118	97.61595
640.6682	97.60124
640.8245	96.05137
640.981	94.12747
641.1373	95.84741
641.2936	91.96732
641.45	89.94045
641.6064	91.44189
641.7627	94.6642
641.9191	93.08065
642.0754	89.23276
642.2317	93.63757
642.388	93.82977
642.5443	92.23801
642.7006	96.28158
642.8569	95.44498
643.0131	92.62796
643.1694	92.16581
643.3257	93.84796
643.4819	93.24857
643.6382	89.93027
643.7944	87.066
643.9506	88.85532
644.1069	89.9834
644.2631	87.18687
644.4193	86.59203
644.5754	94.83561
644.7316	89.07676
644.8878	91.90984
645.044	85.65693
645.2002	84.57035
645.3563	89.1373
645.5125	90.87907
645.6686	88.27433
645.8248	83.47916
645.9809	84.09222
646.137	86.09003
646.2931	80.00542
646.4492	80.32525
646.6053	82.31049
646.7614	82.14892
646.9174	87.94359
647.0735	80.54589
647.2296	82.76066
647.3856	82.95753
647.5417	86.20824
647.6977	85.25676
647.8537	89.20403
648.0098	85.42006
648.1658	80.10101
648.3218	82.29854
648.4777	79.092
648.6337	85.0392
648.7897	85.74521
648.9457	82.23502
649.1016	86.76167
649.2576	85.60794
649.4135	81.93261
649.5695	84.5646
649.7254	77.5197
649.8813	73.78047
650.0372	78.48538
650.1932	83.42628
650.3491	85.10969
650.5049	82.91283
650.6608	78.93549
650.8167	79.25738
650.9725	83.51884
651.1284	79.65156
651.2842	74.45415
651.4401	77.3828
651.5959	78.79511
651.7518	75.13921
651.9076	79.46967
652.0634	83.89254
652.2192	83.26152
652.3749	76.05296
652.5308	76.80235
652.6865	78.81845
652.8423	78.82175
652.998	80.35089
653.1538	78.16267
653.3096	77.2517
653.4653	84.85463
653.621	82.9818
653.7767	76.10635
653.9324	83.74267
654.0881	78.82104
654.2438	77.78651
654.3995	78.04884
654.5552	77.07934
654.7109	77.4903
654.8665	78.50339
655.0222	81.7541
655.1778	80.37273
655.3334	81.38831
655.4891	73.40691
655.6447	74.2228
655.8003	74.18411
655.9559	76.1316
656.1115	70.39217
656.2671	69.36075
656.4227	67.59865
656.5782	68.53418
656.7338	68.89541
656.8893	73.48113
657.0449	73.1029
657.2004	75.43103
657.356	75.69063
657.5115	74.54063
657.667	74.44404
657.8225	78.56338
657.978	75.04809
658.1335	69.95657
658.289	73.60436
658.4445	75.05131
658.5999	78.22884
658.7554	79.24484
658.9108	76.33352
659.0663	74.24786
659.2217	75.71141
659.3771	74.0948
659.5325	75.91737
659.6879	72.01366
659.8433	72.9921
659.9987	72.32499
660.1541	74.52299
660.3095	71.16959
660.4648	75.08512
660.6202	76.9399
660.7756	72.6414
660.9309	74.19345
661.0862	74.63866
661.2416	71.98219
661.3969	73.96098
661.5522	77.12811
661.7075	72.75938
661.8628	78.83646
662.0181	72.96726
662.1733	70.93697
662.3286	68.05586
662.4839	73.62999
662.6391	72.33168
662.7944	73.07352
662.9496	69.4517
663.1048	74.05113
663.26	71.55028
663.4152	73.5537
663.5704	77.5928
663.7256	69.18639
663.8808	71.05189
664.036	71.30264
664.1912	68.98953
664.3463	69.4688
664.5015	71.14558
664.6566	70.8789
664.8118	67.47138
664.9669	69.54029
665.122	74.95757
665.2771	73.47419
665.4322	73.01073
665.5873	71.27457
665.7424	69.20889
665.8975	72.56496
666.0526	66.39799
666.2076	65.03173
666.3627	66.72061
666.5177	67.06292
666.6727	71.30193
666.8278	65.55236
666.9828	66.27921
667.1378	69.14156
667.2928	69.2272
667.4478	68.81131
667.6028	69.40662
667.7578	68.23491
667.9127	69.89935
668.0677	64.60238
668.2226	66.0295
668.3776	63.80264
668.5325	68.94022
668.6874	67.50607
668.8423	64.68267
668.9973	65.60293
669.1522	67.99281
669.3071	65.16575
669.4619	60.49405
669.6168	68.50578
669.7717	64.78889
669.9265	66.75221
670.0814	73.44846
670.2362	68.51853
670.3911	61.37152
670.5459	66.23566
670.7007	66.34023
670.8555	63.74657
671.0103	62.05626
671.1651	62.64592
671.3199	64.32124
671.4747	63.98706
671.6295	68.38023
671.7842	61.53226
671.939	61.92409
672.0937	60.90601
672.2484	61.14775
672.4031	61.22725
672.5579	63.24669
672.7126	69.01311
672.8673	70.07788
673.022	69.28289
673.1767	61.11696
673.3314	63.60527
673.486	66.92089
673.6407	61.35643
673.7953	64.90157
673.95	64.9885
674.1046	60.27568
674.2592	62.58693
674.4138	60.29524
674.5684	66.9839
674.723	61.74569
674.8776	64.28217
675.0322	68.15514
675.1868	67.25484
675.3414	62.6955
675.4959	61.83615
675.6505	67.13049
675.805	68.3938
675.9595	64.65714
676.1141	61.43656
676.2686	64.57717
676.4231	63.39946
676.5776	65.54423
676.7321	64.21115
676.8866	63.74317
677.041	60.78201
677.1955	61.78215
677.35	59.18784
677.5044	61.58171
677.6589	60.58852
677.8133	61.53876
677.9677	61.82695
678.1221	56.06052
678.2766	57.97499
678.4309	61.36066
678.5853	65.1675
678.7397	64.64753
678.8941	61.28455
679.0485	69.62428
679.2028	61.95481
679.3571	64.84563
679.5115	59.35971
679.6658	63.68364
679.8201	60.23971
679.9744	63.66962
680.1288	61.90001
680.2831	64.10423
680.4373	65.1387
680.5916	62.38216
680.7459	59.18382
680.9001	61.46714
681.0544	65.48937
681.2087	61.97438
681.3629	58.31359
681.5171	64.74885
681.6713	64.69929
681.8256	63.08406
681.9797	60.73455
682.134	61.60366
682.2881	59.85524
682.4423	60.67535
682.5965	69.94365
682.7507	66.2454
682.9048	62.01474
683.059	60.96982
683.2131	56.72605
683.3672	60.13961
683.5213	60.08136
683.6754	61.13618
683.8295	62.05914
683.9836	56.37682
684.1377	58.0955
684.2918	58.06733
684.4459	57.17444
684.5999	58.73346
684.754	55.29188
684.908	59.84887
685.062	63.533
685.2161	62.93622
685.3701	62.32443
685.5241	59.04283
685.6781	60.66949
685.8321	66.25819
685.9861	62.80505
686.14	61.92586
686.294	61.65694
686.4479	57.51194
686.6019	58.06959
686.7559	61.4901
686.9098	48.59713
687.0637	53.1212
687.2176	54.59381
687.3715	54.92965
687.5254	53.59519
687.6793	52.32539
687.8332	54.49757
687.9871	60.18871
688.1409	62.46422
688.2947	60.02227
688.4486	60.82136
688.6024	61.16965
688.7563	61.39478
688.9101	64.50155
689.0639	61.43159
689.2177	59.20519
689.3715	59.27103
689.5253	57.4658
689.6791	61.65445
689.8328	59.99172
689.9866	67.76983
690.1403	63.59338
690.2941	60.49469
690.4478	61.31071
690.6015	61.97005
690.7552	59.34948
690.9089	65.25793
691.0626	61.96457
691.2164	62.5763
691.37	60.83832
691.5237	64.26456
691.6774	73.14412
691.831	64.84005
691.9847	64.41264
692.1383	67.15868
692.2919	63.28113
692.4456	57.8103
692.5992	62.46396
692.7527	63.36596
692.9064	62.55661
693.0599	64.83189
693.2136	63.6025
693.3671	64.63731
693.5207	68.37539
693.6742	65.66786
693.8278	70.74222
693.9813	71.57163
694.1348	70.20916
694.2883	72.3793
694.4418	68.94873
694.5953	71.68624
694.7488	69.27563
694.9023	68.87592
695.0558	63.25083
695.2093	72.70314
695.3627	72.80444
695.5162	76.88388
695.6696	75.07588
695.8231	68.95333
695.9764	71.74352
696.1299	73.39261
696.2833	73.40447
696.4367	76.88922
696.5901	77.65753
696.7435	81.34229
696.8968	84.95775
697.0502	75.74016
697.2036	81.12013
697.3569	87.91036
697.5102	79.37262
697.6635	74.12652
697.8168	82.70987
697.9702	80.07708
698.1235	79.28326
698.2768	81.18507
698.4301	85.19451
698.5833	80.86486
698.7366	80.55925
698.8898	85.85753
699.0431	81.2895
699.1964	82.01138
699.3495	80.22047
699.5028	81.39024
699.656	84.92573
699.8092	86.67147
699.9624	81.64269
700.1156	77.76555
700.2688	81.60353
700.4219	82.69878
700.5751	81.88197
700.7283	81.89448
700.8814	85.25543
701.0345	91.2491
701.1877	89.04671
701.3408	88.94139
701.4939	86.00967
701.647	86.76749
701.8001	88.95118
701.9532	88.34818
702.1063	93.8566
702.2593	88.09315
702.4124	85.22218
702.5654	89.18686
702.7184	91.63256
702.8715	94.20147
703.0245	98.84746
703.1776	94.78197
703.3305	97.93841
703.4835	100.4094
703.6365	95.20766
703.7895	91.18483
703.9424	91.79122
704.0954	94.81571
704.2484	99.35305
704.4013	102.2257
704.5543	98.78725
704.7072	102.4483
704.8601	102.8705
705.013	102.3151
705.1659	101.0841
705.3188	94.30312
705.4717	101.0103
705.6246	97.5246
705.7774	99.75958
705.9303	100.2173
706.0831	105.6731
706.236	105.4664
706.3888	102.4053
706.5416	107.4336
706.6944	110.9329
706.8472	109.822
707	107.7657
707.1528	105.0264
707.3056	102.0483
707.4583	106.7084
707.6111	114.256
707.7639	111.8353
707.9166	106.1472
708.0693	106.7083
708.222	108.8647
708.3748	105.1144
708.5275	108.8512
708.6802	111.8712
708.8328	103.7977
708.9855	113.8475
709.1382	110.6729
709.2909	110.3266
709.4435	112.3243
709.5962	114.306
709.7488	118.6503
709.9014	118.902
710.054	114.9166
710.2067	117.649
710.3593	117.7593
710.5118	116.0656
710.6644	115.1149
710.817	115.0736
710.9695	115.6388
711.1221	116.5331
711.2747	115.9495
711.4272	120.3952
711.5797	123.5606
711.7322	123.3311
711.8848	117.4291
712.0373	121.8409
712.1898	120.6706
712.3422	125.6855
712.4948	127.2813
712.6472	118.4162
712.7996	114.7555
712.9521	117.7718
713.1046	118.4206
713.257	118.9598
713.4094	119.4722
713.5618	120.8825
713.7142	124.0803
713.8666	124.94
714.019	129.0578
714.1714	126.9529
714.3237	122.5388
714.4761	124.1818
714.6285	127.2615
714.7808	123.9829
714.9331	126.5608
715.0854	123.8596
715.2378	124.022
715.3901	123.132
715.5424	127.4777
715.6947	122.9344
715.8469	129.6291
715.9992	127.3151
716.1515	121.4983
716.3037	128.5698
716.456	120.7561
716.6082	116.5162
716.7604	111.5497
716.9127	113.2179
717.0649	118.9051
717.2171	109.5431
717.3693	109.4139
717.5214	111.9115
717.6736	119.6155
717.8258	112.8907
717.978	113.0678
718.1301	117.2903
718.2822	117.7489
718.4344	114.4942
718.5865	102.153
718.7386	103.5182
718.8907	112.2527
719.0428	110.7037
719.1949	109.4213
719.3469	110.9553
719.499	113.4083
719.6511	118.3346
719.8031	120.1149
719.9551	112.9778
720.1072	111.344
720.2592	109.6217
720.4112	106.1314
720.5632	111.0026
720.7152	118.1909
720.8672	118.9114
721.0192	133.3243
721.1711	133.6917
721.3231	132.5983
721.475	140.3415
721.627	136.8328
721.7789	138.2141
721.9308	135.2042
722.0828	140.2594
722.2347	137.0447
722.3866	133.5845
722.5385	133.3781
722.6903	133.6089
722.8422	143.572
722.9941	139.7352
723.1459	127.5189
723.2977	120.2096
723.4496	112.4976
723.6014	118.6679
723.7532	122.3731
723.905	126.5857
724.0568	127.3102
724.2086	126.6165
724.3604	123.8406
724.5121	128.79
724.6639	131.4573
724.8157	129.4712
724.9674	142.3504
725.1191	131.3126
725.2709	122.7009
725.4226	124.8238
725.5743	133.1082
725.726	135.6446
725.8777	140.618
726.0294	137.2306
726.181	134.3476
726.3327	131.4768
726.4844	131.1787
726.636	138.347
726.7877	138.912
726.9393	144.293
727.0909	146.2068
727.2425	144.3216
727.3941	139.2104
727.5457	135.0142
727.6973	128.0744
727.8488	126.3159
728.0004	136.6293
728.1519	142.2937
728.3035	140.4198
728.455	144.5787
728.6066	153.028
728.7581	147.6765
728.9095	138.6325
729.0611	130.7042
729.2126	133.4975
729.364	135.7369
729.5155	144.9512
729.667	152.1717
729.8184	150.2805
729.9698	146.7222
730.1213	143.281
730.2727	142.3708
730.4241	149.5958
730.5756	155.1019
730.7269	150.7267
730.8784	154.1066
731.0297	149.565
731.1811	148.0565
731.3325	151.3972
731.4838	149.4907
731.6351	154.4946
731.7865	155.5323
731.9378	157.2182
732.0891	159.9037
732.2404	166.4436
732.3917	172.5924
732.543	163.8435
732.6943	162.9813
732.8456	162.329
732.9968	165.356
733.1481	171.2056
733.2993	166.9102
733.4506	168.9692
733.6018	170.4825
733.753	172.8796
733.9042	173.5317
734.0554	177.3439
734.2066	180.0416
734.3578	176.1593
734.509	168.9065
734.6602	175.5288
734.8113	174.6353
734.9624	172.6598
735.1136	165.8112
735.2647	171.7328
735.4158	168.6981
735.5669	164.8914
735.718	167.2978
735.8691	166.3172
736.0201	169.3555
736.1713	175.8098
736.3223	169.5097
736.4733	167.0379
736.6244	168.5826
736.7755	173.5658
736.9265	180.0935
737.0775	182.4374
737.2285	180.8655
737.3795	180.484
737.5305	185.0824
737.6815	181.64
737.8324	180.9027
737.9834	184.6632
738.1343	181.7555
738.2853	181.8184
738.4362	181.0336
738.5871	176.2775
738.738	170.5063
738.8889	172.858
739.0399	174.8829
739.1907	175.5832
739.3416	177.2339
739.4925	175.6164
739.6433	177.4628
739.7942	176.5506
739.945	178.0998
740.0958	181.4692
740.2467	180.3056
740.3975	184.2601
740.5483	186.6886
740.6991	179.2147
740.8499	178.8678
741.0007	179.3518
741.1514	176.1144
741.3022	172.9621
741.4529	180.5238
741.6036	183.232
741.7544	179.5017
741.9051	183.6357
742.0558	186.1191
742.2065	190.3484
742.3572	187.133
742.5079	185.6432
742.6586	174.3849
742.8093	187.706
742.9599	181.2716
743.1105	180.5858
743.2612	186.8183
743.4118	185.1742
743.5624	190.6988
743.7131	180.2211
743.8636	186.1607
744.0142	189.8669
744.1648	191.2983
744.3154	188.6701
744.4659	180.0054
744.6165	184.0237
744.767	176.2852
744.9176	183.2825
745.0681	184.0641
745.2186	182.974
745.3691	184.8512
745.5197	187.348
745.6702	186.1556
745.8206	187.738
745.9711	188.0027
746.1215	178.0774
746.272	181.2895
746.4224	186.7192
746.5729	185.0026
746.7233	183.6636
746.8737	187.4401
747.0241	185.7757
747.1745	182.4548
747.3249	182.8128
747.4753	178.8564
747.6257	182.0078
747.776	180.3868
747.9264	185.5471
748.0767	185.0308
748.2271	187.2316
748.3774	180.8473
748.5276	177.7384
748.678	182.895
748.8282	185.4065
748.9786	179.6198
749.1288	181.8568
749.2791	182.3562
749.4294	178.3295
749.5796	179.1168
749.7299	185.1591
749.8801	191.2445
750.0303	183.1781
750.1805	176.6012
750.3307	177.2977
750.4809	179.2165
750.6311	185.3031
750.7813	177.0531
750.9314	175.9566
751.0816	174.5082
751.2318	171.0946
751.3818	173.9259
751.532	174.281
751.6821	174.8192
751.8322	176.7679
751.9823	183.2767
752.1324	173.6331
752.2825	175.8905
752.4326	173.2377
752.5826	175.7952
752.7327	177.8255
752.8827	176.97
753.0327	176.0452
753.1827	169.0614
753.3328	165.2765
753.4828	168.8721
753.6328	171.5771
753.7828	178.6522
753.9327	182.3293
754.0827	181.2661
754.2327	176.807
754.3826	175.6253
754.5325	176.8696
754.6825	171.8177
754.8324	171.9696
754.9823	172.8244
755.1322	174.7667
755.2821	174.9028
755.432	166.9722
755.5818	164.459
755.7318	163.699
755.8816	157.571
756.0314	165.4814
756.1813	164.1052
756.3311	167.0636
756.4809	173.1446
756.6307	170.8676
756.7805	161.3188
756.9303	159.398
757.0801	168.1122
757.2299	169.9129
757.3796	166.688
757.5294	164.975
757.6791	168.3693
757.8289	168.6665
757.9786	171.4778
758.1283	159.5997
758.278	162.1207
758.4277	158.1773
758.5773	160.4835
758.7271	160.7835
758.8767	164.383
759.0264	153.4933
759.176	147.6705
759.3256	138.6884
759.4753	121.6155
759.6249	91.36721
759.7745	70.355
759.9241	61.21172
760.0737	56.74697
760.2233	53.82151
760.3729	39.28906
760.5224	32.83081
760.6719	42.28677
760.8215	48.84859
760.971	48.24675
761.1205	48.03653
761.2701	63.96517
761.4196	69.72987
761.5691	80.52103
761.7186	98.6752
761.868	110.1294
762.0175	118.631
762.167	100.1865
762.3164	91.41083
762.4659	82.23592
762.6153	82.45152
762.7647	79.50296
762.9141	73.43204
763.0635	70.15421
763.2129	78.23949
763.3623	76.95793
763.5117	80.78381
763.661	82.13891
763.8104	85.08534
763.9597	83.60687
764.1091	91.29066
764.2584	90.584
764.4077	94.26855
764.557	88.31099
764.7063	97.39317
764.8556	101.283
765.0049	102.8111
765.1541	107.9507
765.3034	115.4758
765.4526	112.0449
765.6019	108.5789
765.7511	113.8503
765.9003	114.0125
766.0496	112.8068
766.1987	113.1138
766.348	114.4967
766.4971	120.3693
766.6463	121.344
766.7955	117.5253
766.9446	124.3021
767.0938	127.2152
767.2429	129.6622
767.392	129.7118
767.5411	129.8768
767.6902	132.1058
767.8394	129.9305
767.9884	132.4797
768.1375	133.3508
768.2866	128.999
768.4356	135.9358
768.5847	136.9094
768.7337	130.801
768.8828	135.2325
769.0317	131.3811
769.1808	129.1913
769.3298	135.3
769.4788	138.3228
769.6277	138.1046
769.7767	131.7061
769.9257	133.5089
770.0746	136.0286
770.2236	138.0258
770.3725	136.0121
770.5214	133.4521
770.6703	138.3047
770.8193	143.0635
770.9681	136.3038
771.1171	133.6439
771.2659	132.3755
771.4148	131.6405
771.5637	131.3344
771.7125	133.8185
771.8613	134.4731
772.0101	131.3888
772.159	134.6708
772.3078	138.272
772.4566	132.9247
772.6054	133.7844
772.7542	131.1842
772.903	130.9186
773.0517	132.7295
773.2004	136.3431
773.3492	135.384
773.4979	139.3381
773.6467	127.066
773.7953	130.1153
773.944	137.1776
774.0928	127.8629
774.2415	123.9458
774.3901	129.6758
774.5388	129.4687
774.6874	131.3201
774.8361	126.0956
774.9847	126.2661
775.1334	123.9128
775.282	127.5743
775.4305	128.335
775.5792	126.7929
775.7277	132.5854
775.8763	132.4624
776.0249	129.3954
776.1735	128.7172
776.322	125.5903
776.4705	130.1483
776.6191	133.5286
776.7676	128.1069
776.9161	128.5262
777.0646	122.742
777.2131	125.4807
777.3616	123.185
777.5101	125.843
777.6585	125.2293
777.8069	127.073
777.9554	125.0713
778.1038	125.5604
778.2523	121.2391
778.4007	118.9137
778.5491	120.8735
778.6974	124.5055
778.8459	130.2815
778.9942	126.0986
779.1426	123.8645
779.291	125.7479
779.4393	125.7529
779.5876	126.424
779.736	117.9785
779.8843	126.9139
780.0326	122.3348
780.1809	115.1372
780.3292	118.4898
780.4775	130.6092
780.6257	131.8357
780.774	124.9874
780.9222	123.6224
781.0704	126.4385
781.2187	126.0231
781.3669	129.8584
781.5151	126.6702
781.6633	123.6035
781.8115	121.2473
781.9597	122.0225
782.1078	125.0169
782.256	128.8479
782.4042	130.3138
782.5523	125.1164
782.7004	117.6384
782.8486	118.7102
782.9967	116.6645
783.1448	114.766
783.2929	119.789
783.441	115.563
783.5891	120.0037
783.7371	121.0451
783.8851	118.5475
784.0332	115.4483
784.1812	118.2865
784.3293	116.8634
784.4773	113.9859
784.6253	118.7914
784.7733	119.8355
784.9213	116.4869
785.0692	110.8245
785.2172	118.3865
785.3652	117.6582
785.5131	117.8049
785.6611	121.3718
785.809	110.6292
785.9569	116.9738
786.1048	118.7311
786.2527	109.8611
786.4006	112.2224
786.5485	112.1727
786.6964	115.805
786.8442	119.0253
786.9921	110.9883
787.1399	110.9324
787.2877	111.2027
787.4355	112.4796
787.5833	115.7189
787.7311	111.3199
787.8789	114.3521
788.0267	113.0924
788.1745	108.8492
788.3223	105.1044
788.47	107.1352
788.6177	115.201
788.7654	110.0491
788.9132	108.4368
789.0609	109.3909
789.2086	108.501
789.3563	109.1993
789.504	107.445
789.6517	109.5523
789.7993	106.8222
789.947	109.8995
790.0946	109.7854
790.2422	104.1028
790.3898	106.5422
790.5375	113.7706
790.6851	104.0459
790.8326	107.1946
790.9802	113.181
791.1278	105.5066
791.2754	106.9805
791.423	109.3605
791.5705	108.3896
791.718	108.9075
791.8655	108.0673
792.0131	96.9872
792.1606	100.9974
792.308	104.717
792.4556	106.6192
792.603	99.92785
792.7505	102.407
792.8979	108.559
793.0454	108.7598
793.1928	102.908
793.3403	105.6281
793.4877	106.6242
793.6351	105.0255
793.7825	107.6569
793.9299	101.7236
794.0772	103.1269
794.2246	107.4273
794.3719	108.7199
794.5193	109.4911
794.6666	104.3487
794.814	99.94115
794.9613	102.4134
795.1086	102.5289
795.2559	103.2692
795.4032	101.7982
795.5505	109.1517
795.6978	101.13
795.845	103.3919
795.9922	98.36288
796.1395	95.1483
796.2867	95.88853
796.4339	100.7594
796.5811	102.0893
796.7283	100.4733
796.8755	106.3286
797.0227	102.2944
797.1699	100.1692
797.317	105.0867
797.4642	102.7944
797.6113	96.37628
797.7584	104.2606
797.9056	106.2535
798.0527	102.5567
798.1998	105.2933
798.3469	101.6543
798.494	97.79557
798.641	102.1218
798.7881	99.28231
798.9351	96.58121
799.0822	96.95667
799.2292	97.09618
799.3762	98.94576
799.5232	97.67422
799.6702	95.85445
799.8172	97.80203
799.9642	97.08465
800.1111	92.51398
800.2581	94.29788
800.4051	95.40964
800.552	99.19723
800.6989	101.1345
800.8458	99.63957
800.9927	100.5371
801.1396	91.01821
801.2866	92.88973
801.4334	95.73468
801.5803	100.5779
801.7272	95.09421
801.874	101.1842
802.0209	102.0945
802.1677	94.0616
802.3145	90.26956
802.4613	97.16066
802.6081	92.93552
802.7549	90.81289
802.9017	91.51927
803.0485	91.54585
803.1952	92.78622
803.342	90.0281
803.4887	90.99969
803.6354	91.70893
803.7822	92.61559
803.9289	92.1475
804.0756	96.25214
804.2223	96.33564
804.369	88.26817
804.5156	90.03067
804.6623	89.68385
804.8089	89.90337
804.9556	88.86378
805.1022	85.30355
805.2488	83.36736
805.3954	89.02104
805.542	90.61588
805.6886	89.85649
805.8352	91.17731
805.9818	92.59936
806.1283	88.936
806.2749	93.33178
806.4214	92.53513
806.5679	87.30057
806.7145	89.54801
806.861	86.41703
807.0074	84.5662
807.154	93.39355
807.3004	90.55311
807.4469	92.11324
807.5934	89.7742
807.7398	90.86269
807.8862	81.05253
808.0327	83.24474
808.1791	79.54279
808.3255	82.71703
808.4719	84.78267
808.6183	81.95251
808.7647	83.76547
808.9111	84.66171
809.0574	87.3329
809.2037	82.88516
809.3501	87.40419
809.4965	85.31104
809.6428	81.1828
809.7891	80.35535
809.9354	80.21951
810.0817	80.56995
810.2279	84.61697
810.3742	88.30363
810.5204	84.67064
810.6667	80.63636
810.8129	76.04248
810.9592	76.22003
811.1054	76.03398
811.2516	82.13776
811.3978	76.41418
811.5439	79.50298
811.6901	77.98916
811.8363	80.97556
811.9825	77.97621
812.1286	72.32279
812.2748	74.85752
812.4209	76.9811
812.567	77.04349
812.7131	74.85719
812.8592	76.09456
813.0053	76.94955
813.1514	74.60602
813.2974	74.48293
813.4435	69.10781
813.5895	74.17058
813.7356	68.79548
813.8816	70.10593
814.0276	67.01435
814.1736	67.29886
814.3196	67.84183
814.4656	70.81779
814.6116	70.54463
814.7576	63.79473
814.9035	63.25788
815.0494	61.65298
815.1954	64.61517
815.3413	69.26547
815.4872	68.82441
815.6331	62.63558
815.779	65.46957
815.9249	68.07996
816.0707	65.00303
816.2166	63.58279
816.3625	55.89917
816.5083	60.55585
816.6542	53.74248
816.8	63.4376
816.9458	58.67044
817.0916	60.04725
817.2374	64.75133
817.3832	62.30507
817.5289	64.87353
817.6747	60.74126
817.8204	57.02236
817.9662	51.56158
818.1119	55.34199
818.2576	57.0619
818.4034	59.46878
818.5491	63.60393
818.6948	63.61111
818.8405	59.27464
818.9861	61.40906
819.1318	64.35825
819.2774	62.24734
819.423	55.63952
819.5687	60.39275
819.7143	60.48007
819.8599	58.1582
820.0055	58.82895
820.1511	59.65591
820.2967	64.62659
820.4422	70.63152
820.5878	68.64474
820.7333	69.8962
820.8788	67.14554
821.0244	63.87003
821.1699	65.98239
821.3154	61.53001
821.4609	63.15417
821.6064	68.85365
821.7519	62.87098
821.8973	64.5351
822.0428	63.63574
822.1882	64.70038
822.3337	61.08056
822.4791	56.24874
822.6245	53.08613
822.7699	48.48267
822.9153	50.41066
823.0607	41.57626
823.2061	45.15687
823.3514	54.62941
823.4968	58.2169
823.6422	60.85785
823.7875	63.46146
823.9328	60.04242
824.0781	56.9474
824.2234	64.64262
824.3687	60.20469
824.514	54.79
824.6592	57.84782
824.8045	66.8264
824.9498	62.84863
825.095	64.02422
825.2402	66.79776
825.3854	63.42932
825.5306	60.4383
825.6758	54.09066
825.821	57.73831
825.9662	60.51041
826.1114	60.94844
826.2565	66.61235
826.4017	61.61449
826.5468	60.40504
826.692	63.74756
826.837	62.57301
826.9822	66.60348
827.1273	63.27983
827.2723	58.34423
827.4174	56.79634
827.5625	55.06678
827.7075	52.98874
827.8526	58.16861
827.9976	56.33013
828.1426	61.15057
828.2877	56.887
828.4327	57.91295
828.5776	61.36064
828.7227	56.56789
828.8676	56.83965
829.0126	53.71541
829.1575	53.99018
829.3024	54.25759
829.4474	53.61906
829.5923	55.6815
829.7372	54.88193
829.8821	58.60656
830.027	57.77055
830.1719	59.20512
830.3168	63.26564
830.4616	56.52015
830.6064	56.68091
830.7513	55.96774
830.8961	55.92142
831.041	57.79244
831.1857	60.29237
831.3306	59.65056
831.4753	58.13268
831.6201	65.30756
831.7649	60.49939
831.9096	55.08796
832.0544	54.67476
832.1991	54.67963
832.3438	54.24025
832.4885	57.91571
832.6332	57.24974
832.778	58.48138
832.9226	57.21132
833.0673	51.3661
833.2119	57.20356
833.3566	53.83032
833.5012	58.49608
833.6459	60.32795
833.7905	52.55079
833.9351	59.58423
834.0797	57.11111
834.2243	53.55889
834.3688	59.07324
834.5134	60.50885
834.658	63.57639
834.8026	55.94492
834.9471	55.41107
835.0916	58.67865
835.2361	59.74623
835.3806	61.33016
835.5251	60.85699
835.6696	59.95019
835.8141	57.65565
835.9586	57.81894
836.103	58.307
836.2474	55.4752
836.3918	59.97929
836.5363	57.30577
836.6807	54.14998
836.8251	51.19381
836.9695	58.97264
837.1138	59.18967
837.2582	60.79824
837.4026	62.25237
837.5469	59.07933
837.6913	59.07687
837.8356	53.78061
837.9799	55.02869
838.1242	61.62357
838.2686	59.70956
838.4128	54.3888
838.5571	56.7101
838.7014	58.78686
838.8456	58.11672
838.9899	51.28361
839.1341	54.07433
839.2783	58.19429
839.4225	58.64283
839.5667	59.36976
839.7109	61.56637
839.8551	60.71514
839.9993	59.04654
840.1434	55.75246
840.2876	53.84198
840.4317	51.81356
840.5759	54.64737
840.72	51.43658
840.8641	51.00468
841.0082	51.04925
841.1523	55.32769
841.2963	54.87745
841.4404	53.03487
841.5845	55.49427
841.7285	57.428
841.8726	56.06998
842.0165	53.90005
842.1606	50.7625
842.3046	54.21721
842.4485	55.43332
842.5925	55.81187
842.7365	53.28789
842.8805	56.8785
843.0244	56.27942
843.1684	56.47895
843.3123	57.32547
843.4562	55.35297
843.6002	54.12744
843.744	55.45798
843.8879	51.65268
844.0318	55.48362
844.1757	60.61673
844.3195	57.59498
844.4634	56.20956
844.6072	59.61823
844.751	54.24527
844.8948	49.05745
845.0386	54.14824
845.1824	52.39947
845.3262	54.16026
845.47	55.73743
845.6138	57.02098
845.7575	57.29249
845.9012	62.11014
846.045	54.90395
846.1887	48.83297
846.3324	53.64727
846.4761	55.11571
846.6198	54.46125
846.7635	53.78621
846.9071	53.07085
847.0508	54.20626
847.1944	54.07723
847.3381	54.05086
847.4817	56.15268
847.6253	54.32588
847.7689	57.2723
847.9125	52.62
848.0561	54.06327
848.1996	52.7822
848.3432	55.54313
848.4868	53.41532
848.6303	54.42958
848.7738	46.1225
848.9174	49.22241
849.0609	50.5716
849.2043	51.15038
849.3478	51.07594
849.4913	49.67622
849.6348	48.25708
849.7782	48.6885
849.9217	42.29499
850.0651	42.05148
850.2086	45.8564
850.3519	47.57236
850.4954	45.38179
850.6387	50.49599
850.7821	53.48761
850.9255	51.23124
851.0688	50.71564
851.2122	47.94453
851.3555	45.56291
851.4988	50.28453
851.6422	51.24525
851.7855	52.63858
851.9288	51.15887
852.0721	52.27849
852.2153	48.99033
852.3586	52.89719
852.5018	53.13506
852.6451	53.07009
852.7883	51.86375
852.9315	52.06324
853.0748	50.36125
853.218	50.7706
853.3611	51.64951
853.5043	52.92159
853.6475	48.87177
853.7906	48.31952
853.9338	42.01133
854.0769	44.69596
854.22	38.23706
854.3632	39.28841
854.5063	40.11552
854.6494	46.2945
854.7924	49.24513
854.9355	44.20617
855.0786	40.33796
855.2216	45.29576
855.3647	50.96753
855.5077	47.69247
855.6507	41.58958
855.7937	49.29576
855.9367	48.92873
856.0797	51.57117
856.2227	48.9472
856.3657	49.93633
856.5086	49.00941
856.6516	51.00278
856.7945	46.69315
856.9374	49.73055
857.0803	52.16928
857.2232	50.23953
857.3661	45.19068
857.509	49.68139
857.6519	51.0681
857.7947	51.63665
857.9376	48.49167
858.0804	45.74797
858.2232	49.96086
858.366	46.21051
858.5089	42.08487
858.6516	48.15508
858.7944	50.81049
858.9372	48.77561
859.08	49.53129
859.2227	40.57515
859.3654	44.7643
859.5082	44.31317
859.6509	45.04738
859.7936	47.8683
859.9363	46.99044
860.079	48.41702
860.2217	48.17041
860.3643	42.18573
860.507	44.15693
860.6496	48.00288
860.7922	50.21594
860.9349	47.01138
861.0775	43.66346
861.2201	44.68104
861.3627	41.86205
861.5052	41.17762
861.6478	45.69871
861.7904	49.11836
861.9329	43.12331
862.0755	46.03034
862.218	44.80941
862.3605	45.30274
862.503	49.2425
862.6455	45.52533
862.788	42.95924
862.9305	41.49563
863.0729	41.11401
863.2154	41.68954
863.3578	43.39876
863.5002	42.81355
863.6426	43.77398
863.7851	44.97892
863.9275	41.43776
864.0698	43.23737
864.2122	39.43766
864.3546	44.27057
864.4969	48.18122
864.6393	47.60809
864.7816	37.39622
864.924	40.512
865.0662	43.30147
865.2086	44.52631
865.3508	43.27425
865.4931	45.34509
865.6354	41.79963
865.7776	37.93879
865.9199	36.35945
866.0621	36.39434
866.2043	32.16581
866.3466	31.5594
866.4888	30.81248
866.6309	40.1384
866.7731	37.57229
866.9153	40.15676
867.0574	37.71737
867.1996	38.95481
867.3417	37.1097
867.4839	41.64661
867.626	44.25505
867.7681	40.44991
867.9102	39.93059
868.0522	42.51817
868.1943	42.60881
868.3364	43.33189
868.4785	44.61014
868.6205	40.61236
868.7625	39.29872
868.9045	38.38276
869.0465	34.51311
869.1885	44.01649
869.3305	44.92432
869.4725	41.44506
869.6144	37.29467
869.7564	35.36978
869.8983	33.3783
870.0403	39.75669
870.1822	32.22646
870.3241	39.6105
870.466	42.58829
870.6079	38.37379
870.7498	41.26283
870.8916	45.18996
871.0335	36.07504
871.1754	36.8223
871.3171	37.06948
871.459	38.02333
871.6008	38.43571
871.7426	35.94305
871.8844	34.64019
872.0262	33.70993
872.1679	38.70373
872.3097	40.91241
872.4514	41.38282
872.5931	37.01777
872.7349	31.51489
872.8766	35.31178
873.0183	40.06638
873.16	36.32016
873.3017	40.84038
873.4434	37.3505
873.585	40.8805
873.7266	32.86689
873.8683	31.54254
874.0099	36.73743
874.1516	37.64897
874.2932	32.86975
874.4348	36.4254
874.5763	38.76293
874.7179	38.75624
874.8594	43.63958
875.001	36.32832
875.1425	39.17249
875.2841	35.38943
875.4256	38.01701
875.5671	33.67461
875.7086	38.87536
875.85	41.02993
875.9915	34.12996
876.133	33.04619
876.2744	35.51246
876.4159	41.18216
876.5573	35.57156
876.6987	36.68324
876.8401	41.18388
876.9815	39.91143
877.1229	35.91124
877.2643	34.2923
877.4056	34.84134
877.547	36.1108
877.6884	37.43832
877.8297	36.63497
877.971	35.72968
878.1123	38.06637
878.2536	39.36806
878.3949	36.43808
878.5362	33.25251
878.6774	35.4846
878.8187	36.35974
878.9599	33.25747
879.1011	32.70135
879.2424	36.6026
879.3836	36.253
879.5248	32.61916
879.666	38.06727
879.8071	35.94478
879.9483	35.91095
880.0895	30.8839
880.2306	33.33723
880.3718	29.43281
880.5129	31.54584
880.654	32.95732
880.7951	35.29783
880.9362	37.27731
881.0773	33.43536
881.2183	35.15001
881.3594	26.78904
881.5004	31.97572
881.6414	35.15753
881.7825	35.64728
881.9235	36.50346
882.0645	34.83352
882.2054	34.01006
882.3464	35.63451
882.4874	38.30835
882.6284	33.55935
882.7693	35.28209
882.9103	34.26035
883.0512	30.89196
883.1921	36.94911
883.333	33.44854
883.4739	33.76032
883.6147	33.1658
883.7556	34.95905
883.8965	31.98964
884.0374	33.42045
884.1782	35.26344
884.319	35.25011
884.4598	34.36443
884.6006	34.37376
884.7414	32.2385
884.8822	33.50594
885.0229	33.77165
885.1637	30.06762
885.3044	34.10925
885.4452	38.67284
885.5859	34.65225
885.7266	30.57035
885.8673	30.96762
886.008	28.98195
886.1487	33.18502
886.2894	31.28116
886.43	35.43799
886.5707	31.79297
886.7113	29.02979
886.8519	32.19841
886.9926	29.99149
887.1331	34.06565
887.2737	34.46107
887.4143	35.07664
887.5549	34.13932
887.6954	35.05212
887.836	31.2956
887.9765	34.02907
888.1171	31.28456
888.2576	27.47354
888.3981	28.82617
888.5386	28.6314
888.679	33.03941
888.8195	33.22038
888.96	31.62573
889.1004	27.55428
889.2408	32.16633
889.3813	31.47438
889.5217	32.66175
889.6621	28.63428
889.8025	30.80636
889.9429	32.9533
890.0833	30.18161
890.2236	30.29422
890.364	31.28294
890.5043	31.10517
890.6446	29.46471
890.7849	31.6684
890.9252	32.45992
891.0655	28.35845
891.2058	30.59765
891.3461	33.52472
891.4863	34.40125
891.6266	28.17741
891.7668	29.85379
891.907	30.06427
892.0472	30.92648
892.1874	34.85833
892.3276	35.21881
892.4678	28.44011
892.608	28.67466
892.7481	27.63412
892.8883	23.67436
893.0284	26.78662
893.1685	34.53085
893.3087	31.24985
893.4487	23.5268
893.5889	30.09511
893.7289	29.88427
893.869	32.06124
894.009	28.44602
894.1491	26.4466
894.2891	26.95046
894.4291	23.22551
894.5692	26.46036
894.7092	35.94525
894.8491	31.12772
894.9891	23.5721
895.1291	24.76921
895.269	23.37091
895.409	28.71534
895.549	26.87849
895.6888	25.76662
895.8288	29.69018
895.9687	27.83763
896.1086	23.69868
896.2484	19.89403
896.3883	23.85491
896.5281	21.0711
896.668	23.09008
896.8079	29.96808
896.9476	25.74358
897.0875	26.94264
897.2272	25.83359
897.3671	26.03481
897.5068	22.70905
897.6466	19.53664
897.7864	22.65018
897.9261	22.66619
898.0658	22.70277
898.2056	24.52915
898.3453	26.00597
898.4849	23.30906
898.6246	22.99598
898.7643	22.4666
898.904	18.14251
899.0436	19.45105
899.1833	21.9044
899.3229	18.75289
899.4625	25.42584
899.6021	26.18639
899.7417	27.11062
899.8813	26.1016
900.0209	24.01988
900.1605	24.03962
900.3	22.42355
900.4395	16.40124
900.579	19.16438
900.7186	20.5085
900.8581	19.66441
900.9976	20.13096
901.1371	21.07338
901.2766	18.7901
901.416	21.62861
901.5555	22.9848
901.6949	21.96781
901.8344	21.67671
901.9738	24.22978
902.1132	24.22347
902.2526	18.89078
902.3919	19.11312
902.5313	26.7393
902.6707	22.85652
