SPECTRUM DATA FILE
SpectrumCount:	1
PixelCount:	3648
UserName:	ToughBook User
SampleName:	
LightSource:	
Comments:	
DeviceName:	Qwave
DeviceManufacturer:	Broadcom
DeviceSerialNo:	11311

Name:	last spectrum
Date:	2024-05-02T14:52:36.1349994+02:00
ExposureTime:	0.02
TemporalAvg:	1
IntensityUnit:	normalizedCounts
CCDLoadLevel:	0.05622346
Temperature:	33.14276
DiagramColor:	200
ProcessingSteps:	335

Wavelength [nm]	Intensity1
334.421	5.111073
334.5891	2.855451
334.7573	5.235332
334.9254	6.901837
335.0935	11.12785
335.2616	8.417695
335.4297	9.95041
335.5978	8.586035
335.7659	5.838069
335.934	6.468656
336.1021	4.007877
336.2701	1.423569
336.4382	7.353451
336.6063	3.906106
336.7744	7.952629
336.9424	10.67592
337.1105	9.221067
337.2785	9.52686
337.4466	4.437086
337.6146	8.97582
337.7827	8.126653
337.9507	7.009076
338.1187	3.351677
338.2867	5.804677
338.4548	4.441551
338.6228	5.587302
338.7908	11.53275
338.9588	4.810548
339.1268	13.58798
339.2948	10.23502
339.4628	6.920691
339.6308	6.336227
339.7988	6.955729
339.9667	3.515639
340.1347	10.60372
340.3027	8.191509
340.4707	12.26284
340.6386	7.255583
340.8066	6.823789
340.9745	7.472457
341.1425	5.970959
341.3104	7.315748
341.4784	9.433994
341.6463	10.80464
341.8142	6.994947
341.9821	9.700069
342.1501	8.0762
342.318	7.422349
342.4859	6.983442
342.6538	2.75123
342.8217	10.52055
342.9896	8.045264
343.1575	5.035686
343.3254	4.279983
343.4933	6.269862
343.6612	8.155928
343.829	12.03903
343.9969	7.988207
344.1648	8.908804
344.3326	7.217398
344.5005	6.663182
344.6683	7.73832
344.8362	4.789183
345.004	3.32599
345.1719	7.821166
345.3397	6.637126
345.5075	9.507767
345.6754	10.04313
345.8432	6.537999
346.011	8.937136
346.1788	5.308982
346.3466	8.401442
346.5144	6.922742
346.6822	8.895642
346.85	7.176344
347.0178	13.32747
347.1856	7.603456
347.3534	6.941031
347.5211	6.111761
347.6889	8.293672
347.8567	10.37155
348.0244	6.38887
348.1922	5.716407
348.3599	6.582381
348.5277	8.336724
348.6954	8.411344
348.8632	5.815691
349.0309	9.635895
349.1986	8.18282
349.3663	6.625514
349.5341	10.85703
349.7018	6.193093
349.8695	8.716666
350.0372	7.238785
350.2049	5.775787
350.3726	6.65108
350.5403	8.448028
350.7079	6.009068
350.8756	8.026575
351.0433	11.25418
351.211	9.762029
351.3786	9.892506
351.5463	9.035279
351.714	12.50398
351.8816	1.081605
352.0493	4.154542
352.2169	7.819098
352.3846	8.781822
352.5522	3.417271
352.7198	7.347835
352.8875	7.140533
353.0551	8.722986
353.2227	9.765084
353.3903	11.29099
353.5579	4.477072
353.7255	2.063332
353.8931	6.254973
354.0607	7.758107
354.2283	10.88286
354.3958	10.35358
354.5634	8.495527
354.731	7.080115
354.8986	6.457607
355.0661	8.335355
355.2337	6.746816
355.4012	14.5912
355.5688	11.2308
355.7363	11.40781
355.9039	7.944677
356.0714	9.039152
356.239	8.401856
356.4065	7.374884
356.574	9.483552
356.7415	7.665662
356.909	12.40823
357.0765	7.699905
357.244	8.331005
357.4115	4.09704
357.579	7.534814
357.7465	11.37424
357.914	10.06591
358.0815	7.595714
358.249	9.50615
358.4164	9.198261
358.5839	7.34522
358.7513	7.582192
358.9188	11.13028
359.0862	6.783245
359.2537	5.919042
359.4211	12.30841
359.5886	8.005466
359.756	10.17976
359.9234	10.08622
360.0909	10.29931
360.2583	8.88948
360.4257	9.554717
360.5931	6.117765
360.7605	7.391234
360.9279	12.75721
361.0953	13.09789
361.2627	7.829658
361.4301	5.353957
361.5974	7.829179
361.7648	11.96964
361.9322	9.766865
362.0995	7.966783
362.2669	6.693844
362.4343	9.169649
362.6016	8.652115
362.769	12.9124
362.9363	12.49604
363.1036	11.89828
363.271	5.442763
363.4383	10.76241
363.6056	10.01574
363.7729	10.28691
363.9402	10.619
364.1075	6.372272
364.2748	10.35446
364.4421	9.539145
364.6094	9.225317
364.7767	9.380536
364.944	13.17639
365.1113	13.92484
365.2786	14.77012
365.4458	12.57977
365.6131	7.823647
365.7803	17.0857
365.9476	11.00585
366.1148	9.743958
366.2821	9.016117
366.4493	9.31919
366.6166	10.2248
366.7838	9.666222
366.951	11.34089
367.1182	14.83317
367.2855	9.792161
367.4527	8.704511
367.6199	8.351489
367.7871	7.27587
367.9543	9.495771
368.1215	10.32105
368.2886	10.8819
368.4558	13.08488
368.623	9.080737
368.7902	10.35944
368.9573	7.599518
369.1245	7.971365
369.2917	7.340231
369.4588	8.250905
369.6259	11.56652
369.7931	12.89348
369.9602	11.33077
370.1274	13.23764
370.2945	12.40842
370.4616	7.904157
370.6287	11.52948
370.7958	11.24989
370.963	11.09941
371.1301	10.35074
371.2971	8.470938
371.4643	13.7427
371.6313	11.4643
371.7984	9.690511
371.9655	10.22795
372.1326	10.85583
372.2997	13.62353
372.4667	13.44198
372.6338	12.5724
372.8008	14.66824
372.9679	12.9894
373.1349	11.94094
373.3019	12.4827
373.469	13.45228
373.636	17.25064
373.803	12.09206
373.9701	12.6159
374.1371	13.80132
374.3041	12.55079
374.4711	12.96563
374.6381	7.953887
374.8051	2.88887
374.9721	8.081463
375.1391	11.47717
375.3061	11.63039
375.473	14.57584
375.64	14.21255
375.8069	14.14582
375.9739	11.90487
376.1409	13.77545
376.3078	10.60163
376.4748	14.50077
376.6417	11.70433
376.8087	11.55021
376.9756	14.45156
377.1425	13.69147
377.3094	14.26865
377.4763	14.51747
377.6432	9.073913
377.8102	8.705848
377.9771	11.33545
378.144	12.78011
378.3109	11.45742
378.4777	15.68043
378.6446	13.39378
378.8115	11.39302
378.9784	14.99971
379.1452	10.25274
379.3121	13.62757
379.4789	13.85334
379.6458	12.44837
379.8127	13.09172
379.9795	14.14493
380.1463	14.00064
380.3131	11.83687
380.48	14.48893
380.6468	16.12051
380.8136	15.87641
380.9804	10.07434
381.1472	17.37258
381.314	9.893112
381.4808	6.559257
381.6476	9.726376
381.8144	8.819126
381.9812	14.59694
382.148	9.911261
382.3147	9.252631
382.4815	9.894644
382.6483	10.17645
382.815	11.03082
382.9818	10.23048
383.1485	7.626794
383.3153	7.766534
383.482	8.283637
383.6487	8.026298
383.8155	11.46833
383.9822	10.03673
384.1489	11.49678
384.3156	8.396394
384.4823	11.61759
384.649	15.88633
384.8157	13.07554
384.9824	13.68316
385.1491	12.372
385.3158	17.16063
385.4825	19.62447
385.6491	17.75307
385.8158	12.18963
385.9825	15.99025
386.1491	13.71486
386.3157	12.15826
386.4824	10.23943
386.649	13.42189
386.8157	12.51675
386.9823	11.26165
387.1489	11.99175
387.3156	10.82901
387.4821	15.60753
387.6488	17.39296
387.8154	10.55759
387.982	12.22162
388.1486	8.298845
388.3152	16.11559
388.4818	18.4672
388.6483	10.82633
388.8149	11.89183
388.9815	12.00553
389.148	14.40685
389.3146	12.66428
389.4811	15.26807
389.6477	13.45073
389.8142	17.29619
389.9808	15.36315
390.1473	14.16448
390.3138	18.14147
390.4804	13.81387
390.6469	10.12552
390.8134	12.93307
390.9799	18.39635
391.1464	17.16163
391.3129	18.93723
391.4794	22.3558
391.6459	17.81286
391.8124	13.6187
391.9789	13.79979
392.1453	13.79225
392.3118	16.16531
392.4782	18.42692
392.6447	16.80715
392.8112	13.17085
392.9776	12.13566
393.144	13.48554
393.3105	12.21898
393.4769	8.271738
393.6433	13.88312
393.8098	14.43344
393.9762	15.91208
394.1426	18.90466
394.309	12.79301
394.4754	15.78681
394.6418	17.36427
394.8082	17.58159
394.9746	20.94945
395.141	19.25064
395.3073	19.35501
395.4737	22.1025
395.64	19.80382
395.8064	19.6685
395.9728	22.51944
396.1391	15.4194
396.3055	15.43293
396.4718	12.58924
396.6381	13.37464
396.8045	14.6665
396.9708	16.4691
397.1371	11.41044
397.3034	19.70268
397.4697	18.90095
397.636	18.05438
397.8023	20.57217
397.9686	20.46974
398.1349	19.84938
398.3012	23.01303
398.4675	20.81573
398.6337	20.48062
398.8	26.07745
398.9662	23.64497
399.1325	21.91841
399.2988	20.71678
399.465	22.0714
399.6313	21.9654
399.7975	22.43759
399.9637	21.89602
400.1299	23.33384
400.2961	23.48748
400.4624	22.32805
400.6286	24.59153
400.7948	20.74002
400.961	22.67018
401.1272	26.57876
401.2934	23.454
401.4595	23.36997
401.6257	19.06973
401.7919	22.68711
401.9581	25.07439
402.1242	27.33626
402.2904	30.60948
402.4565	24.6258
402.6227	22.02301
402.7888	23.10313
402.955	25.00631
403.1211	23.02616
403.2872	26.18534
403.4533	24.21131
403.6194	23.86961
403.7856	28.28091
403.9517	30.40462
404.1177	27.74239
404.2838	24.27256
404.4499	23.93672
404.616	24.87741
404.7821	25.18232
404.9482	22.95902
405.1142	27.99372
405.2803	24.9391
405.4464	21.81724
405.6124	25.20794
405.7784	25.15249
405.9445	21.96984
406.1105	24.71985
406.2766	23.35121
406.4426	25.96101
406.6086	22.66751
406.7746	24.13181
406.9406	23.3629
407.1066	27.95604
407.2726	26.95009
407.4386	27.14774
407.6046	27.15001
407.7706	27.38916
407.9366	22.81465
408.1025	27.6854
408.2685	29.20859
408.4344	30.87172
408.6004	27.7679
408.7664	30.8926
408.9323	26.63806
409.0983	31.47187
409.2642	34.34858
409.4301	34.1815
409.596	28.40519
409.762	28.06944
409.9279	27.9466
410.0938	23.04103
410.2597	23.01225
410.4256	30.47354
410.5915	32.85289
410.7574	37.55141
410.9232	36.45331
411.0891	30.2784
411.255	34.27818
411.4209	37.61556
411.5867	36.22797
411.7526	36.21992
411.9184	31.43728
412.0843	32.70664
412.2501	30.62717
412.4159	31.28984
412.5818	29.44058
412.7476	35.22886
412.9134	35.95994
413.0792	34.40199
413.245	30.72648
413.4108	34.67702
413.5766	39.1636
413.7424	40.68166
413.9082	41.37025
414.074	40.09105
414.2397	35.37149
414.4055	32.46579
414.5713	35.03948
414.737	32.68309
414.9028	34.35399
415.0685	35.66246
415.2343	36.59161
415.4	33.38839
415.5658	33.22415
415.7315	34.98961
415.8972	34.09441
416.0629	31.33268
416.2286	38.30228
416.3943	36.34079
416.56	33.29033
416.7257	33.6392
416.8914	34.36015
417.0571	35.54361
417.2228	35.56735
417.3884	35.21358
417.5541	33.94892
417.7198	35.36136
417.8854	38.78628
418.0511	33.07232
418.2167	34.35628
418.3824	39.40882
418.548	39.88768
418.7136	38.13829
418.8792	37.83162
419.0449	40.63989
419.2105	42.1706
419.3761	35.24211
419.5417	37.13156
419.7073	34.2791
419.8729	35.36132
420.0385	39.10628
420.204	38.57763
420.3696	39.86222
420.5352	40.61087
420.7007	46.71351
420.8663	42.12606
421.0319	37.51705
421.1974	37.43672
421.3629	39.20376
421.5285	41.82886
421.694	39.53706
421.8595	38.90274
422.0251	40.67833
422.1906	42.17744
422.3561	41.2376
422.5216	38.65223
422.6871	35.36606
422.8526	37.59964
423.0181	40.11943
423.1835	42.07338
423.349	41.12215
423.5145	35.53665
423.68	44.8959
423.8454	45.48403
424.0109	43.64306
424.1763	45.53392
424.3418	43.72368
424.5072	41.89598
424.6726	44.76109
424.838	42.38552
425.0035	41.88864
425.1689	40.18188
425.3343	42.04041
425.4997	40.3296
425.6651	40.90479
425.8305	42.37265
425.9959	39.91742
426.1613	45.56921
426.3267	47.55667
426.492	47.82744
426.6574	45.86215
426.8228	48.43961
426.9881	41.13216
427.1534	40.99841
427.3188	41.15764
427.4841	41.48486
427.6495	47.5325
427.8148	46.28512
427.9801	44.55954
428.1454	44.29568
428.3107	47.58041
428.476	45.61534
428.6414	39.30742
428.8066	40.88657
428.9719	37.06062
429.1372	42.94467
429.3025	41.92153
429.4678	45.94083
429.633	46.63869
429.7983	38.40979
429.9636	31.12735
430.1288	38.13525
430.294	40.15028
430.4593	39.77705
430.6245	34.49905
430.7897	31.89982
430.955	35.39516
431.1202	33.42752
431.2854	39.09435
431.4506	47.93348
431.6158	53.73448
431.781	55.68902
431.9462	57.96531
432.1114	50.25656
432.2766	49.88507
432.4417	46.2739
432.6069	42.1631
432.772	44.20759
432.9372	50.47888
433.1024	50.04427
433.2675	53.37336
433.4326	54.83535
433.5977	52.52605
433.7629	49.65465
433.928	43.0215
434.0931	39.57343
434.2582	43.85476
434.4233	47.36989
434.5884	51.0712
434.7535	55.10717
434.9186	52.82051
435.0837	51.57493
435.2488	51.60032
435.4138	46.19508
435.5789	51.90057
435.744	50.18675
435.909	54.06606
436.0741	53.95446
436.2391	57.00479
436.4042	57.59599
436.5692	57.50716
436.7342	57.4388
436.8992	58.04722
437.0643	58.60608
437.2293	54.80802
437.3943	58.68491
437.5593	53.75601
437.7243	55.62519
437.8893	56.85794
438.0542	59.91396
438.2192	49.7649
438.3842	46.47515
438.5491	48.41405
438.7141	50.33271
438.8791	48.40707
439.044	56.2169
439.209	56.87812
439.3739	53.09977
439.5388	55.86687
439.7037	64.01577
439.8687	60.23318
440.0336	59.95332
440.1985	55.94636
440.3634	59.30754
440.5283	51.6228
440.6932	54.33513
440.8581	59.26871
441.0229	55.48864
441.1878	60.16146
441.3527	64.18868
441.5175	57.29803
441.6824	57.38003
441.8472	56.95592
442.0121	61.5972
442.1769	65.00682
442.3418	59.71112
442.5066	61.60051
442.6714	64.44227
442.8362	66.68812
443.001	64.78162
443.1659	64.3997
443.3307	61.5595
443.4955	62.45742
443.6602	54.95625
443.825	67.99152
443.9898	67.28109
444.1546	68.56212
444.3193	62.32175
444.4841	65.00199
444.6488	67.16924
444.8136	64.86818
444.9783	62.44462
445.1431	68.02366
445.3078	63.61669
445.4725	66.95448
445.6372	63.73309
445.802	57.67406
445.9667	61.78981
446.1314	63.4669
446.2961	65.31851
446.4608	65.59472
446.6255	68.14162
446.7901	65.51804
446.9548	66.61415
447.1195	66.25078
447.2841	71.88065
447.4488	67.62383
447.6134	70.77875
447.7781	71.28526
447.9427	68.12666
448.1074	70.06312
448.272	71.28571
448.4366	67.57472
448.6012	74.1521
448.7658	70.18153
448.9305	75.14777
449.095	73.00616
449.2596	74.87135
449.4242	70.04972
449.5888	69.99834
449.7534	73.60882
449.9179	72.51146
450.0825	72.12728
450.2471	70.39318
450.4116	80.38076
450.5762	81.71222
450.7407	82.77533
450.9052	79.0607
451.0698	78.60921
451.2343	73.61383
451.3988	78.68349
451.5633	79.4826
451.7278	75.54056
451.8923	78.94769
452.0568	80.60835
452.2213	73.88686
452.3858	78.273
452.5503	73.12845
452.7148	68.77647
452.8792	68.3534
453.0437	75.26865
453.2081	76.2463
453.3726	74.65828
453.537	76.53289
453.7015	78.08211
453.8659	77.54843
454.0303	75.57685
454.1947	78.75457
454.3592	78.7311
454.5236	76.47149
454.688	78.92569
454.8524	78.40096
455.0168	78.00042
455.1811	75.20006
455.3455	81.45695
455.5099	79.92316
455.6743	76.81695
455.8386	77.78551
456.003	84.34051
456.1673	80.50365
456.3317	82.84496
456.496	84.41674
456.6603	79.50732
456.8246	77.64259
456.989	79.10188
457.1533	88.76146
457.3176	89.78556
457.4819	87.95848
457.6462	83.16841
457.8105	86.30807
457.9748	78.87148
458.1391	83.50936
458.3033	76.16029
458.4676	71.27647
458.6319	83.6597
458.7961	81.98263
458.9604	79.60997
459.1246	81.07178
459.2888	80.4536
459.4531	87.43593
459.6173	87.32523
459.7815	83.76373
459.9457	77.76167
460.11	76.20621
460.2741	76.28436
460.4384	81.93233
460.6025	84.17367
460.7667	90.29559
460.9309	88.52097
461.0951	84.2317
461.2592	81.16856
461.4234	80.40127
461.5876	83.36208
461.7517	83.52803
461.9159	81.37444
462.08	87.71121
462.2441	85.31916
462.4082	82.86833
462.5724	88.9876
462.7365	90.51905
462.9006	84.56795
463.0647	87.24342
463.2288	86.70309
463.3929	83.03624
463.557	85.40036
463.721	83.16309
463.8851	83.39249
464.0492	84.77555
464.2132	80.8689
464.3773	85.02163
464.5414	84.19407
464.7054	79.98093
464.8694	84.11411
465.0334	86.38909
465.1975	83.73432
465.3615	84.34657
465.5255	87.48451
465.6895	93.03463
465.8535	89.45963
466.0175	87.72152
466.1815	91.91944
466.3455	86.49163
466.5095	80.10151
466.6734	81.5043
466.8374	79.79053
467.0014	83.46227
467.1653	88.99963
467.3293	90.30231
467.4932	88.51933
467.6571	84.849
467.8211	85.69254
467.985	84.55051
468.1489	87.23526
468.3128	81.63381
468.4767	84.08211
468.6406	87.16257
468.8045	86.20453
468.9684	90.60966
469.1323	91.04612
469.2962	85.85751
469.46	87.98905
469.6239	89.33788
469.7878	92.39485
469.9516	88.39826
470.1154	85.37537
470.2793	81.45411
470.4431	83.2963
470.607	89.45012
470.7708	90.42107
470.9346	89.86341
471.0984	83.11311
471.2622	86.82336
471.426	92.21343
471.5898	94.47144
471.7536	91.93203
471.9174	96.65533
472.0811	93.4047
472.2449	95.31203
472.4087	93.53186
472.5724	101.3754
472.7362	87.17943
472.8999	87.56631
473.0637	89.92409
473.2274	89.71758
473.3911	95.38554
473.5548	89.39365
473.7185	91.7304
473.8822	95.95103
474.0459	94.72749
474.2096	86.77591
474.3733	90.63972
474.537	100.9992
474.7007	95.55686
474.8643	94.34821
475.028	95.35066
475.1917	101.3092
475.3553	95.63223
475.519	90.47853
475.6826	86.27988
475.8463	92.03456
476.0099	91.6919
476.1735	86.67318
476.3371	85.82571
476.5007	90.42648
476.6643	90.92535
476.8279	94.19382
476.9915	92.88419
477.1551	92.78744
477.3187	93.82658
477.4823	94.86658
477.6458	92.92291
477.8094	95.44379
477.9729	98.46156
478.1365	105.4531
478.3	98.42954
478.4636	93.97488
478.6271	92.75552
478.7906	90.91204
478.9541	89.76604
479.1176	94.16885
479.2812	94.61144
479.4447	94.01991
479.6082	91.89355
479.7716	96.29771
479.9351	94.49073
480.0986	89.21926
480.2621	94.49114
480.4255	92.96745
480.589	89.96803
480.7524	90.21275
480.9159	91.04384
481.0793	89.15384
481.2428	89.27761
481.4062	94.28333
481.5696	101.548
481.733	101.4339
481.8964	97.72041
482.0598	97.58511
482.2232	96.79565
482.3866	94.13764
482.55	95.19917
482.7134	97.27897
482.8768	95.38641
483.0401	99.33397
483.2035	95.47116
483.3668	92.11504
483.5302	94.08717
483.6935	91.99815
483.8568	95.84409
484.0202	93.80177
484.1835	92.61417
484.3468	90.74365
484.5101	97.76467
484.6734	96.04889
484.8367	95.14236
485	97.76273
485.1633	97.38461
485.3266	95.57545
485.4899	90.71358
485.6531	86.59729
485.8164	90.444
485.9796	78.40411
486.1429	74.02025
486.3061	79.46091
486.4694	84.51826
486.6326	86.18004
486.7958	92.5459
486.959	91.02822
487.1223	86.64693
487.2855	86.37218
487.4486	93.82352
487.6118	93.83993
487.775	95.51292
487.9382	97.13155
488.1014	99.9132
488.2646	99.03058
488.4277	98.40675
488.5909	97.56462
488.754	92.60371
488.9171	91.22146
489.0803	86.78946
489.2434	89.83512
489.4066	96.22074
489.5697	105.353
489.7328	107.8988
489.8959	106.5506
490.059	101.982
490.2221	100.5998
490.3852	98.94846
490.5482	100.1523
490.7113	101.6036
490.8744	101.4628
491.0374	92.92355
491.2005	93.14036
491.3636	95.48397
491.5266	99.21072
491.6896	94.78586
491.8527	92.48896
492.0157	88.87141
492.1787	91.92284
492.3417	101.9657
492.5047	101.6543
492.6677	100.7105
492.8307	106.4533
492.9937	96.96396
493.1567	92.53661
493.3196	97.90359
493.4826	95.04215
493.6456	93.96257
493.8085	97.71373
493.9715	99.70183
494.1344	96.26291
494.2974	104.1087
494.4603	107.7732
494.6232	104.3134
494.7861	109.6997
494.949	110.8559
495.1119	108.6441
495.2748	107.6928
495.4377	109.0986
495.6006	98.6469
495.7635	103.0522
495.9264	102.3448
496.0892	110.7519
496.2521	105.1288
496.4149	112.5339
496.5778	104.7368
496.7407	104.2157
496.9035	102.6037
497.0663	107.0156
497.2291	107.2765
497.3919	115.3055
497.5547	109.7119
497.7176	112.6308
497.8804	105.6131
498.0432	105.3138
498.2059	99.51906
498.3687	97.38856
498.5315	101.2635
498.6942	106.6608
498.857	109.9289
499.0198	106.1001
499.1825	107.7344
499.3452	108.8066
499.508	105.6231
499.6707	102.7419
499.8334	107.8607
499.9962	104.7183
500.1589	113.6541
500.3216	105.8344
500.4843	103.3128
500.6469	105.1264
500.8096	111.0908
500.9723	117.706
501.135	111.2116
501.2976	102.9304
501.4603	102.03
501.623	100.1735
501.7856	108.106
501.9482	106.1853
502.1109	106.2619
502.2735	113.6963
502.4361	118.3021
502.5987	114.9843
502.7614	106.8471
502.924	109.958
503.0865	114.9403
503.2491	118.9806
503.4117	117.6567
503.5743	116.448
503.7368	115.8406
503.8994	112.7961
504.062	111.3762
504.2245	111.8902
504.3871	113.6747
504.5496	120.1351
504.7121	125.1796
504.8746	120.5119
505.0372	116.8435
505.1997	120.4468
505.3622	125.4288
505.5247	131.084
505.6872	125.0763
505.8497	125.9864
506.0121	131.3511
506.1746	134.0174
506.3371	128.1301
506.4995	122.4325
506.662	123.8065
506.8244	121.1279
506.9869	121.5955
507.1493	127.7576
507.3117	132.3026
507.4742	126.8167
507.6366	132.8297
507.799	125.5121
507.9614	129.2381
508.1238	123.0638
508.2862	119.4439
508.4485	129.5312
508.6109	128.3059
508.7733	131.9977
508.9357	135.347
509.098	135.6433
509.2604	131.9826
509.4227	137.1569
509.5851	137.4126
509.7474	133.3928
509.9097	132.2287
510.072	133.2325
510.2343	139.1923
510.3966	135.5545
510.5589	134.5108
510.7212	132.5508
510.8835	134.0246
511.0458	140.9034
511.2081	141.7583
511.3703	141.1904
511.5326	143.1097
511.6949	142.9904
511.8571	150.3312
512.0193	146.656
512.1816	138.2439
512.3438	135.3976
512.506	139.8015
512.6682	136.8986
512.8304	139.9921
512.9926	144.4746
513.1548	148.3693
513.317	146.6584
513.4792	141.7568
513.6414	141.5387
513.8035	140.9584
513.9657	140.0777
514.1279	141.0813
514.29	141.7749
514.4521	150.5693
514.6143	144.1367
514.7764	147.7266
514.9385	150.3287
515.1006	153.3325
515.2628	150.1869
515.4249	145.7838
515.587	150.729
515.7491	150.4664
515.9111	162.2026
516.0732	169.6166
516.2353	163.3832
516.3973	151.3879
516.5594	143.4796
516.7214	140.3927
516.8835	138.4698
517.0455	130.7019
517.2076	130.2543
517.3696	133.5911
517.5316	144.3259
517.6937	161.7938
517.8557	163.9682
518.0176	160.4826
518.1796	144.0863
518.3416	134.2675
518.5036	134.6698
518.6656	145.1764
518.8275	159.3648
518.9895	159.5487
519.1514	161.622
519.3134	162.5797
519.4753	168.8262
519.6373	162.1065
519.7992	170.8279
519.9611	174.1358
520.123	174.5924
520.2849	177.0776
520.4468	173.8907
520.6087	170.7605
520.7706	160.1211
520.9325	171.2848
521.0944	182.9727
521.2562	182.6476
521.4181	178.3917
521.58	180.5112
521.7418	177.253
521.9036	187.3602
522.0655	189.118
522.2273	193.3403
522.3891	192.8397
522.551	185.0962
522.7128	183.7978
522.8746	182.3728
523.0363	184.5919
523.1981	190.1964
523.3599	200.526
523.5217	190.9578
523.6835	197.0308
523.8452	199.2752
524.007	204.5596
524.1687	210.2056
524.3304	210.1446
524.4922	202.7578
524.6539	212.221
524.8157	211.4555
524.9774	208.6759
525.1391	206.7926
525.3008	202.0716
525.4625	206.8655
525.6241	214.5847
525.7858	226.446
525.9475	223.4515
526.1092	210.9205
526.2709	204.7059
526.4325	201.0823
526.5942	192.4301
526.7558	191.9853
526.9174	194.7683
527.079	201.5073
527.2407	206.0783
527.4023	210.6416
527.5639	214.5592
527.7255	215.638
527.8871	227.6576
528.0487	219.7778
528.2103	216.5648
528.3718	215.0901
528.5334	220.0835
528.695	227.0466
528.8565	237.9606
529.0181	238.376
529.1796	238.2175
529.3412	240.3283
529.5027	238.6564
529.6642	232.1331
529.8257	229.9237
529.9872	221.4102
530.1487	222.5377
530.3102	233.5148
530.4717	243.0077
530.6332	246.4756
530.7947	250.3851
530.9562	245.5608
531.1176	246.3017
531.2791	249.0601
531.4405	233.5472
531.6019	241.0812
531.7634	248.7081
531.9248	240.606
532.0862	244.8054
532.2477	240.6443
532.4091	235.4152
532.5704	234.1049
532.7319	217.3753
532.8932	229.1891
533.0546	234.7059
533.216	240.0265
533.3774	241.6253
533.5388	247.2125
533.7001	243.9849
533.8615	239.5858
534.0228	231.7908
534.1841	231.8539
534.3455	233.1639
534.5068	230.3866
534.6681	239.6403
534.8293	238.4637
534.9907	240.0491
535.152	247.8337
535.3132	248.8312
535.4745	251.7348
535.6358	260.5937
535.7971	255.7455
535.9583	255.8581
536.1196	249.9754
536.2808	240.8184
536.4421	246.726
536.6033	249.5693
536.7645	243.5667
536.9258	233.9668
537.087	237.1326
537.2482	231.6911
537.4094	240.6798
537.5706	252.9784
537.7318	251.3711
537.8929	252.2216
538.0541	250.1396
538.2153	240.9412
538.3764	246.2631
538.5376	248.2599
538.6987	251.3906
538.8599	248.2134
539.021	246.9671
539.1821	242.7571
539.3432	236.6147
539.5043	234.2727
539.6655	236.0044
539.8265	242.9437
539.9876	243.579
540.1487	239.1138
540.3098	238.4964
540.4708	227.1546
540.6319	223.9993
540.793	231.6168
540.954	233.7736
541.1151	232.5603
541.2761	239.1469
541.4371	242.47
541.5981	232.5737
541.7592	247.567
541.9202	249.4098
542.0812	247.575
542.2422	246.2392
542.4031	241.0586
542.5641	244.5225
542.7251	243.1209
542.886	247.7161
543.0471	235.5613
543.208	231.3064
543.369	232.0305
543.5298	236.1433
543.6908	237.4948
543.8517	247.0519
544.0126	251.3654
544.1736	249.8838
544.3345	250.9519
544.4954	247.528
544.6563	236.6969
544.8171	242.353
544.978	252.4271
545.1389	247.5459
545.2997	246.406
545.4606	243.2752
545.6215	243.9339
545.7823	252.0469
545.9432	253.7129
546.104	251.421
546.2648	245.535
546.4256	242.1281
546.5864	243.4963
546.7473	248.1006
546.908	259.5775
547.0688	262.74
547.2296	257.1177
547.3904	252.5184
547.5511	241.6473
547.7119	245.4045
547.8727	247.3302
548.0334	244.1237
548.1942	253.3111
548.3549	248.4388
548.5156	251.2397
548.6763	256.0636
548.837	254.7462
548.9977	257.646
549.1584	253.3068
549.3192	252.2161
549.4798	258.3986
549.6405	253.8365
549.8011	254.0088
549.9619	253.1519
550.1225	250.669
550.2831	247.7021
550.4438	253.6596
550.6044	252.1489
550.765	249.362
550.9257	255.3228
551.0863	252.2139
551.2469	250.4873
551.4075	251.9191
551.5681	258.4391
551.7287	259.169
551.8893	251.7697
552.0498	255.5464
552.2104	261.6878
552.371	259.2577
552.5315	261.5315
552.6921	257.4359
552.8526	243.8496
553.0131	246.1059
553.1736	255.4104
553.3342	255.5
553.4947	254.6055
553.6552	252.1383
553.8157	253.867
553.9762	249.5156
554.1367	247.1604
554.2971	249.9473
554.4576	257.7354
554.618	255.8523
554.7785	264.006
554.939	262.352
555.0994	249.6294
555.2598	256.8782
555.4203	250.5592
555.5807	251.8748
555.7411	248.2558
555.9015	253.0748
556.0619	251.5745
556.2223	246.6558
556.3827	250.5999
556.5431	239.7641
556.7034	239.4175
556.8638	237.4554
557.0242	243.502
557.1845	247.8687
557.3448	235.9626
557.5052	241.321
557.6655	241.598
557.8259	249.5836
557.9861	252.8763
558.1465	241.3146
558.3068	241.8081
558.467	236.0949
558.6274	221.602
558.7877	215.228
558.9479	216.7328
559.1082	220.4098
559.2684	226.7439
559.4287	229.4409
559.5889	231.2634
559.7491	231.8255
559.9094	224.8126
560.0696	225.8067
560.2299	234.9121
560.3901	229.1944
560.5502	233.0984
560.7104	231.7148
560.8707	233.5182
561.0308	237.3132
561.191	242.3804
561.3511	235.9356
561.5114	225.3229
561.6714	221.0671
561.8316	218.5525
561.9918	230.5808
562.1519	226.1997
562.312	227.5733
562.4722	235.5104
562.6323	226.5686
562.7924	226.9329
562.9525	236.7914
563.1125	233.548
563.2726	228.0601
563.4327	227.2876
563.5928	221.0412
563.7528	223.8424
563.9129	223.9451
564.0729	218.3036
564.233	220.0715
564.393	222.972
564.553	220.3064
564.7131	214.9115
564.873	223.3946
565.0331	227.1441
565.1931	218.5504
565.353	221.1116
565.5131	215.8291
565.673	209.9574
565.833	204.9144
565.9929	207.5908
566.1529	200.8335
566.3129	204.9944
566.4728	207.9517
566.6328	199.9634
566.7927	209.8331
566.9526	217.2869
567.1125	212.6408
567.2724	216.0263
567.4323	216.68
567.5922	210.6761
567.7521	204.9683
567.9119	207.1377
568.0718	211.6915
568.2317	205.7386
568.3915	199.2814
568.5514	202.2648
568.7112	203.316
568.871	204.7739
569.0309	205.3573
569.1907	209.9861
569.3505	211.0249
569.5103	205.948
569.6701	202.2992
569.8299	195.8585
569.9897	201.6193
570.1495	197.1578
570.3092	199.3111
570.469	195.0908
570.6287	192.3864
570.7885	187.2517
570.9482	191.4052
571.108	188.7768
571.2677	187.139
571.4274	190.5433
571.5871	192.5598
571.7468	197.6069
571.9066	197.8389
572.0662	194.3689
572.2259	198.4223
572.3856	196.3845
572.5452	195.6524
572.7049	192.7504
572.8646	192.1582
573.0242	192.9965
573.1838	193.4688
573.3435	194.7593
573.5031	196.7133
573.6627	196.3444
573.8223	192.5987
573.9819	187.7145
574.1415	188.7624
574.3011	190.6196
574.4607	190.1691
574.6203	179.7461
574.7798	185.8459
574.9394	187.5246
575.099	185.1335
575.2585	178.7811
575.418	184.46
575.5776	175.9985
575.7371	182.3578
575.8966	181.8326
576.0562	183.1834
576.2156	181.4482
576.3751	182.7088
576.5346	183.0209
576.6941	179.3178
576.8536	180.8234
577.0131	183.9439
577.1725	179.4934
577.332	174.1593
577.4914	177.5615
577.6508	172.4455
577.8103	171.936
577.9697	173.3165
578.1291	170.5068
578.2885	168.4138
578.4479	172.2915
578.6073	167.3315
578.7667	166.7589
578.9261	170.5266
579.0854	172.7038
579.2448	170.3749
579.4042	169.9338
579.5635	168.8023
579.7229	165.3891
579.8822	163.8678
580.0416	163.5152
580.2009	166.2587
580.3602	169.6418
580.5195	166.1062
580.6788	168.5124
580.8381	174.1104
580.9974	174.3591
581.1566	174.2411
581.3159	171.3486
581.4752	165.3016
581.6345	168.7535
581.7937	168.4867
581.9529	169.6134
582.1122	167.5428
582.2714	167.3023
582.4306	167.3129
582.5898	168.0746
582.749	168.942
582.9082	171.3852
583.0674	169.6299
583.2266	157.3443
583.3857	162.8313
583.5449	161.366
583.7041	163.191
583.8633	162.3066
584.0224	157.9552
584.1815	160.9454
584.3407	159.9291
584.4998	158.9972
584.6589	162.2376
584.818	162.6708
584.9771	161.7409
585.1362	160.542
585.2953	152.1037
585.4544	152.2009
585.6135	153.7438
585.7725	149.3752
585.9316	156.4371
586.0906	157.2959
586.2497	159.3625
586.4087	158.856
586.5677	159.4477
586.7267	155.5157
586.8858	159.7218
587.0448	154.2559
587.2038	155.276
587.3628	155.5493
587.5218	146.0506
587.6807	153.7305
587.8397	150.7732
587.9987	148.7402
588.1577	148.8336
588.3166	150.4613
588.4755	141.9247
588.6345	148.4943
588.7934	147.3465
588.9523	137.319
589.1112	130.3406
589.2701	134.5002
589.429	134.7017
589.5879	139.3257
589.7468	141.396
589.9056	143.4895
590.0645	136.5109
590.2234	138.8365
590.3822	139.6919
590.5411	147.1527
590.6999	145.5488
590.8588	143.966
591.0176	142.9197
591.1764	145.2103
591.3352	148.6201
591.494	141.7787
591.6528	141.8003
591.8116	143.2191
591.9703	144.8008
592.1291	138.4936
592.2878	147.2522
592.4467	147.5366
592.6053	140.5949
592.7641	141.1899
592.9229	138.7624
593.0816	140.221
593.2403	137.9125
593.399	139.1402
593.5577	143.0668
593.7164	141.6172
593.8751	149.6764
594.0338	143.3171
594.1924	145.8605
594.3511	137.8472
594.5098	135.5063
594.6684	137.9708
594.8271	140.8324
594.9857	135.4415
595.1443	136.11
595.303	144.0789
595.4615	139.3352
595.6202	141.0037
595.7787	135.5292
595.9374	140.1859
596.0959	133.74
596.2545	137.2042
596.4131	139.4008
596.5717	138.4407
596.7302	141.6971
596.8887	138.8061
597.0473	138.4506
597.2058	133.2848
597.3644	142.614
597.5229	139.0916
597.6814	135.3023
597.8399	136.6638
597.9984	139.1183
598.1569	135.4551
598.3154	138.7977
598.4738	132.1127
598.6323	131.6095
598.7908	133.0198
598.9492	136.5303
599.1076	143.0642
599.2661	146.8562
599.4245	142.3918
599.5829	137.7613
599.7413	132.0629
599.8997	134.5012
600.0581	140.9276
600.2165	143.9282
600.3749	133.6344
600.5333	134.4394
600.6917	134.418
600.85	130.6073
601.0084	131.2961
601.1667	133.9916
601.325	138.4492
601.4833	134.6472
601.6417	131.3397
601.8	137.7016
601.9583	133.305
602.1166	132.4535
602.2749	134.0403
602.4332	133.3676
602.5914	135.6392
602.7498	137.8792
602.908	133.8123
603.0662	132.6069
603.2245	134.9273
603.3828	133.1035
603.541	136.4985
603.6992	141.0469
603.8574	137.9716
604.0156	129.3572
604.1738	132.8911
604.332	131.8293
604.4902	136.0929
604.6484	135.251
604.8065	133.7262
604.9647	132.5732
605.1229	124.8947
605.281	136.939
605.4391	135.7929
605.5973	131.067
605.7554	137.1298
605.9135	131.3145
606.0717	130.9379
606.2297	126.1025
606.3878	129.6804
606.5459	128.0558
606.704	132.4502
606.8621	126.1318
607.0201	128.8267
607.1782	125.8585
607.3362	131.1875
607.4943	134.9204
607.6523	134.71
607.8104	133.5129
607.9684	134.6685
608.1264	133.421
608.2844	126.4548
608.4424	125.1993
608.6003	129.6658
608.7584	127.867
608.9163	132.023
609.0743	127.5309
609.2322	128.7958
609.3902	123.6758
609.5482	121.0685
609.7061	128.8825
609.864	122.7526
610.0219	123.447
610.1798	125.9359
610.3377	119.4988
610.4956	122.0591
610.6535	125.8022
610.8114	128.9788
610.9693	127.4004
611.1271	119.4402
611.285	119.9345
611.4429	118.424
611.6007	118.2626
611.7585	122.8035
611.9164	120.5387
612.0742	115.1288
612.232	118.1602
612.3898	118.3305
612.5476	120.2233
612.7054	114.1284
612.8632	117.6572
613.0209	122.0637
613.1787	118.1068
613.3365	119.0347
613.4942	117.3358
613.652	113.3347
613.8097	114.7655
613.9674	114.9413
614.1252	117.1777
614.2829	114.0516
614.4406	116.0167
614.5983	117.0253
614.756	112.7666
614.9136	112.8384
615.0714	112.7558
615.229	113.0072
615.3867	112.3948
615.5443	112.9528
615.702	107.6316
615.8596	112.9354
616.0172	109.4361
616.1748	116.9261
616.3325	108.2273
616.4901	105.1277
616.6476	105.9092
616.8052	105.0734
616.9628	104.077
617.1204	105.1157
617.278	111.8361
617.4355	109.8227
617.5931	110.4565
617.7506	111.0307
617.9081	118.8377
618.0657	110.337
618.2232	113.0557
618.3807	120.2428
618.5382	111.3764
618.6957	111.0619
618.8532	106.5024
619.0107	109.1183
619.1682	108.9697
619.3256	106.6223
619.4831	108.6071
619.6406	108.5168
619.798	112.4873
619.9554	114.1588
620.1129	116.06
620.2703	109.6064
620.4277	109.5812
620.5851	109.6351
620.7425	108.5104
620.8998	106.9727
621.0573	104.7123
621.2146	111.5492
621.372	105.8575
621.5294	103.3933
621.6867	108.9755
621.8441	111.4435
622.0013	107.554
622.1587	107.2695
622.316	104.3696
622.4733	104.0543
622.6306	108.4745
622.7879	106.0785
622.9452	105.1241
623.1025	104.4862
623.2598	104.4624
623.4171	108.3507
623.5743	104.321
623.7316	100.4542
623.8888	106.8453
624.046	108.8134
624.2032	103.4238
624.3605	108.0174
624.5176	102.5523
624.6749	103.6161
624.8321	102.2391
624.9893	103.146
625.1464	102.3536
625.3036	104.0136
625.4608	100.2269
625.6179	101.8863
625.7751	103.5428
625.9322	97.76634
626.0894	101.7994
626.2465	108.5263
626.4036	103.6217
626.5607	105.6867
626.7178	104.5142
626.8749	101.1617
627.032	101.8404
627.189	105.3079
627.3461	101.5159
627.5032	98.90505
627.6602	96.08573
627.8173	95.71259
627.9743	92.40452
628.1313	98.87734
628.2884	100.3951
628.4454	96.07006
628.6024	102.574
628.7594	104.3193
628.9164	102.3749
629.0734	99.99641
629.2303	100.981
629.3873	105.8602
629.5443	109.7987
629.7012	94.59107
629.8582	97.12688
630.0151	98.14725
630.172	96.618
630.3289	93.63323
630.4858	102.4705
630.6428	95.26684
630.7996	100.8708
630.9565	98.923
631.1134	101.9842
631.2703	104.2225
631.4272	102.5265
631.584	97.91908
631.7408	96.26796
631.8977	96.38976
632.0546	100.0016
632.2114	102.782
632.3682	96.25851
632.525	103.8645
632.6818	104.6584
632.8386	102.6221
632.9954	98.05235
633.1522	100.2608
633.3089	99.51807
633.4657	96.62939
633.6224	94.106
633.7792	95.14705
633.9359	96.14442
634.0927	96.06022
634.2494	99.62946
634.4061	93.77977
634.5628	94.87259
634.7195	92.13444
634.8762	90.94328
635.0329	100.091
635.1895	98.27701
635.3462	95.21558
635.5029	98.91393
635.6595	99.25501
635.8162	92.85319
635.9728	92.23537
636.1295	90.57014
636.2861	88.06735
636.4427	96.36839
636.5992	93.16292
636.7559	91.73212
636.9124	92.87984
637.069	96.99399
637.2256	100.2053
637.3821	98.93667
637.5387	95.81813
637.6953	98.03728
637.8518	96.6946
638.0084	92.4752
638.1649	97.63904
638.3214	100.6121
638.4779	99.02848
638.6344	100.2617
638.7909	95.51578
638.9474	95.73403
639.1038	97.05148
639.2603	94.03143
639.4167	97.93141
639.5732	103.6359
639.7297	95.62104
639.8861	93.07387
640.0425	87.82549
640.199	87.70609
640.3553	89.90714
640.5118	92.05748
640.6682	88.59042
640.8245	88.41019
640.981	94.15211
641.1373	95.39405
641.2936	95.59717
641.45	89.842
641.6064	88.56763
641.7627	91.79092
641.9191	87.25602
642.0754	87.4339
642.2317	89.50837
642.388	82.22639
642.5443	85.10092
642.7006	84.57521
642.8569	83.5377
643.0131	85.80844
643.1694	88.54688
643.3257	89.8962
643.4819	89.33061
643.6382	88.58727
643.7944	81.10062
643.9506	81.47004
644.1069	83.9785
644.2631	85.42915
644.4193	84.75868
644.5754	80.91425
644.7316	89.77552
644.8878	83.86076
645.044	82.82594
645.2002	78.7418
645.3563	79.51916
645.5125	82.62052
645.6686	79.36379
645.8248	80.18372
645.9809	80.71577
646.137	76.7566
646.2931	76.31876
646.4492	78.73187
646.6053	81.41501
646.7614	85.10831
646.9174	78.28452
647.0735	75.69572
647.2296	74.76263
647.3856	77.65475
647.5417	77.92417
647.6977	74.71862
647.8537	81.84958
648.0098	81.84349
648.1658	74.2645
648.3218	77.41299
648.4777	71.13991
648.6337	75.95732
648.7897	76.9875
648.9457	76.72223
649.1016	75.58892
649.2576	71.82852
649.4135	76.5754
649.5695	74.8085
649.7254	75.30799
649.8813	72.20539
650.0372	67.579
650.1932	73.13573
650.3491	77.45529
650.5049	73.73325
650.6608	73.32477
650.8167	76.90609
650.9725	70.35669
651.1284	74.59357
651.2842	74.75577
651.4401	75.7852
651.5959	74.93961
651.7518	69.99138
651.9076	71.40666
652.0634	76.35084
652.2192	70.4437
652.3749	79.12222
652.5308	75.10691
652.6865	76.69318
652.8423	74.55253
652.998	73.56653
653.1538	73.78742
653.3096	76.7985
653.4653	76.87227
653.621	72.19915
653.7767	74.87434
653.9324	76.82822
654.0881	76.43633
654.2438	79.78869
654.3995	75.59057
654.5552	69.75092
654.7109	70.39299
654.8665	72.20579
655.0222	75.28153
655.1778	67.46521
655.3334	70.78222
655.4891	74.55862
655.6447	70.85864
655.8003	67.27728
655.9559	64.38951
656.1115	60.8353
656.2671	67.62397
656.4227	63.76739
656.5782	65.92648
656.7338	68.92406
656.8893	69.08638
657.0449	66.60374
657.2004	66.17936
657.356	69.57059
657.5115	70.95678
657.667	68.62524
657.8225	69.83229
657.978	71.25496
658.1335	74.47126
658.289	76.55608
658.4445	66.77921
658.5999	62.35815
658.7554	67.89037
658.9108	67.5282
659.0663	68.99284
659.2217	67.25809
659.3771	67.22048
659.5325	71.01583
659.6879	68.84337
659.8433	70.5544
659.9987	71.52338
660.1541	70.52824
660.3095	69.71301
660.4648	65.98404
660.6202	70.43591
660.7756	62.88556
660.9309	72.63464
661.0862	73.11437
661.2416	68.283
661.3969	71.03407
661.5522	66.06844
661.7075	65.58624
661.8628	68.47906
662.0181	66.35287
662.1733	70.49115
662.3286	76.63638
662.4839	74.9508
662.6391	72.71117
662.7944	69.87605
662.9496	69.37389
663.1048	65.18282
663.26	62.76855
663.4152	63.78746
663.5704	64.09427
663.7256	65.07674
663.8808	70.05868
664.036	67.04907
664.1912	66.7638
664.3463	64.43711
664.5015	67.25302
664.6566	65.31424
664.8118	66.09962
664.9669	68.44518
665.122	66.91466
665.2771	66.42378
665.4322	63.14797
665.5873	73.0108
665.7424	69.48914
665.8975	64.95838
666.0526	69.58235
666.2076	65.44163
666.3627	62.49073
666.5177	62.36275
666.6727	62.53183
666.8278	61.37902
666.9828	66.22646
667.1378	65.48569
667.2928	64.68668
667.4478	67.15166
667.6028	64.68529
667.7578	63.12399
667.9127	61.10923
668.0677	69.14342
668.2226	62.65229
668.3776	59.84671
668.5325	59.0893
668.6874	58.86863
668.8423	62.79937
668.9973	63.26851
669.1522	62.1311
669.3071	67.98389
669.4619	64.06258
669.6168	60.0477
669.7717	61.94153
669.9265	61.35469
670.0814	63.77328
670.2362	63.7073
670.3911	63.2484
670.5459	60.19515
670.7007	61.05535
670.8555	58.64805
671.0103	63.16509
671.1651	59.86663
671.3199	55.45532
671.4747	58.25903
671.6295	61.48548
671.7842	57.33399
671.939	55.39447
672.0937	57.77834
672.2484	63.3829
672.4031	60.55337
672.5579	60.61086
672.7126	59.72755
672.8673	61.55914
673.022	62.22026
673.1767	57.23881
673.3314	56.2118
673.486	60.91627
673.6407	62.97549
673.7953	62.17565
673.95	61.74757
674.1046	60.36156
674.2592	63.84781
674.4138	58.17736
674.5684	59.26287
674.723	58.5241
674.8776	58.14111
675.0322	54.52386
675.1868	58.53108
675.3414	61.26192
675.4959	55.68411
675.6505	59.895
675.805	57.88433
675.9595	59.71199
676.1141	56.63777
676.2686	58.75816
676.4231	56.96082
676.5776	62.42469
676.7321	54.0135
676.8866	56.76347
677.041	58.20623
677.1955	58.31311
677.35	59.03005
677.5044	55.24689
677.6589	55.64535
677.8133	59.39358
677.9677	59.81842
678.1221	61.13676
678.2766	58.49741
678.4309	61.98971
678.5853	60.35835
678.7397	53.50346
678.8941	55.97426
679.0485	59.60945
679.2028	61.13108
679.3571	55.86198
679.5115	52.76965
679.6658	56.41746
679.8201	61.91408
679.9744	57.53238
680.1288	55.95854
680.2831	58.37231
680.4373	57.40487
680.5916	60.77559
680.7459	58.15551
680.9001	57.51022
681.0544	57.45136
681.2087	57.64219
681.3629	55.78382
681.5171	58.13095
681.6713	57.93011
681.8256	54.6377
681.9797	56.17649
682.134	58.10746
682.2881	54.01739
682.4423	56.7767
682.5965	54.59668
682.7507	54.1554
682.9048	59.29922
683.059	54.38698
683.2131	55.06163
683.3672	56.89135
683.5213	60.16133
683.6754	57.47314
683.8295	56.6973
683.9836	59.29146
684.1377	51.60881
684.2918	55.50814
684.4459	61.75617
684.5999	57.07939
684.754	57.7547
684.908	57.61182
685.062	58.1696
685.2161	62.52551
685.3701	62.98698
685.5241	59.94001
685.6781	56.74461
685.8321	55.73836
685.9861	55.50927
686.14	55.82957
686.294	56.30853
686.4479	49.00462
686.6019	55.22147
686.7559	50.26367
686.9098	45.28693
687.0637	47.00198
687.2176	47.99544
687.3715	47.49053
687.5254	46.36732
687.6793	51.71256
687.8332	54.97334
687.9871	54.08945
688.1409	55.87783
688.2947	57.63208
688.4486	58.61665
688.6024	58.10896
688.7563	54.42226
688.9101	59.19803
689.0639	55.73763
689.2177	56.73476
689.3715	51.81597
689.5253	54.07248
689.6791	54.34747
689.8328	57.12806
689.9866	58.11713
690.1403	58.76534
690.2941	60.93455
690.4478	58.42329
690.6015	57.5021
690.7552	61.6594
690.9089	58.52164
691.0626	61.06805
691.2164	68.76702
691.37	59.22268
691.5237	60.97312
691.6774	63.70877
691.831	62.02859
691.9847	60.88365
692.1383	60.64778
692.2919	58.30439
692.4456	66.13438
692.5992	62.44404
692.7527	66.45821
692.9064	64.6181
693.0599	67.55896
693.2136	64.49839
693.3671	64.15931
693.5207	64.6669
693.6742	67.33321
693.8278	67.09845
693.9813	66.50175
694.1348	69.15192
694.2883	68.019
694.4418	69.93716
694.5953	68.11005
694.7488	68.29575
694.9023	72.32527
695.0558	70.33099
695.2093	72.69829
695.3627	74.20887
695.5162	74.49493
695.6696	74.97155
695.8231	71.42666
695.9764	72.17593
696.1299	72.11872
696.2833	73.5479
696.4367	75.39062
696.5901	75.83874
696.7435	79.57194
696.8968	76.01019
697.0502	83.22433
697.2036	80.44626
697.3569	81.99503
697.5102	79.09515
697.6635	82.22848
697.8168	77.98876
697.9702	78.63409
698.1235	82.68186
698.2768	80.67844
698.4301	80.06106
698.5833	79.00322
698.7366	78.38818
698.8898	80.68858
699.0431	81.76487
699.1964	80.33848
699.3495	85.57684
699.5028	87.2326
699.656	81.43926
699.8092	86.02534
699.9624	90.65771
700.1156	93.09904
700.2688	87.12242
700.4219	86.69371
700.5751	80.4136
700.7283	88.67997
700.8814	91.40514
701.0345	86.94189
701.1877	92.95473
701.3408	90.02971
701.4939	88.12894
701.647	90.62979
701.8001	89.99069
701.9532	95.16088
702.1063	93.80743
702.2593	97.34765
702.4124	95.66509
702.5654	93.53738
702.7184	93.79159
702.8715	101.0197
703.0245	98.37444
703.1776	102.8491
703.3305	104.2422
703.4835	104.4195
703.6365	103.4319
703.7895	102.4706
703.9424	105.3535
704.0954	98.94032
704.2484	103.8702
704.4013	115.263
704.5543	109.5124
704.7072	108.0798
704.8601	104.5152
705.013	103.8219
705.1659	103.8214
705.3188	109.3707
705.4717	110.0276
705.6246	113.7484
705.7774	107.6767
705.9303	109.3039
706.0831	111.1882
706.236	111.1845
706.3888	114.7296
706.5416	112.7826
706.6944	112.7593
706.8472	111.887
707	120.1458
707.1528	115.6007
707.3056	115.7828
707.4583	118.3369
707.6111	121.0178
707.7639	121.2831
707.9166	121.5909
708.0693	125.8237
708.222	122.2259
708.3748	121.8298
708.5275	120.8233
708.6802	121.8511
708.8328	117.3789
708.9855	120.9754
709.1382	121.312
709.2909	124.396
709.4435	128.2433
709.5962	123.1552
709.7488	119.6023
709.9014	121.2981
710.054	127.7702
710.2067	125.7535
710.3593	132.136
710.5118	130.1554
710.6644	131.9215
710.817	125.9474
710.9695	128.7299
711.1221	132.4063
711.2747	132.134
711.4272	138.3698
711.5797	134.3581
711.7322	132.8531
711.8848	131.7394
712.0373	130.255
712.1898	129.8211
712.3422	133.0322
712.4948	135.8346
712.6472	134.8053
712.7996	133.7712
712.9521	134.5888
713.1046	134.0014
713.257	130.7671
713.4094	134.1483
713.5618	138.1062
713.7142	140.7214
713.8666	142.3189
714.019	139.9957
714.1714	147.1493
714.3237	142.6782
714.4761	140.4847
714.6285	138.1994
714.7808	136.5891
714.9331	139.9283
715.0854	140.0436
715.2378	139.3742
715.3901	140.3349
715.5424	142.8142
715.6947	139.5958
715.8469	146.7274
715.9992	148.1969
716.1515	144.4704
716.3037	146.6958
716.456	146.0421
716.6082	134.3842
716.7604	132.8537
716.9127	130.6339
717.0649	130.0101
717.2171	131.8016
717.3693	127.8847
717.5214	129.1013
717.6736	121.5286
717.8258	121.2096
717.978	126.4833
718.1301	125.6964
718.2822	126.0071
718.4344	124.2043
718.5865	115.7461
718.7386	111.5925
718.8907	122.9549
719.0428	128.3109
719.1949	129.582
719.3469	123.3136
719.499	126.9043
719.6511	127.225
719.8031	127.9038
719.9551	125.3318
720.1072	130.8434
720.2592	131.5419
720.4112	128.8878
720.5632	126.2762
720.7152	133.0775
720.8672	135.834
721.0192	146.5542
721.1711	152.3313
721.3231	158.9046
721.475	157.9995
721.627	165.0558
721.7789	161.8057
721.9308	158.6138
722.0828	163.3909
722.2347	157.0951
722.3866	159.8744
722.5385	156.1887
722.6903	158.8674
722.8422	160.7953
722.9941	160.711
723.1459	159.6753
723.2977	144.2046
723.4496	139.2867
723.6014	143.2585
723.7532	150.3747
723.905	151.7748
724.0568	150.1772
724.2086	145.9058
724.3604	149.2694
724.5121	151.1403
724.6639	153.392
724.8157	159.6653
724.9674	156.5707
725.1191	152.4278
725.2709	153.8856
725.4226	153.8856
725.5743	154.4747
725.726	157.8417
725.8777	162.4406
726.0294	159.0096
726.181	154.7484
726.3327	156.6927
726.4844	158.4617
726.636	162.213
726.7877	167.0399
726.9393	174.2831
727.0909	171.0055
727.2425	172.8551
727.3941	165.4458
727.5457	156.4857
727.6973	143.948
727.8488	149.1909
728.0004	160.3937
728.1519	165.2117
728.3035	171.484
728.455	179.1071
728.6066	174.3083
728.7581	172.3723
728.9095	164.3761
729.0611	154.7453
729.2126	156.7177
729.364	161.3955
729.5155	166.6463
729.667	184.1965
729.8184	186.4188
729.9698	175.3019
730.1213	176.0361
730.2727	171.81
730.4241	175.24
730.5756	178.4976
730.7269	181.2812
730.8784	180.7426
731.0297	173.4871
731.1811	177.9943
731.3325	181.6464
731.4838	177.6954
731.6351	185.7816
731.7865	186.5824
731.9378	186.5315
732.0891	186.6171
732.2404	193.43
732.3917	204.2968
732.543	195.2502
732.6943	192.1732
732.8456	197.1266
732.9968	201.3718
733.1481	202.0348
733.2993	203.1413
733.4506	206.5304
733.6018	206.1948
733.753	212.8542
733.9042	213.7668
734.0554	212.8587
734.2066	217.6736
734.3578	216.9628
734.509	210.0643
734.6602	209.4075
734.8113	208.8119
734.9624	205.7841
735.1136	206.5063
735.2647	214.7764
735.4158	211.1542
735.5669	212.8615
735.718	215.988
735.8691	208.1549
736.0201	209.5629
736.1713	209.9594
736.3223	210.2756
736.4733	208.7394
736.6244	212.4403
736.7755	204.896
736.9265	210.0905
737.0775	211.1205
737.2285	211.9809
737.3795	224.4218
737.5305	221.0033
737.6815	217.233
737.8324	215.0513
737.9834	218.1429
738.1343	220.3853
738.2853	221.4655
738.4362	215.2285
738.5871	211.6735
738.738	216.3221
738.8889	221.4706
739.0399	214.1264
739.1907	206.6093
739.3416	208.3238
739.4925	215.8964
739.6433	218.8261
739.7942	218.7571
739.945	226.6624
740.0958	220.0414
740.2467	220.4787
740.3975	224.3758
740.5483	222.7789
740.6991	223.5623
740.8499	227.9609
741.0007	217.5014
741.1514	212.5235
741.3022	212.7236
741.4529	218.4106
741.6036	222.788
741.7544	216.8045
741.9051	224.1454
742.0558	217.0695
742.2065	217.0835
742.3572	209.4413
742.5079	219.9077
742.6586	222.269
742.8093	219.4422
742.9599	220.3106
743.1105	229.0938
743.2612	230.6543
743.4118	231.1829
743.5624	233.5208
743.7131	233.9313
743.8636	232.8741
744.0142	230.9342
744.1648	224.3491
744.3154	224.6792
744.4659	224.2355
744.6165	224.6162
744.767	224.4241
744.9176	226.8192
745.0681	231.9548
745.2186	229.2781
745.3691	229.4387
745.5197	227.5069
745.6702	229.1745
745.8206	231.3998
745.9711	230.709
746.1215	226.5539
746.272	227.9105
746.4224	230.3361
746.5729	228.1926
746.7233	230.7394
746.8737	224.377
747.0241	224.8324
747.1745	230.878
747.3249	231.8188
747.4753	230.8424
747.6257	224.1515
747.776	223.8411
747.9264	224.7021
748.0767	226.7074
748.2271	225.5284
748.3774	223.3263
748.5276	223.2251
748.678	228.4081
748.8282	222.3882
748.9786	224.8769
749.1288	221.6297
749.2791	220.2448
749.4294	212.9048
749.5796	221.5782
749.7299	225.049
749.8801	228.0066
750.0303	229.4478
750.1805	221.2701
750.3307	220.6698
750.4809	216.0769
750.6311	216.6924
750.7813	221.7225
750.9314	221.4254
751.0816	217.0961
751.2318	217.8194
751.3818	214.6165
751.532	218.9846
751.6821	219.0667
751.8322	222.1289
751.9823	225.823
752.1324	223.7975
752.2825	220.1556
752.4326	211.6827
752.5826	214.323
752.7327	220.6878
752.8827	216.5825
753.0327	218.4651
753.1827	224.4236
753.3328	211.0104
753.4828	213.0562
753.6328	212.9386
753.7828	217.8901
753.9327	219.5743
754.0827	220.8933
754.2327	216.3591
754.3826	210.1988
754.5325	205.389
754.6825	207.3224
754.8324	209.3409
754.9823	211.3222
755.1322	208.3352
755.2821	209.073
755.432	212.4659
755.5818	203.5418
755.7318	202.1159
755.8816	202.8071
756.0314	211.2958
756.1813	207.073
756.3311	205.9339
756.4809	210.3731
756.6307	206.8163
756.7805	201.3191
756.9303	199.3025
757.0801	204.2335
757.2299	205.6187
757.3796	197.1534
757.5294	198.7991
757.6791	200.4379
757.8289	201.3862
757.9786	207.3352
758.1283	203.2907
758.278	204.8499
758.4277	195.5052
758.5773	189.2202
758.7271	189.9895
758.8767	189.2588
759.0264	190.0736
759.176	189.0387
759.3256	167.8541
759.4753	135.5806
759.6249	103.2837
759.7745	81.70462
759.9241	69.53144
760.0737	64.18079
760.2233	51.62961
760.3729	48.40517
760.5224	47.01033
760.6719	48.21094
760.8215	48.45974
760.971	49.80875
761.1205	59.39269
761.2701	71.69402
761.4196	82.81154
761.5691	96.25288
761.7186	121.4076
761.868	136.8503
762.0175	130.1568
762.167	123.5364
762.3164	112.5284
762.4659	109.3047
762.6153	99.25371
762.7647	91.87424
762.9141	82.8671
763.0635	90.02847
763.2129	92.90947
763.3623	94.90056
763.5117	88.19342
763.661	86.02464
763.8104	93.80701
763.9597	102.5528
764.1091	106.3286
764.2584	110.6492
764.4077	107.9382
764.557	108.9162
764.7063	114.8902
764.8556	116.7116
765.0049	123.2336
765.1541	125.3863
765.3034	125.7058
765.4526	127.1249
765.6019	129.6229
765.7511	134.6333
765.9003	134.8394
766.0496	138.5242
766.1987	146.9571
766.348	143.0048
766.4971	147.3596
766.6463	148.8899
766.7955	153.5225
766.9446	157.5995
767.0938	160.8945
767.2429	159.6726
767.392	164.1187
767.5411	163.9179
767.6902	164.0505
767.8394	160.1594
767.9884	159.6436
768.1375	157.3152
768.2866	165.3419
768.4356	164.7357
768.5847	165.6083
768.7337	169.0446
768.8828	167.7133
769.0317	168.4355
769.1808	164.1308
769.3298	166.5805
769.4788	168.4514
769.6277	174.6529
769.7767	173.4405
769.9257	170.8973
770.0746	169.3762
770.2236	172.3071
770.3725	178.1707
770.5214	174.2264
770.6703	172.6225
770.8193	164.2411
770.9681	167.1797
771.1171	158.8687
771.2659	160.0938
771.4148	167.6332
771.5637	166.2158
771.7125	158.9915
771.8613	169.9577
772.0101	168.0797
772.159	166.1588
772.3078	164.0689
772.4566	167.1412
772.6054	169.1069
772.7542	174.4674
772.903	161.9641
773.0517	165.2572
773.2004	162.8624
773.3492	162.0264
773.4979	161.9872
773.6467	162.7939
773.7953	166.5385
773.944	164.6463
774.0928	164.4419
774.2415	166.4003
774.3901	160.1798
774.5388	159.7775
774.6874	155.46
774.8361	155.972
774.9847	160.4738
775.1334	155.8098
775.282	153.212
775.4305	155.5737
775.5792	159.1951
775.7277	158.2379
775.8763	162.008
776.0249	160.2281
776.1735	158.5424
776.322	163.7761
776.4705	163.4955
776.6191	155.364
776.7676	162.2908
776.9161	155.709
777.0646	156.2676
777.2131	151.1545
777.3616	154.8134
777.5101	153.4961
777.6585	155.6453
777.8069	161.4414
777.9554	154.0408
778.1038	153.0729
778.2523	151.7517
778.4007	153.3741
778.5491	150.5017
778.6974	153.2585
778.8459	155.2911
778.9942	153.5298
779.1426	156.2923
779.291	158.8961
779.4393	158.1988
779.5876	159.1462
779.736	152.6849
779.8843	146.1215
780.0326	149.2757
780.1809	153.5127
780.3292	143.9447
780.4775	150.4343
780.6257	157.1165
780.774	155.5555
780.9222	147.4369
781.0704	147.0156
781.2187	146.3316
781.3669	144.5455
781.5151	152.6417
781.6633	146.3863
781.8115	151.836
781.9597	148.9127
782.1078	152.9107
782.256	155.4225
782.4042	154.0321
782.5523	151.6818
782.7004	152.8506
782.8486	149.2475
782.9967	149.3195
783.1448	145.896
783.2929	147.1506
783.441	145.8526
783.5891	151.3117
783.7371	140.9944
783.8851	142.7942
784.0332	146.6449
784.1812	147.9003
784.3293	147.5652
784.4773	144.904
784.6253	137.8873
784.7733	141.5099
784.9213	148.4789
785.0692	146.8724
785.2172	147.6216
785.3652	145.7291
785.5131	146.1821
785.6611	145.28
785.809	141.0637
785.9569	143.813
786.1048	146.0176
786.2527	149.7829
786.4006	144.7515
786.5485	140.1717
786.6964	134.8028
786.8442	137.3509
786.9921	141.6418
787.1399	142.2637
787.2877	137.1208
787.4355	138.6583
787.5833	134.0876
787.7311	136.2387
787.8789	136.6829
788.0267	136.7929
788.1745	135.4335
788.3223	138.538
788.47	136.8261
788.6177	143.787
788.7654	139.1893
788.9132	134.9382
789.0609	138.8092
789.2086	143.3224
789.3563	135.7423
789.504	135.1051
789.6517	137.8997
789.7993	131.5995
789.947	129.7191
790.0946	137.9961
790.2422	129.1555
790.3898	136.8937
790.5375	137.9848
790.6851	139.2328
790.8326	134.1696
790.9802	126.2484
791.1278	134.5168
791.2754	132.5424
791.423	133.4495
791.5705	132.2326
791.718	131.8029
791.8655	129.268
792.0131	128.8987
792.1606	134.1588
792.308	135.8892
792.4556	124.5872
792.603	128.8728
792.7505	127.7368
792.8979	127.7677
793.0454	128.2672
793.1928	128.1279
793.3403	130.0503
793.4877	133.682
793.6351	138.3563
793.7825	130.349
793.9299	123.6712
794.0772	126.5425
794.2246	132.4012
794.3719	126.9904
794.5193	128.049
794.6666	127.4195
794.814	126.5822
794.9613	130.6987
795.1086	129.911
795.2559	130.0879
795.4032	128.699
795.5505	124.08
795.6978	121.0332
795.845	126.3014
795.9922	129.6405
796.1395	117.4023
796.2867	119.9333
796.4339	127.9189
796.5811	128.4803
796.7283	122.1437
796.8755	125.9452
797.0227	124.0233
797.1699	122.842
797.317	124.5389
797.4642	123.6785
797.6113	124.4609
797.7584	129.6426
797.9056	125.383
798.0527	128.1814
798.1998	127.6783
798.3469	122.5842
798.494	122.6829
798.641	122.9641
798.7881	120.1638
798.9351	127.512
799.0822	121.6929
799.2292	121.1347
799.3762	128.1805
799.5232	123.1999
799.6702	123.1908
799.8172	118.6313
799.9642	115.5957
800.1111	119.6825
800.2581	124.5152
800.4051	124.1275
800.552	119.3155
800.6989	118.5177
800.8458	113.0766
800.9927	123.7232
801.1396	116.9804
801.2866	109.6868
801.4334	117.7057
801.5803	113.9956
801.7272	118.8671
801.874	118.983
802.0209	118.2244
802.1677	110.5137
802.3145	116.3136
802.4613	123.8826
802.6081	109.7874
802.7549	109.6409
802.9017	115.8971
803.0485	114.1119
803.1952	111.0977
803.342	113.5589
803.4887	114.9965
803.6354	113.1546
803.7822	114.2749
803.9289	116.9373
804.0756	110.5399
804.2223	110.833
804.369	106.8307
804.5156	113.6348
804.6623	110.5789
804.8089	112.3566
804.9556	111.7346
805.1022	111.061
805.2488	109.9261
805.3954	111.0206
805.542	110.9547
805.6886	109.2399
805.8352	111.2114
805.9818	112.3182
806.1283	114.9944
806.2749	115.2849
806.4214	110.7481
806.5679	110.3842
806.7145	110.034
806.861	112.3861
807.0074	107.3179
807.154	105.7626
807.3004	104.3282
807.4469	107.5559
807.5934	108.8811
807.7398	106.8034
807.8862	105.2317
808.0327	108.981
808.1791	104.3795
808.3255	103.8295
808.4719	108.861
808.6183	108.2955
808.7647	104.9073
808.9111	103.8102
809.0574	100.972
809.2037	102.8634
809.3501	98.89165
809.4965	100.2486
809.6428	103.4581
809.7891	97.37315
809.9354	94.03144
810.0817	96.63448
810.2279	108.6232
810.3742	104.5673
810.5204	98.62867
810.6667	101.0584
810.8129	100.1178
810.9592	103.4272
811.1054	95.63835
811.2516	98.72555
811.3978	98.66592
811.5439	99.17161
811.6901	99.05658
811.8363	101.0511
811.9825	98.08578
812.1286	97.01438
812.2748	96.00541
812.4209	93.50439
812.567	95.22343
812.7131	98.00611
812.8592	94.50722
813.0053	94.8681
813.1514	86.31554
813.2974	86.62404
813.4435	87.13097
813.5895	80.70411
813.7356	83.99558
813.8816	90.05878
814.0276	88.87514
814.1736	84.51403
814.3196	83.6584
814.4656	81.74383
814.6116	78.15047
814.7576	80.48891
814.9035	77.31092
815.0494	82.07581
815.1954	74.71127
815.3413	74.3158
815.4872	74.65458
815.6331	76.15141
815.779	85.99169
815.9249	84.48862
816.0707	80.01149
816.2166	75.09759
816.3625	66.41916
816.5083	73.37209
816.6542	73.8302
816.8	74.69785
816.9458	76.32613
817.0916	78.5484
817.2374	82.83602
817.3832	84.20789
817.5289	82.95757
817.6747	75.70863
817.8204	71.46004
817.9662	65.04796
818.1119	66.1591
818.2576	72.20286
818.4034	75.72274
818.5491	77.12173
818.6948	78.3863
818.8405	71.84154
818.9861	77.75507
819.1318	79.85845
819.2774	75.91969
819.423	67.98279
819.5687	75.11278
819.7143	74.26775
819.8599	71.85072
820.0055	76.39066
820.1511	73.44992
820.2967	80.3699
820.4422	80.79606
820.5878	85.27549
820.7333	91.59275
820.8788	88.19992
821.0244	80.47271
821.1699	81.78484
821.3154	76.65427
821.4609	79.44393
821.6064	78.43501
821.7519	79.46253
821.8973	80.14523
822.0428	77.36639
822.1882	76.02583
822.3337	75.48232
822.4791	69.51556
822.6245	67.76477
822.7699	60.94818
822.9153	57.26659
823.0607	55.32499
823.2061	54.26497
823.3514	61.78675
823.4968	68.4134
823.6422	72.65647
823.7875	78.71867
823.9328	75.90868
824.0781	81.03267
824.2234	75.49936
824.3687	78.82943
824.514	72.14313
824.6592	77.9747
824.8045	79.18384
824.9498	80.7449
825.095	88.82449
825.2402	79.96914
825.3854	72.4509
825.5306	72.48661
825.6758	74.74362
825.821	74.4937
825.9662	78.58057
826.1114	76.71312
826.2565	74.96164
826.4017	73.11755
826.5468	74.566
826.692	78.84045
826.837	74.88947
826.9822	80.63119
827.1273	76.48555
827.2723	71.97021
827.4174	63.96446
827.5625	65.13499
827.7075	69.72917
827.8526	66.80466
827.9976	66.54476
828.1426	66.40614
828.2877	68.74673
828.4327	76.42179
828.5776	79.49431
828.7227	77.8399
828.8676	67.31986
829.0126	65.92632
829.1575	71.89388
829.3024	71.38541
829.4474	71.70268
829.5923	70.12905
829.7372	72.7664
829.8821	73.15482
830.027	74.56399
830.1719	75.12488
830.3168	71.85796
830.4616	71.69499
830.6064	69.39196
830.7513	68.3138
830.8961	73.51451
831.041	71.11394
831.1857	72.82358
831.3306	70.22697
831.4753	69.80228
831.6201	65.62688
831.7649	67.64051
831.9096	71.93835
832.0544	67.39018
832.1991	65.83725
832.3438	66.47602
832.4885	72.11954
832.6332	70.3984
832.778	65.87836
832.9226	64.72894
833.0673	70.94894
833.2119	71.67422
833.3566	67.12519
833.5012	61.57934
833.6459	64.53899
833.7905	71.93347
833.9351	69.38695
834.0797	68.72842
834.2243	70.06385
834.3688	70.55849
834.5134	64.6664
834.658	69.96491
834.8026	67.26744
834.9471	66.95964
835.0916	68.73652
835.2361	71.80537
835.3806	71.92693
835.5251	70.72169
835.6696	69.26871
835.8141	64.60751
835.9586	70.26935
836.103	72.90543
836.2474	70.45408
836.3918	72.20657
836.5363	72.08906
836.6807	70.58179
836.8251	71.32549
836.9695	70.45635
837.1138	67.01948
837.2582	68.45888
837.4026	73.26204
837.5469	68.28767
837.6913	67.90881
837.8356	74.54239
837.9799	69.27634
838.1242	69.1654
838.2686	65.93905
838.4128	71.49274
838.5571	71.9874
838.7014	72.08517
838.8456	72.72893
838.9899	67.8231
839.1341	72.42963
839.2783	69.88165
839.4225	69.20045
839.5667	72.22157
839.7109	71.86839
839.8551	73.66629
839.9993	72.47607
840.1434	70.5259
840.2876	72.12496
840.4317	76.24737
840.5759	71.30804
840.72	66.28217
840.8641	67.62405
841.0082	71.28338
841.1523	70.21485
841.2963	70.70204
841.4404	66.6137
841.5845	68.97137
841.7285	67.86398
841.8726	68.29088
842.0165	68.26649
842.1606	70.90701
842.3046	66.57773
842.4485	71.47361
842.5925	70.08955
842.7365	70.70982
842.8805	71.61198
843.0244	75.79877
843.1684	70.64046
843.3123	72.61197
843.4562	72.30424
843.6002	66.62057
843.744	63.40519
843.8879	66.53355
844.0318	65.03603
844.1757	71.15386
844.3195	72.16016
844.4634	68.66791
844.6072	69.86798
844.751	68.88728
844.8948	66.1842
845.0386	65.05482
845.1824	66.03394
845.3262	69.69505
845.47	68.96955
845.6138	67.84457
845.7575	70.20818
845.9012	67.04284
846.045	67.36848
846.1887	68.63097
846.3324	64.46756
846.4761	64.17995
846.6198	64.63609
846.7635	63.7965
846.9071	72.23297
847.0508	63.96819
847.1944	59.1644
847.3381	62.59081
847.4817	65.32163
847.6253	72.77427
847.7689	66.93658
847.9125	62.56056
848.0561	65.51479
848.1996	69.07252
848.3432	60.42585
848.4868	67.41954
848.6303	65.69347
848.7738	68.01302
848.9174	66.72752
849.0609	63.96289
849.2043	65.25266
849.3478	68.16225
849.4913	62.41029
849.6348	59.02289
849.7782	55.53809
849.9217	53.91651
850.0651	58.03784
850.2086	61.84289
850.3519	65.30375
850.4954	58.35734
850.6387	61.68098
850.7821	66.82026
850.9255	61.35241
851.0688	63.83279
851.2122	59.9922
851.3555	61.81691
851.4988	60.36856
851.6422	62.34004
851.7855	62.79559
851.9288	59.94717
852.0721	62.04955
852.2153	65.2757
852.3586	66.95152
852.5018	65.07936
852.6451	63.02827
852.7883	59.55296
852.9315	60.22337
853.0748	62.01199
853.218	62.69695
853.3611	64.10565
853.5043	59.52605
853.6475	56.13739
853.7906	53.42228
853.9338	53.51526
854.0769	49.54417
854.22	48.83001
854.3632	49.00982
854.5063	52.64303
854.6494	48.18957
854.7924	50.99219
854.9355	54.83813
855.0786	62.93149
855.2216	60.39583
855.3647	63.63177
855.5077	61.45639
855.6507	57.50666
855.7937	56.29734
855.9367	59.66837
856.0797	61.12803
856.2227	61.77314
856.3657	59.4433
856.5086	60.80118
856.6516	63.3081
856.7945	56.83874
856.9374	64.87779
857.0803	56.48077
857.2232	59.82765
857.3661	61.10586
857.509	62.3433
857.6519	62.12606
857.7947	59.8218
857.9376	56.55022
858.0804	52.57389
858.2232	60.22852
858.366	60.77805
858.5089	60.93738
858.6516	56.10894
858.7944	60.17577
858.9372	59.92477
859.08	61.11418
859.2227	61.13199
859.3654	59.94339
859.5082	56.15038
859.6509	58.72303
859.7936	58.48928
859.9363	51.98669
860.079	52.41658
860.2217	53.28484
860.3643	59.24321
860.507	61.52882
860.6496	53.15229
860.7922	54.96432
860.9349	56.7749
861.0775	57.83768
861.2201	54.4027
861.3627	51.59649
861.5052	51.80173
861.6478	50.69556
861.7904	55.54163
861.9329	55.83739
862.0755	52.09361
862.218	55.07545
862.3605	57.80501
862.503	54.84757
862.6455	57.3116
862.788	57.5423
862.9305	57.34535
863.0729	53.01301
863.2154	55.33307
863.3578	55.74419
863.5002	56.99604
863.6426	58.28391
863.7851	60.03365
863.9275	51.73352
864.0698	51.81725
864.2122	56.47855
864.3546	54.20517
864.4969	55.666
864.6393	51.54676
864.7816	50.33077
864.924	51.16837
865.0662	52.45195
865.2086	52.11137
865.3508	48.59268
865.4931	54.13153
865.6354	49.41309
865.7776	48.11219
865.9199	45.92746
866.0621	47.80717
866.2043	41.64986
866.3466	41.28769
866.4888	42.34389
866.6309	45.51787
866.7731	43.98492
866.9153	47.55834
867.0574	54.01219
867.1996	51.1052
867.3417	48.5265
867.4839	46.11202
867.626	51.75277
867.7681	48.37646
867.9102	55.37783
868.0522	56.58133
868.1943	53.89727
868.3364	56.33114
868.4785	52.32841
868.6205	48.86378
868.7625	48.73819
868.9045	49.75203
869.0465	48.60804
869.1885	47.58225
869.3305	48.07965
869.4725	52.12653
869.6144	48.01011
869.7564	54.20804
869.8983	47.85555
870.0403	46.62162
870.1822	48.76401
870.3241	50.56654
870.466	46.14545
870.6079	47.98104
870.7498	44.20464
870.8916	48.96991
871.0335	53.70608
871.1754	49.83406
871.3171	49.7734
871.459	48.91079
871.6008	44.59633
871.7426	48.21845
871.8844	51.71782
872.0262	48.94829
872.1679	48.76149
872.3097	46.36722
872.4514	46.02065
872.5931	45.98204
872.7349	48.40938
872.8766	41.91818
873.0183	44.7791
873.16	45.12817
873.3017	45.9156
873.4434	46.45334
873.585	44.98415
873.7266	41.43401
873.8683	39.89784
874.0099	41.86065
874.1516	44.4885
874.2932	46.03605
874.4348	44.17755
874.5763	49.61378
874.7179	45.54575
874.8594	38.62138
875.001	42.15079
875.1425	41.31915
875.2841	42.22374
875.4256	38.88934
875.5671	41.3158
875.7086	44.27927
875.85	45.54166
875.9915	51.28331
876.133	48.30661
876.2744	52.45767
876.4159	44.57364
876.5573	41.45826
876.6987	44.46754
876.8401	48.51535
876.9815	45.9978
877.1229	43.6071
877.2643	43.32249
877.4056	43.61306
877.547	40.93281
877.6884	46.48699
877.8297	41.4858
877.971	38.69419
878.1123	41.14681
878.2536	47.08484
878.3949	43.15913
878.5362	41.78593
878.6774	40.82951
878.8187	39.74247
878.9599	40.58146
879.1011	40.18793
879.2424	41.56735
879.3836	42.266
879.5248	47.60648
879.666	45.92862
879.8071	43.7227
879.9483	40.37753
880.0895	38.1712
880.2306	45.09248
880.3718	44.43459
880.5129	43.13805
880.654	41.15369
880.7951	39.2286
880.9362	37.26973
881.0773	38.56686
881.2183	44.66723
881.3594	44.96378
881.5004	39.96991
881.6414	42.80318
881.7825	39.65307
881.9235	41.6344
882.0645	42.15825
882.2054	43.32789
882.3464	42.47004
882.4874	45.73417
882.6284	42.04925
882.7693	43.96835
882.9103	42.47968
883.0512	45.55371
883.1921	38.55959
883.333	41.35487
883.4739	40.12506
883.6147	40.06535
883.7556	41.15017
883.8965	41.05864
884.0374	40.82752
884.1782	38.90242
884.319	39.80216
884.4598	39.35028
884.6006	44.50085
884.7414	40.386
884.8822	40.16144
885.0229	42.50762
885.1637	42.15085
885.3044	36.6978
885.4452	43.19349
885.5859	42.68511
885.7266	42.29766
885.8673	46.28141
886.008	39.85497
886.1487	40.74932
886.2894	39.49957
886.43	38.35293
886.5707	33.66909
886.7113	36.0981
886.8519	40.08563
886.9926	41.96093
887.1331	37.15203
887.2737	39.93253
887.4143	43.24232
887.5549	38.98574
887.6954	42.18335
887.836	38.04387
887.9765	40.79183
888.1171	41.87579
888.2576	42.35893
888.3981	38.94362
888.5386	38.2732
888.679	35.85859
888.8195	37.88198
888.96	41.90384
889.1004	38.8817
889.2408	40.96258
889.3813	39.48018
889.5217	41.15894
889.6621	43.92556
889.8025	40.5075
889.9429	38.96384
890.0833	36.21244
890.2236	40.31272
890.364	36.76215
890.5043	38.04378
890.6446	40.6667
890.7849	42.44628
890.9252	40.38992
891.0655	42.4969
891.2058	42.06694
891.3461	42.22754
891.4863	35.96847
891.6266	38.60841
891.7668	37.45558
891.907	38.71194
892.0472	32.6269
892.1874	34.71193
892.3276	36.18183
892.4678	34.88548
892.608	36.44538
892.7481	34.07545
892.8883	33.69435
893.0284	34.92649
893.1685	35.58405
893.3087	36.1643
893.4487	33.38276
893.5889	36.42218
893.7289	33.14803
893.869	35.04763
894.009	39.83725
894.1491	37.32405
894.2891	37.77437
894.4291	37.3951
894.5692	36.51798
894.7092	29.60946
894.8491	34.74093
894.9891	31.05515
895.1291	34.37728
895.269	36.06783
895.409	29.84499
895.549	29.06973
895.6888	28.09283
895.8288	29.23164
895.9687	28.02102
896.1086	34.09256
896.2484	31.86134
896.3883	29.57501
896.5281	31.46071
896.668	29.14528
896.8079	30.32503
896.9476	34.89789
897.0875	30.56293
897.2272	26.46086
897.3671	27.8774
897.5068	26.18727
897.6466	28.82269
897.7864	28.84175
897.9261	27.56936
898.0658	32.49543
898.2056	31.35516
898.3453	27.30947
898.4849	33.918
898.6246	30.12361
898.7643	25.884
898.904	21.01919
899.0436	21.61256
899.1833	23.758
899.3229	22.86173
899.4625	24.78435
899.6021	31.49256
899.7417	26.27847
899.8813	27.49624
900.0209	21.3374
900.1605	21.63007
900.3	25.40026
900.4395	25.81212
900.579	27.64549
900.7186	25.81232
900.8581	24.47104
900.9976	21.4946
901.1371	24.24149
901.2766	30.91848
901.416	31.46889
901.5555	27.93366
901.6949	26.57899
901.8344	25.17899
901.9738	24.71459
902.1132	27.7306
902.2526	25.80089
902.3919	26.4065
902.5313	25.81628
902.6707	29.52068
