SPECTRUM DATA FILE
SpectrumCount:	1
PixelCount:	3648
UserName:	ToughBook User
SampleName:	
LightSource:	
Comments:	
DeviceName:	Qwave
DeviceManufacturer:	Broadcom
DeviceSerialNo:	11311

Name:	last spectrum
Date:	2024-05-02T14:52:45.6949999+02:00
ExposureTime:	0.02
TemporalAvg:	1
IntensityUnit:	normalizedCounts
CCDLoadLevel:	0.05581978
Temperature:	33.14276
DiagramColor:	200
ProcessingSteps:	335

Wavelength [nm]	Intensity1
334.421	9.525702
334.5891	10.98707
334.7573	6.18978
334.9254	8.725842
335.0935	14.49032
335.2616	12.55725
335.4297	10.32692
335.5978	7.384963
335.7659	9.052167
335.934	10.19007
336.1021	6.128818
336.2701	5.151494
336.4382	11.66987
336.6063	7.605447
336.7744	6.948573
336.9424	9.846344
337.1105	10.14732
337.2785	6.563977
337.4466	10.50755
337.6146	11.22942
337.7827	11.34373
337.9507	7.775562
338.1187	9.741664
338.2867	4.700935
338.4548	4.761733
338.6228	7.250666
338.7908	9.178773
338.9588	7.041827
339.1268	5.827168
339.2948	9.887311
339.4628	8.502687
339.6308	6.154192
339.7988	11.01978
339.9667	10.1984
340.1347	12.80504
340.3027	15.13901
340.4707	10.51365
340.6386	7.380915
340.8066	6.356692
340.9745	7.616133
341.1425	9.285911
341.3104	10.91022
341.4784	12.86696
341.6463	10.95393
341.8142	7.851559
341.9821	11.17529
342.1501	11.40001
342.318	11.4167
342.4859	10.13858
342.6538	9.160885
342.8217	10.92366
342.9896	9.758974
343.1575	9.563727
343.3254	9.361447
343.4933	10.69689
343.6612	14.86567
343.829	9.807897
343.9969	8.195612
344.1648	10.97972
344.3326	11.61238
344.5005	15.30163
344.6683	6.66243
344.8362	11.97468
345.004	7.586428
345.1719	14.17746
345.3397	8.655352
345.5075	10.36739
345.6754	11.62842
345.8432	10.68428
346.011	11.01464
346.1788	8.04047
346.3466	10.19974
346.5144	10.26493
346.6822	9.287588
346.85	6.443979
347.0178	8.932281
347.1856	11.39446
347.3534	10.27744
347.5211	11.13385
347.6889	9.08887
347.8567	9.90236
348.0244	9.947015
348.1922	8.156561
348.3599	8.934209
348.5277	13.16168
348.6954	10.40479
348.8632	15.27385
349.0309	8.447459
349.1986	4.97439
349.3663	9.550304
349.5341	8.487659
349.7018	10.17399
349.8695	13.21849
350.0372	12.17691
350.2049	10.26155
350.3726	11.25017
350.5403	9.054037
350.7079	10.62375
350.8756	12.98351
351.0433	15.08335
351.211	13.40741
351.3786	15.89597
351.5463	9.874649
351.714	12.1133
351.8816	12.39775
352.0493	10.16028
352.2169	9.171615
352.3846	11.03222
352.5522	12.47828
352.7198	14.68849
352.8875	12.87051
353.0551	8.546774
353.2227	13.75574
353.3903	12.27869
353.5579	13.02992
353.7255	17.14886
353.8931	13.4295
354.0607	13.85965
354.2283	15.38806
354.3958	9.946653
354.5634	14.81474
354.731	14.98094
354.8986	14.76256
355.0661	8.911423
355.2337	13.99967
355.4012	16.70519
355.5688	14.55804
355.7363	13.48378
355.9039	12.83118
356.0714	11.25841
356.239	11.53842
356.4065	12.32236
356.574	9.846179
356.7415	13.62205
356.909	11.11845
357.0765	13.31103
357.244	11.65485
357.4115	9.85644
357.579	10.20227
357.7465	10.53337
357.914	8.215899
358.0815	6.840578
358.249	11.85978
358.4164	12.48453
358.5839	13.26285
358.7513	15.63323
358.9188	16.89286
359.0862	14.22293
359.2537	11.09077
359.4211	14.62362
359.5886	14.8859
359.756	10.42747
359.9234	14.96027
360.0909	14.30683
360.2583	17.01089
360.4257	13.63299
360.5931	17.90838
360.7605	12.17035
360.9279	13.96378
361.0953	11.71624
361.2627	12.71283
361.4301	12.98222
361.5974	14.36452
361.7648	13.92259
361.9322	11.90504
362.0995	11.08037
362.2669	12.37931
362.4343	15.90172
362.6016	15.16248
362.769	13.22005
362.9363	15.94921
363.1036	12.44702
363.271	15.93823
363.4383	12.0097
363.6056	17.03282
363.7729	12.18313
363.9402	14.82327
364.1075	9.111078
364.2748	15.84585
364.4421	16.17702
364.6094	12.87793
364.7767	17.51116
364.944	15.66738
365.1113	17.77271
365.2786	14.29171
365.4458	18.40469
365.6131	14.72856
365.7803	15.86607
365.9476	18.2716
366.1148	17.15804
366.2821	11.09993
366.4493	12.62469
366.6166	13.0807
366.7838	18.63095
366.951	16.07313
367.1182	17.28368
367.2855	15.86706
367.4527	11.8555
367.6199	11.38878
367.7871	13.97412
367.9543	16.30853
368.1215	11.29842
368.2886	17.30132
368.4558	16.61811
368.623	15.80203
368.7902	14.89417
368.9573	16.03536
369.1245	16.03017
369.2917	17.46456
369.4588	16.49529
369.6259	16.97528
369.7931	19.23992
369.9602	14.61276
370.1274	13.97197
370.2945	15.67656
370.4616	12.67167
370.6287	17.7213
370.7958	15.6752
370.963	10.52073
371.1301	11.64141
371.2971	19.28582
371.4643	17.70106
371.6313	17.95667
371.7984	15.86312
371.9655	16.82306
372.1326	17.65315
372.2997	13.50257
372.4667	17.24357
372.6338	15.56027
372.8008	13.36034
372.9679	14.22441
373.1349	12.79119
373.3019	16.46776
373.469	21.10231
373.636	16.34889
373.803	16.34202
373.9701	19.40179
374.1371	21.44059
374.3041	16.39691
374.4711	14.24083
374.6381	16.64675
374.8051	17.88644
374.9721	14.99082
375.1391	16.37848
375.3061	16.70389
375.473	15.73159
375.64	19.79111
375.8069	20.5193
375.9739	17.53592
376.1409	14.83129
376.3078	18.39798
376.4748	16.81171
376.6417	17.4521
376.8087	17.47399
376.9756	18.74278
377.1425	15.65099
377.3094	11.86566
377.4763	15.54829
377.6432	18.23953
377.8102	21.15067
377.9771	18.93964
378.144	17.86604
378.3109	16.06045
378.4777	17.74735
378.6446	15.86327
378.8115	15.41671
378.9784	19.88553
379.1452	17.42871
379.3121	14.38052
379.4789	14.89645
379.6458	17.47832
379.8127	12.9268
379.9795	15.07932
380.1463	15.71794
380.3131	17.76961
380.48	20.89969
380.6468	19.29018
380.8136	18.05381
380.9804	17.0592
381.1472	16.1722
381.314	15.21873
381.4808	17.70229
381.6476	14.93886
381.8144	14.95071
381.9812	14.79496
382.148	13.55312
382.3147	13.24481
382.4815	12.03385
382.6483	12.37257
382.815	16.3252
382.9818	11.2394
383.1485	9.45563
383.3153	12.91827
383.482	16.27189
383.6487	12.12985
383.8155	17.11072
383.9822	14.91318
384.1489	17.30484
384.3156	20.99735
384.4823	17.19056
384.649	21.76965
384.8157	19.95816
384.9824	19.23502
385.1491	14.64708
385.3158	15.41778
385.4825	18.4274
385.6491	18.96195
385.8158	22.31318
385.9825	18.99221
386.1491	17.41253
386.3157	18.01044
386.4824	18.61534
386.649	21.37214
386.8157	21.41482
386.9823	20.04268
387.1489	18.71946
387.3156	18.14455
387.4821	18.9702
387.6488	21.34849
387.8154	22.14456
387.982	16.0738
388.1486	19.24673
388.3152	17.82157
388.4818	19.41753
388.6483	19.63026
388.8149	17.54923
388.9815	19.70499
389.148	16.43469
389.3146	20.85209
389.4811	19.54822
389.6477	17.7356
389.8142	22.22242
389.9808	16.56614
390.1473	18.3048
390.3138	21.07743
390.4804	22.50606
390.6469	20.25277
390.8134	16.37692
390.9799	19.51787
391.1464	25.85025
391.3129	23.07538
391.4794	19.72509
391.6459	21.18184
391.8124	18.46324
391.9789	20.34355
392.1453	16.18304
392.3118	21.77957
392.4782	22.23945
392.6447	20.78159
392.8112	21.6111
392.9776	20.95438
393.144	15.75466
393.3105	15.67168
393.4769	15.0061
393.6433	18.37846
393.8098	16.26692
393.9762	17.25121
394.1426	21.8945
394.309	23.63924
394.4754	22.73466
394.6418	19.8202
394.8082	22.53898
394.9746	25.41914
395.141	26.66581
395.3073	23.39717
395.4737	21.50839
395.64	26.59558
395.8064	22.28559
395.9728	19.84447
396.1391	25.48769
396.3055	20.44819
396.4718	18.75385
396.6381	22.28881
396.8045	23.09013
396.9708	24.60417
397.1371	27.50425
397.3034	24.80099
397.4697	22.23716
397.636	21.99405
397.8023	25.64922
397.9686	29.00458
398.1349	31.00372
398.3012	29.2035
398.4675	27.84044
398.6337	24.06583
398.8	31.95422
398.9662	27.66843
399.1325	29.12392
399.2988	33.58638
399.465	30.95173
399.6313	28.41252
399.7975	25.58687
399.9637	31.2168
400.1299	30.66158
400.2961	28.79494
400.4624	23.18414
400.6286	29.64606
400.7948	26.04095
400.961	28.87095
401.1272	20.53992
401.2934	28.8971
401.4595	30.48227
401.6257	31.37933
401.7919	29.46393
401.9581	29.27423
402.1242	30.7125
402.2904	30.07711
402.4565	39.95824
402.6227	28.4189
402.7888	24.42376
402.955	24.65435
403.1211	28.40136
403.2872	27.13296
403.4533	26.525
403.6194	27.952
403.7856	29.70639
403.9517	32.83544
404.1177	30.88725
404.2838	28.30889
404.4499	26.92398
404.616	28.57449
404.7821	30.65443
404.9482	32.81006
405.1142	29.10177
405.2803	27.17497
405.4464	30.93044
405.6124	29.72823
405.7784	30.89349
405.9445	32.16342
406.1105	30.82769
406.2766	32.5081
406.4426	36.16651
406.6086	31.20171
406.7746	31.576
406.9406	33.28641
407.1066	30.9837
407.2726	32.49
407.4386	32.65529
407.6046	37.07221
407.7706	37.05418
407.9366	33.50522
408.1025	35.5468
408.2685	36.89412
408.4344	36.79635
408.6004	37.61978
408.7664	34.86041
408.9323	40.15425
409.0983	32.9934
409.2642	39.27126
409.4301	35.71466
409.596	39.1437
409.762	35.7252
409.9279	37.28848
410.0938	36.802
410.2597	37.2476
410.4256	36.97707
410.5915	38.43312
410.7574	35.6952
410.9232	34.91685
411.0891	38.42609
411.255	40.41273
411.4209	45.17656
411.5867	38.70854
411.7526	39.95301
411.9184	40.64777
412.0843	41.21134
412.2501	42.74606
412.4159	40.82583
412.5818	44.08908
412.7476	38.73184
412.9134	37.03257
413.0792	37.224
413.245	40.66048
413.4108	38.34721
413.5766	40.4895
413.7424	43.62159
413.9082	47.1904
414.074	49.58369
414.2397	45.26004
414.4055	38.1325
414.5713	38.41159
414.737	42.98967
414.9028	42.83558
415.0685	39.78727
415.2343	41.80631
415.4	40.21998
415.5658	33.9809
415.7315	38.10525
415.8972	38.16369
416.0629	40.88589
416.2286	47.04833
416.3943	46.01382
416.56	43.2782
416.7257	36.17675
416.8914	39.13513
417.0571	40.211
417.2228	38.89096
417.3884	38.86297
417.5541	39.80971
417.7198	37.98328
417.8854	40.56358
418.0511	45.45547
418.2167	44.28878
418.3824	42.25941
418.548	42.40944
418.7136	45.55103
418.8792	42.81873
419.0449	42.14435
419.2105	42.43704
419.3761	47.98506
419.5417	45.54214
419.7073	36.91786
419.8729	39.65186
420.0385	39.50792
420.204	40.9367
420.3696	39.63084
420.5352	43.34433
420.7007	48.70886
420.8663	49.23249
421.0319	46.66367
421.1974	45.09247
421.3629	50.92778
421.5285	47.67535
421.694	50.28245
421.8595	45.84926
422.0251	46.14267
422.1906	42.63773
422.3561	50.0276
422.5216	46.0826
422.6871	42.55433
422.8526	44.31892
423.0181	42.61037
423.1835	50.60006
423.349	47.79668
423.5145	47.84206
423.68	47.5449
423.8454	47.11044
424.0109	46.75064
424.1763	49.88603
424.3418	48.94199
424.5072	51.56458
424.6726	55.99292
424.838	51.50288
425.0035	43.30313
425.1689	52.86075
425.3343	52.8012
425.4997	49.47971
425.6651	49.37702
425.8305	50.34608
425.9959	50.73406
426.1613	48.4956
426.3267	55.37264
426.492	47.35211
426.6574	48.22741
426.8228	45.06909
426.9881	48.45816
427.1534	49.89425
427.3188	46.02955
427.4841	48.06907
427.6495	48.63595
427.8148	50.65715
427.9801	56.59314
428.1454	55.43428
428.3107	51.72548
428.476	49.12896
428.6414	50.25307
428.8066	52.01513
428.9719	48.66638
429.1372	48.76603
429.3025	47.6471
429.4678	48.01604
429.633	45.20437
429.7983	51.02517
429.9636	49.50048
430.1288	42.37973
430.294	37.78873
430.4593	41.11159
430.6245	46.01907
430.7897	42.71362
430.955	47.56093
431.1202	45.13984
431.2854	50.1732
431.4506	56.74342
431.6158	57.01984
431.781	58.35732
431.9462	57.46331
432.1114	54.89408
432.2766	53.24003
432.4417	48.15131
432.6069	49.05287
432.772	52.15596
432.9372	54.58332
433.1024	52.69932
433.2675	62.61653
433.4326	56.1413
433.5977	59.52337
433.7629	54.14463
433.928	47.08958
434.0931	43.1432
434.2582	46.7007
434.4233	52.04742
434.5884	57.52537
434.7535	57.24752
434.9186	60.53601
435.0837	58.92145
435.2488	59.1185
435.4138	57.3414
435.5789	60.08733
435.744	63.02329
435.909	57.79618
436.0741	60.9303
436.2391	65.06207
436.4042	73.98857
436.5692	63.32515
436.7342	60.80864
436.8992	67.34071
437.0643	60.08718
437.2293	61.37254
437.3943	60.09448
437.5593	62.21951
437.7243	64.78888
437.8893	67.01879
438.0542	59.9558
438.2192	58.1251
438.3842	55.13655
438.5491	58.12428
438.7141	56.13911
438.8791	61.78424
439.044	63.83562
439.209	66.28589
439.3739	64.51006
439.5388	65.31343
439.7037	66.70171
439.8687	63.57737
440.0336	66.81983
440.1985	64.16806
440.3634	62.33296
440.5283	66.03503
440.6932	60.71577
440.8581	62.54372
441.0229	63.97827
441.1878	69.26856
441.3527	69.55431
441.5175	68.71309
441.6824	67.05518
441.8472	69.61014
442.0121	71.54372
442.1769	73.09954
442.3418	74.18056
442.5066	74.89445
442.6714	71.44035
442.8362	71.33727
443.001	72.23796
443.1659	70.09133
443.3307	68.53743
443.4955	69.46198
443.6602	74.45566
443.825	77.68082
443.9898	72.1871
444.1546	74.10754
444.3193	71.42386
444.4841	73.36662
444.6488	70.75611
444.8136	73.84522
444.9783	73.50674
445.1431	74.45863
445.3078	69.04411
445.4725	66.8666
445.6372	69.40714
445.802	67.00159
445.9667	68.05526
446.1314	68.65581
446.2961	63.36081
446.4608	66.70723
446.6255	72.22572
446.7901	70.60623
446.9548	71.63581
447.1195	72.84842
447.2841	74.12461
447.4488	72.8958
447.6134	76.12872
447.7781	80.9019
447.9427	78.62339
448.1074	75.96709
448.272	77.05174
448.4366	73.88378
448.6012	78.67464
448.7658	80.5507
448.9305	77.22941
449.095	77.2984
449.2596	76.3871
449.4242	79.65037
449.5888	77.91199
449.7534	80.10619
449.9179	78.53054
450.0825	74.77324
450.2471	77.95163
450.4116	84.61246
450.5762	87.71477
450.7407	88.79866
450.9052	91.55247
451.0698	87.26456
451.2343	82.60938
451.3988	86.84894
451.5633	87.6722
451.7278	83.82205
451.8923	87.10019
452.0568	87.40734
452.2213	86.5337
452.3858	84.46454
452.5503	83.02216
452.7148	83.62602
452.8792	76.8875
453.0437	84.50994
453.2081	80.27843
453.3726	80.53445
453.537	79.67631
453.7015	79.31072
453.8659	80.29331
454.0303	82.84704
454.1947	82.21307
454.3592	86.1243
454.5236	91.73874
454.688	90.0084
454.8524	82.80621
455.0168	82.91792
455.1811	81.91998
455.3455	83.89422
455.5099	81.96657
455.6743	83.95799
455.8386	89.47047
456.003	88.5358
456.1673	94.66561
456.3317	92.34952
456.496	92.95811
456.6603	90.10248
456.8246	97.17614
456.989	94.84193
457.1533	92.24092
457.3176	91.03094
457.4819	90.5628
457.6462	89.76355
457.8105	98.48051
457.9748	87.30656
458.1391	84.01072
458.3033	88.35424
458.4676	88.17017
458.6319	88.50542
458.7961	88.99587
458.9604	87.36452
459.1246	89.21547
459.2888	86.61639
459.4531	92.6633
459.6173	98.61183
459.7815	84.89883
459.9457	79.37246
460.11	90.95154
460.2741	93.53645
460.4384	85.70851
460.6025	93.06567
460.7667	93.08624
460.9309	87.44151
461.0951	88.06601
461.2592	88.90368
461.4234	92.72993
461.5876	91.42168
461.7517	90.3436
461.9159	97.1754
462.08	97.14188
462.2441	93.75626
462.4082	92.15668
462.5724	96.67864
462.7365	97.01536
462.9006	88.29803
463.0647	89.41523
463.2288	90.4139
463.3929	93.6752
463.557	89.41007
463.721	85.19701
463.8851	88.52775
464.0492	88.7299
464.2132	92.73124
464.3773	98.53503
464.5414	101.2921
464.7054	92.7029
464.8694	89.8648
465.0334	96.03864
465.1975	96.16916
465.3615	94.60218
465.5255	89.73199
465.6895	92.37405
465.8535	94.2705
466.0175	97.03707
466.1815	93.67419
466.3455	94.46187
466.5095	93.40894
466.6734	92.99242
466.8374	90.90395
467.0014	91.79898
467.1653	92.04919
467.3293	91.63486
467.4932	96.53459
467.6571	96.74082
467.8211	97.98192
467.985	93.77234
468.1489	90.92458
468.3128	94.29455
468.4767	94.97461
468.6406	97.67594
468.8045	97.85008
468.9684	97.49699
469.1323	102.5417
469.2962	96.60531
469.46	95.22419
469.6239	101.7675
469.7878	102.4728
469.9516	94.85561
470.1154	97.39478
470.2793	92.72211
470.4431	90.91832
470.607	90.40534
470.7708	97.45979
470.9346	97.88398
471.0984	103.5983
471.2622	102.3933
471.426	99.60748
471.5898	101.8741
471.7536	96.04755
471.9174	100.7758
472.0811	99.14507
472.2449	105.6122
472.4087	112.4326
472.5724	95.09816
472.7362	96.70251
472.8999	105.3755
473.0637	101.9934
473.2274	97.94619
473.3911	101.1255
473.5548	105.147
473.7185	97.4351
473.8822	100.1019
474.0459	102.4424
474.2096	102.7225
474.3733	97.98626
474.537	105.8079
474.7007	110.097
474.8643	111.2947
475.028	104.5217
475.1917	101.8502
475.3553	102.217
475.519	101.2792
475.6826	97.82813
475.8463	105.4475
476.0099	104.1421
476.1735	99.44878
476.3371	99.82686
476.5007	103.163
476.6643	101.9781
476.8279	103.8039
476.9915	102.8079
477.1551	106.3669
477.3187	98.80679
477.4823	99.56906
477.6458	104.6309
477.8094	101.1707
477.9729	104.2346
478.1365	110.3219
478.3	104.2071
478.4636	105.8717
478.6271	103.0715
478.7906	101.1017
478.9541	100.3504
479.1176	101.3162
479.2812	101.8099
479.4447	107.7876
479.6082	99.00762
479.7716	110.9918
479.9351	102.9334
480.0986	101.9781
480.2621	104.8905
480.4255	102.1399
480.589	109.4632
480.7524	107.6102
480.9159	106.4216
481.0793	108.0019
481.2428	100.3999
481.4062	97.27183
481.5696	108.9927
481.733	107.0158
481.8964	105.6958
482.0598	101.94
482.2232	102.709
482.3866	103.6742
482.55	102.5555
482.7134	107.648
482.8768	107.8647
483.0401	105.2323
483.2035	103.9095
483.3668	107.4382
483.5302	106.6474
483.6935	102.2458
483.8568	98.75731
484.0202	105.7741
484.1835	99.12378
484.3468	101.1406
484.5101	101.4814
484.6734	103.6443
484.8367	103.7309
485	111.6895
485.1633	112.8357
485.3266	103.0275
485.4899	98.40421
485.6531	98.43848
485.8164	92.92083
485.9796	91.15057
486.1429	89.86919
486.3061	82.47863
486.4694	90.1049
486.6326	93.34447
486.7958	98.63065
486.959	98.98453
487.1223	92.14717
487.2855	97.27538
487.4486	100.7512
487.6118	106.5338
487.775	105.576
487.9382	107.7817
488.1014	110.604
488.2646	106.7539
488.4277	104.6662
488.5909	105.7367
488.754	103.7925
488.9171	102.6962
489.0803	97.85815
489.2434	101.5899
489.4066	109.9499
489.5697	109.4301
489.7328	105.1922
489.8959	111.5814
490.059	110.4892
490.2221	110.3441
490.3852	111.066
490.5482	112.9261
490.7113	117.3505
490.8744	111.6752
491.0374	111.962
491.2005	110.4681
491.3636	110.2576
491.5266	110.6772
491.6896	107.2997
491.8527	105.3718
492.0157	98.24755
492.1787	99.53011
492.3417	105.4655
492.5047	113.1249
492.6677	117.9601
492.8307	112.1395
492.9937	108.7258
493.1567	107.7742
493.3196	107.5928
493.4826	110.8431
493.6456	106.4455
493.8085	109.408
493.9715	108.2262
494.1344	111.2293
494.2974	110.3583
494.4603	120.6189
494.6232	119.6245
494.7861	114.2451
494.949	111.1939
495.1119	115.7682
495.2748	117.3286
495.4377	116.9655
495.6006	114.6073
495.7635	110.7734
495.9264	110.0226
496.0892	114.335
496.2521	118.5232
496.4149	119.3617
496.5778	118.0812
496.7407	110.997
496.9035	116.6153
497.0663	120.0867
497.2291	114.0504
497.3919	115.8463
497.5547	119.5994
497.7176	117.8056
497.8804	117.5951
498.0432	114.1279
498.2059	116.246
498.3687	114.1349
498.5315	118.7579
498.6942	123.5636
498.857	122.1646
499.0198	118.5127
499.1825	124.5193
499.3452	120.81
499.508	122.0607
499.6707	114.6934
499.8334	114.7945
499.9962	114.8238
500.1589	116.7545
500.3216	117.5193
500.4843	123.9558
500.6469	122.6711
500.8096	125.7397
500.9723	123.6668
501.135	121.0101
501.2976	122.528
501.4603	109.0808
501.623	108.3375
501.7856	112.9651
501.9482	118.0204
502.1109	120.0031
502.2735	124.2396
502.4361	126.1625
502.5987	123.559
502.7614	121.6351
502.924	122.7736
503.0865	120.254
503.2491	126.0072
503.4117	130.7715
503.5743	127.9031
503.7368	121.5023
503.8994	121.1117
504.062	114.5674
504.2245	112.6851
504.3871	120.3732
504.5496	128.034
504.7121	123.6052
504.8746	125.1096
505.0372	128.4769
505.1997	122.1131
505.3622	126.7989
505.5247	133.9429
505.6872	133.4164
505.8497	137.5531
506.0121	138.2093
506.1746	139.5635
506.3371	137.2666
506.4995	129.55
506.662	137.6271
506.8244	132.3654
506.9869	137.5761
507.1493	138.7667
507.3117	137.179
507.4742	136.6039
507.6366	139.0928
507.799	141.418
507.9614	137.4308
508.1238	139.5621
508.2862	135.8177
508.4485	133.7205
508.6109	137.385
508.7733	137.5384
508.9357	139.092
509.098	150.9021
509.2604	148.3046
509.4227	145.1265
509.5851	137.0728
509.7474	136.8386
509.9097	142.8269
510.072	144.061
510.2343	136.7381
510.3966	144.1499
510.5589	140.061
510.7212	136.2656
510.8835	140.7904
511.0458	144.2895
511.2081	147.7687
511.3703	154.2744
511.5326	152.1018
511.6949	158.3141
511.8571	156.0545
512.0193	153.1653
512.1816	153.5314
512.3438	147.4913
512.506	141.841
512.6682	145.2417
512.8304	151.5471
512.9926	152.9503
513.1548	153.3308
513.317	159.1212
513.4792	153.8289
513.6414	148.1286
513.8035	142.7405
513.9657	139.8591
514.1279	145.9661
514.29	150.4547
514.4521	156.0754
514.6143	152.8038
514.7764	151.2877
514.9385	152.9654
515.1006	155.7652
515.2628	156.8646
515.4249	156.3872
515.587	154.1526
515.7491	157.5182
515.9111	159.759
516.0732	165.6506
516.2353	167.7894
516.3973	159.3066
516.5594	151.7041
516.7214	145.4708
516.8835	139.0306
517.0455	141.4746
517.2076	141.8419
517.3696	142.3348
517.5316	149.2659
517.6937	171.2347
517.8557	169.3504
518.0176	166.9411
518.1796	155.3341
518.3416	149.8595
518.5036	143.0019
518.6656	150.5809
518.8275	161.3464
518.9895	167.4292
519.1514	170.8126
519.3134	169.4929
519.4753	173.6379
519.6373	175.8522
519.7992	174.7558
519.9611	181.8891
520.123	184.8179
520.2849	184.0248
520.4468	183.785
520.6087	178.5079
520.7706	170.566
520.9325	180.9176
521.0944	184.0339
521.2562	191.7111
521.4181	183.2337
521.58	184.4548
521.7418	187.5325
521.9036	186.7758
522.0655	202.3167
522.2273	208.3858
522.3891	195.5866
522.551	183.8189
522.7128	188.3532
522.8746	185.3921
523.0363	194.567
523.1981	194.9682
523.3599	191.1794
523.5217	185.1985
523.6835	194.3723
523.8452	208.3891
524.007	212.9446
524.1687	204.5411
524.3304	203.9437
524.4922	208.5235
524.6539	219.9204
524.8157	216.371
524.9774	213.293
525.1391	208.6089
525.3008	207.7495
525.4625	217.7768
525.6241	225.6084
525.7858	212.5842
525.9475	214.0638
526.1092	211.4026
526.2709	202.4823
526.4325	192.6844
526.5942	189.075
526.7558	187.027
526.9174	196.1203
527.079	194.5024
527.2407	200.5123
527.4023	208.3298
527.5639	216.8652
527.7255	218.9908
527.8871	224.665
528.0487	230.5719
528.2103	226.8167
528.3718	224.1602
528.5334	217.672
528.695	226.0179
528.8565	239.069
529.0181	237.9244
529.1796	234.6744
529.3412	240.6624
529.5027	239.1129
529.6642	232.8258
529.8257	227.1762
529.9872	236.6296
530.1487	235.5276
530.3102	233.0519
530.4717	235.1731
530.6332	234.6963
530.7947	236.8
530.9562	243.5446
531.1176	249.4895
531.2791	255.0712
531.4405	252.222
531.6019	245.71
531.7634	240.5113
531.9248	236.4981
532.0862	240.0574
532.2477	240.9058
532.4091	231.7037
532.5704	229.2041
532.7319	222.9176
532.8932	231.6432
533.0546	229.3479
533.216	240.3767
533.3774	251.2218
533.5388	249.0359
533.7001	243.3295
533.8615	239.6108
534.0228	239.2442
534.1841	242.985
534.3455	245.9097
534.5068	240.8541
534.6681	242.7117
534.8293	237.3966
534.9907	234.7766
535.152	244.3657
535.3132	252.7295
535.4745	254.8399
535.6358	254.6151
535.7971	254.7078
535.9583	257.6811
536.1196	253.6441
536.2808	245.5751
536.4421	238.6039
536.6033	236.3239
536.7645	240.5127
536.9258	240.4628
537.087	226.9251
537.2482	232.5765
537.4094	244.0793
537.5706	252.929
537.7318	251.6961
537.8929	248.9257
538.0541	249.7611
538.2153	252.5585
538.3764	246.0562
538.5376	249.4375
538.6987	247.5102
538.8599	250.5912
539.021	250.6026
539.1821	242.1136
539.3432	243.0332
539.5043	237.2315
539.6655	237.3856
539.8265	239.1225
539.9876	242.0378
540.1487	246.9989
540.3098	234.9033
540.4708	233.7856
540.6319	231.5079
540.793	230.7265
540.954	233.7557
541.1151	245.2803
541.2761	236.5517
541.4371	239.8792
541.5981	239.2488
541.7592	242.6054
541.9202	249.3548
542.0812	244.6484
542.2422	233.8941
542.4031	239.0233
542.5641	247.1959
542.7251	249.2168
542.886	252.1618
543.0471	244.5211
543.208	241.6901
543.369	242.1408
543.5298	242.009
543.6908	245.422
543.8517	250.1935
544.0126	255.0363
544.1736	257.1388
544.3345	264.2555
544.4954	256.609
544.6563	244.8133
544.8171	240.9349
544.978	248.1737
545.1389	256.368
545.2997	246.3712
545.4606	237.9419
545.6215	244.3299
545.7823	248.8628
545.9432	254.5429
546.104	254.9118
546.2648	251.3948
546.4256	245.164
546.5864	243.9494
546.7473	252.4419
546.908	253.0215
547.0688	257.3031
547.2296	250.5466
547.3904	252.6335
547.5511	245.1297
547.7119	235.3581
547.8727	240.4175
548.0334	246.8131
548.1942	246.3236
548.3549	251.1707
548.5156	255.3072
548.6763	255.8199
548.837	256.3959
548.9977	251.7558
549.1584	252.1037
549.3192	252.0495
549.4798	253.7414
549.6405	253.119
549.8011	253.1821
549.9619	255.8813
550.1225	252.8781
550.2831	252.0113
550.4438	246.9767
550.6044	253.1687
550.765	257.9606
550.9257	253.2541
551.0863	251.0974
551.2469	246.4757
551.4075	257.4533
551.5681	252.9797
551.7287	246.2041
551.8893	256.9996
552.0498	264.2012
552.2104	258.1469
552.371	263.8904
552.5315	255.5515
552.6921	247.6412
552.8526	251.4669
553.0131	249.5053
553.1736	253.7161
553.3342	254.0005
553.4947	246.8112
553.6552	248.7527
553.8157	255.0412
553.9762	259.9425
554.1367	251.3418
554.2971	245.7825
554.4576	252.7404
554.618	253.3165
554.7785	255.2057
554.939	257.1446
555.0994	258.1306
555.2598	259.5694
555.4203	250.6101
555.5807	243.147
555.7411	251.6487
555.9015	251.0202
556.0619	246.7367
556.2223	244.6951
556.3827	245.5915
556.5431	245.0613
556.7034	244.8762
556.8638	249.8315
557.0242	246.6086
557.1845	234.3429
557.3448	233.9202
557.5052	237.859
557.6655	245.5864
557.8259	246.0756
557.9861	247.4898
558.1465	246.0663
558.3068	237.5393
558.467	241.2253
558.6274	237.4141
558.7877	225.9727
558.9479	228.6565
559.1082	228.0261
559.2684	234.5339
559.4287	238.567
559.5889	237.8816
559.7491	237.46
559.9094	229.0748
560.0696	223.2783
560.2299	227.8197
560.3901	238.7826
560.5502	243.6206
560.7104	240.1482
560.8707	243.0363
561.0308	241.3374
561.191	240.8963
561.3511	229.0041
561.5114	226.097
561.6714	222.0972
561.8316	224.7613
561.9918	235.0687
562.1519	235.8374
562.312	236.3737
562.4722	224.4723
562.6323	231.4099
562.7924	231.8777
562.9525	232.3933
563.1125	233.0427
563.2726	232.7719
563.4327	237.7807
563.5928	226.8163
563.7528	221.7918
563.9129	223.9884
564.0729	225.7913
564.233	223.0627
564.393	223.7771
564.553	227.8484
564.7131	220.7376
564.873	231.5591
565.0331	226.0246
565.1931	221.2423
565.353	220.3708
565.5131	220.9792
565.673	219.3424
565.833	210.0675
565.9929	205.2653
566.1529	208.8154
566.3129	214.0912
566.4728	210.4357
566.6328	213.5508
566.7927	210.5876
566.9526	224.1681
567.1125	218.8384
567.2724	218.7365
567.4323	219.4687
567.5922	212.7579
567.7521	219.4188
567.9119	219.8372
568.0718	219.332
568.2317	211.3214
568.3915	210.4668
568.5514	208.438
568.7112	209.2031
568.871	207.8092
569.0309	200.988
569.1907	206.4935
569.3505	210.6119
569.5103	207.6502
569.6701	207.7198
569.8299	210.2024
569.9897	208.2384
570.1495	208.9318
570.3092	204.8664
570.469	197.6047
570.6287	195.3645
570.7885	191.9678
570.9482	190.1352
571.108	187.4173
571.2677	192.7446
571.4274	197.1196
571.5871	196.5169
571.7468	199.9505
571.9066	197.6756
572.0662	200.3465
572.2259	208.5509
572.3856	208.2968
572.5452	203.5478
572.7049	198.2909
572.8646	201.6574
573.0242	196.474
573.1838	208.964
573.3435	203.1011
573.5031	200.8827
573.6627	206.6649
573.8223	204.6044
573.9819	201.9429
574.1415	197.3083
574.3011	199.9445
574.4607	203.9601
574.6203	203.732
574.7798	193.4646
574.9394	189.4661
575.099	184.2561
575.2585	184.3916
575.418	187.4459
575.5776	183.3348
575.7371	189.5777
575.8966	195.4388
576.0562	192.6115
576.2156	183.8524
576.3751	188.372
576.5346	188.9677
576.6941	186.7944
576.8536	185.1247
577.0131	186.7259
577.1725	185.0929
577.332	189.5586
577.4914	187.9063
577.6508	183.1389
577.8103	186.7921
577.9697	183.2229
578.1291	177.2039
578.2885	167.1216
578.4479	177.1406
578.6073	176.3546
578.7667	179.8871
578.9261	183.3951
579.0854	181.7458
579.2448	177.3949
579.4042	174.1853
579.5635	176.7826
579.7229	181.8276
579.8822	183.4044
580.0416	187.524
580.2009	180.0035
580.3602	180.8364
580.5195	173.2723
580.6788	178.8458
580.8381	175.4325
580.9974	167.2542
581.1566	172.8001
581.3159	173.2611
581.4752	172.7163
581.6345	168.627
581.7937	176.6609
581.9529	170.931
582.1122	181.0484
582.2714	175.5453
582.4306	177.9293
582.5898	167.2069
582.749	171.8373
582.9082	171.3707
583.0674	166.7284
583.2266	172.0263
583.3857	171.2936
583.5449	170.655
583.7041	171.5921
583.8633	169.8607
584.0224	170.1281
584.1815	170.5434
584.3407	169.0461
584.4998	166.1609
584.6589	168.8751
584.818	169.0272
584.9771	169.7728
585.1362	164.3394
585.2953	161.9513
585.4544	163.9526
585.6135	161.4075
585.7725	164.0003
585.9316	159.7352
586.0906	164.1709
586.2497	161.3611
586.4087	160.9686
586.5677	162.0487
586.7267	164.1173
586.8858	155.8428
587.0448	161.3853
587.2038	158.637
587.3628	160.4858
587.5218	165.445
587.6807	158.1887
587.8397	152.1185
587.9987	157.1554
588.1577	151.2085
588.3166	155.498
588.4755	153.8505
588.6345	150.997
588.7934	143.4569
588.9523	143.4961
589.1112	144.4621
589.2701	138.3763
589.429	129.3699
589.5879	143.4395
589.7468	144.8531
589.9056	149.7777
590.0645	144.7419
590.2234	149.6079
590.3822	153.5284
590.5411	152.8557
590.6999	147.0808
590.8588	150.3867
591.0176	150.4762
591.1764	154.3924
591.3352	147.2203
591.494	154.6229
591.6528	152.889
591.8116	148.9824
591.9703	150.7238
592.1291	145.846
592.2878	147.7796
592.4467	148.2142
592.6053	144.8467
592.7641	147.3708
592.9229	148.0358
593.0816	152.757
593.2403	145.7286
593.399	149.7848
593.5577	155.2317
593.7164	150.7073
593.8751	147.753
594.0338	147.391
594.1924	146.7046
594.3511	146.6156
594.5098	141.276
594.6684	146.5188
594.8271	145.5714
594.9857	138.8863
595.1443	144.9259
595.303	150.7112
595.4615	152.0607
595.6202	139.5362
595.7787	146.0954
595.9374	142.9859
596.0959	146.3761
596.2545	145.577
596.4131	146.7206
596.5717	150.6708
596.7302	148.4743
596.8887	146.1731
597.0473	146.3755
597.2058	144.6678
597.3644	145.2021
597.5229	142.142
597.6814	140.7288
597.8399	143.1214
597.9984	144.0488
598.1569	143.5218
598.3154	140.5201
598.4738	141.6759
598.6323	142.8775
598.7908	146.2357
598.9492	142.7144
599.1076	142.1159
599.2661	141.0515
599.4245	143.435
599.5829	151.1746
599.7413	141.4234
599.8997	138.7265
600.0581	141.0899
600.2165	142.1547
600.3749	143.4507
600.5333	140.5209
600.6917	146.1296
600.85	149.5723
601.0084	150.1479
601.1667	141.8045
601.325	143.9618
601.4833	141.1904
601.6417	144.7319
601.8	147.7139
601.9583	140.4446
602.1166	140.0256
602.2749	138.6176
602.4332	131.33
602.5914	139.9148
602.7498	136.978
602.908	139.8579
603.0662	148.7381
603.2245	142.9978
603.3828	143.2652
603.541	145.3518
603.6992	140.9521
603.8574	145.6354
604.0156	138.7258
604.1738	135.8564
604.332	141.7567
604.4902	138.7154
604.6484	144.6939
604.8065	140.9409
604.9647	140.0669
605.1229	139.3356
605.281	141.4751
605.4391	137.1519
605.5973	135.5162
605.7554	136.1899
605.9135	144.6393
606.0717	138.2758
606.2297	136.7646
606.3878	133.8642
606.5459	136.7109
606.704	140.6927
606.8621	137.4617
607.0201	138.4251
607.1782	135.9463
607.3362	136.7979
607.4943	130.7606
607.6523	130.2073
607.8104	136.1492
607.9684	132.8883
608.1264	131.0681
608.2844	133.2335
608.4424	134.4328
608.6003	133.9324
608.7584	140.3761
608.9163	136.6811
609.0743	137.3665
609.2322	133.8224
609.3902	131.8662
609.5482	130.2457
609.7061	131.408
609.864	129.4055
610.0219	128.8082
610.1798	128.017
610.3377	125.1231
610.4956	132.3135
610.6535	129.9535
610.8114	133.3661
610.9693	132.554
611.1271	135.4034
611.285	124.1294
611.4429	129.4255
611.6007	135.3208
611.7585	131.678
611.9164	134.8041
612.0742	127.64
612.232	128.6524
612.3898	124.4001
612.5476	122.0952
612.7054	125.2165
612.8632	121.044
613.0209	121.6901
613.1787	128.1396
613.3365	125.6621
613.4942	122.0635
613.652	118.8998
613.8097	124.2979
613.9674	116.2115
614.1252	119.8699
614.2829	122.4432
614.4406	122.6006
614.5983	125.3219
614.756	126.4314
614.9136	127.2596
615.0714	127.5377
615.229	127.1852
615.3867	119.0598
615.5443	120.3887
615.702	116.2758
615.8596	120.1705
616.0172	119.3134
616.1748	118.4671
616.3325	114.8214
616.4901	114.408
616.6476	120.1105
616.8052	118.9198
616.9628	120.8811
617.1204	123.3122
617.278	119.6482
617.4355	120.8552
617.5931	120.7031
617.7506	121.3085
617.9081	114.8093
618.0657	113.9666
618.2232	115.4123
618.3807	120.213
618.5382	112.6837
618.6957	113.4782
618.8532	120.3237
619.0107	110.432
619.1682	117.2337
619.3256	122.4079
619.4831	116.385
619.6406	118.1925
619.798	122.0326
619.9554	120.6806
620.1129	123.5524
620.2703	123.551
620.4277	123.0858
620.5851	119.8475
620.7425	114.7771
620.8998	112.032
621.0573	118.1809
621.2146	114.3421
621.372	115.0717
621.5294	118.5952
621.6867	116.6349
621.8441	113.5158
622.0013	117.6238
622.1587	113.8409
622.316	112.7676
622.4733	116.4379
622.6306	111.6961
622.7879	114.1145
622.9452	111.6324
623.1025	111.2136
623.2598	112.5578
623.4171	106.6853
623.5743	103.2014
623.7316	112.292
623.8888	109.2579
624.046	114.4333
624.2032	110.9259
624.3605	101.8237
624.5176	107.6079
624.6749	111.1455
624.8321	109.4668
624.9893	112.4892
625.1464	112.7433
625.3036	112.3621
625.4608	110.0413
625.6179	109.5279
625.7751	108.872
625.9322	111.02
626.0894	113.302
626.2465	110.5321
626.4036	111.9992
626.5607	108.0147
626.7178	111.6125
626.8749	108.1995
627.032	103.3332
627.189	103.6946
627.3461	108.1768
627.5032	111.5245
627.6602	105.1645
627.8173	102.0704
627.9743	107.2416
628.1313	101.0647
628.2884	104.5278
628.4454	111.7081
628.6024	106.8435
628.7594	108.3562
628.9164	112.9814
629.0734	116.5376
629.2303	109.6533
629.3873	105.3772
629.5443	107.638
629.7012	116.731
629.8582	105.0349
630.0151	104.7421
630.172	105.6775
630.3289	107.7388
630.4858	111.5262
630.6428	107.4606
630.7996	109.5944
630.9565	102.5781
631.1134	103.8103
631.2703	106.0338
631.4272	106.8161
631.584	102.4728
631.7408	103.0657
631.8977	105.1463
632.0546	104.6574
632.2114	105.5947
632.3682	103.7936
632.525	104.1687
632.6818	110.1667
632.8386	108.6069
632.9954	107.734
633.1522	106.9952
633.3089	109.3826
633.4657	106.7967
633.6224	103.9662
633.7792	102.5315
633.9359	101.1632
634.0927	102.7137
634.2494	107.1003
634.4061	102.5878
634.5628	106.1482
634.7195	105.3964
634.8762	105.2047
635.0329	101.3936
635.1895	105.984
635.3462	101.5158
635.5029	101.5889
635.6595	101.9226
635.8162	103.6839
635.9728	102.2118
636.1295	101.4627
636.2861	105.6261
636.4427	104.5078
636.5992	103.5844
636.7559	99.71167
636.9124	100.8005
637.069	98.38689
637.2256	101.4116
637.3821	100.6638
637.5387	103.9802
637.6953	98.71879
637.8518	95.7542
638.0084	102.4173
638.1649	106.5238
638.3214	108.3573
638.4779	100.9222
638.6344	96.09087
638.7909	101.5109
638.9474	100.056
639.1038	97.24271
639.2603	99.38834
639.4167	98.20885
639.5732	98.23617
639.7297	97.42912
639.8861	95.81182
640.0425	91.9531
640.199	93.31529
640.3553	98.54264
640.5118	92.21762
640.6682	98.03716
640.8245	106.0023
640.981	97.14199
641.1373	94.88767
641.2936	98.33788
641.45	95.83137
641.6064	93.56656
641.7627	94.21134
641.9191	90.4539
642.0754	96.20672
642.2317	99.13875
642.388	95.77657
642.5443	91.88429
642.7006	92.75138
642.8569	94.97631
643.0131	91.7642
643.1694	88.83736
643.3257	93.7225
643.4819	88.60166
643.6382	93.86697
643.7944	92.09599
643.9506	92.46227
644.1069	89.71874
644.2631	88.60899
644.4193	86.22757
644.5754	86.41644
644.7316	88.522
644.8878	88.07091
645.044	86.91039
645.2002	93.51067
645.3563	90.97404
645.5125	85.33135
645.6686	88.53506
645.8248	84.51795
645.9809	85.63215
646.137	84.14823
646.2931	86.33138
646.4492	83.8603
646.6053	90.13289
646.7614	86.37246
646.9174	84.79935
647.0735	86.48093
647.2296	87.47769
647.3856	85.97781
647.5417	84.35499
647.6977	84.80331
647.8537	81.59346
648.0098	82.68072
648.1658	82.83449
648.3218	82.85887
648.4777	79.43469
648.6337	78.31207
648.7897	86.08755
648.9457	87.86558
649.1016	81.44897
649.2576	79.27171
649.4135	73.92698
649.5695	75.26053
649.7254	76.46368
649.8813	75.52416
650.0372	80.61414
650.1932	87.95051
650.3491	87.94753
650.5049	88.34889
650.6608	81.67988
650.8167	84.50399
650.9725	79.20029
651.1284	87.56441
651.2842	80.76659
651.4401	81.52811
651.5959	80.5323
651.7518	72.5046
651.9076	75.8333
652.0634	83.24271
652.2192	85.89297
652.3749	83.05557
652.5308	79.03213
652.6865	80.86331
652.8423	80.05827
652.998	83.29626
653.1538	80.31979
653.3096	82.47836
653.4653	81.2114
653.621	78.14175
653.7767	80.81622
653.9324	85.98753
654.0881	80.65594
654.2438	82.21398
654.3995	81.08207
654.5552	75.66133
654.7109	80.20448
654.8665	80.0284
655.0222	79.60921
655.1778	82.98817
655.3334	76.47307
655.4891	81.59592
655.6447	83.97374
655.8003	75.00414
655.9559	74.89805
656.1115	75.99717
656.2671	68.82152
656.4227	72.79691
656.5782	65.9991
656.7338	71.41769
656.8893	74.72328
657.0449	76.11468
657.2004	72.54253
657.356	80.08051
657.5115	78.62532
657.667	76.75815
657.8225	76.44769
657.978	76.90759
658.1335	75.64767
658.289	74.83121
658.4445	78.07079
658.5999	77.29263
658.7554	77.01737
658.9108	78.94248
659.0663	71.12368
659.2217	72.60233
659.3771	68.41611
659.5325	72.41436
659.6879	74.64285
659.8433	76.71449
659.9987	79.75897
660.1541	78.6916
660.3095	76.41289
660.4648	73.93771
660.6202	77.77277
660.7756	77.52255
660.9309	77.69449
661.0862	75.97545
661.2416	78.83432
661.3969	80.31457
661.5522	72.36186
661.7075	71.91998
661.8628	72.38429
662.0181	74.79187
662.1733	70.89294
662.3286	70.75937
662.4839	72.99626
662.6391	74.55468
662.7944	76.45676
662.9496	73.80356
663.1048	68.32963
663.26	71.50243
663.4152	72.62189
663.5704	74.01674
663.7256	74.71587
663.8808	73.15148
664.036	74.57348
664.1912	72.07811
664.3463	69.037
664.5015	74.56463
664.6566	73.19278
664.8118	71.83502
664.9669	67.06241
665.122	72.55073
665.2771	73.61221
665.4322	74.12939
665.5873	70.16422
665.7424	65.75742
665.8975	73.77663
666.0526	68.38223
666.2076	70.04469
666.3627	70.47526
666.5177	69.24126
666.6727	67.05663
666.8278	69.9901
666.9828	71.01453
667.1378	67.24549
667.2928	66.93976
667.4478	66.92904
667.6028	68.19592
667.7578	65.25054
667.9127	68.28106
668.0677	69.14053
668.2226	67.47007
668.3776	67.29547
668.5325	68.39632
668.6874	69.47733
668.8423	66.29613
668.9973	66.03407
669.1522	66.01141
669.3071	65.62103
669.4619	64.99412
669.6168	67.18587
669.7717	66.49467
669.9265	70.38722
670.0814	72.13781
670.2362	69.34255
670.3911	64.81316
670.5459	69.76377
670.7007	68.332
670.8555	62.73258
671.0103	64.14146
671.1651	64.8267
671.3199	62.72901
671.4747	65.9977
671.6295	68.03886
671.7842	62.86661
671.939	60.23656
672.0937	61.25945
672.2484	72.85245
672.4031	70.48473
672.5579	62.80178
672.7126	64.59409
672.8673	59.0296
673.022	67.58418
673.1767	72.35175
673.3314	62.48201
673.486	61.6137
673.6407	67.15806
673.7953	66.49999
673.95	66.6748
674.1046	64.61142
674.2592	63.01903
674.4138	62.87243
674.5684	61.76955
674.723	63.63541
674.8776	69.86903
675.0322	59.56347
675.1868	58.95836
675.3414	64.40405
675.4959	65.78371
675.6505	65.70712
675.805	66.68761
675.9595	67.9263
676.1141	62.64664
676.2686	66.85194
676.4231	66.76398
676.5776	62.85556
676.7321	65.51698
676.8866	65.05369
677.041	61.52885
677.1955	58.78232
677.35	64.6239
677.5044	66.72449
677.6589	59.15281
677.8133	54.71828
677.9677	59.72303
678.1221	57.98777
678.2766	59.99568
678.4309	62.99053
678.5853	64.13235
678.7397	61.75688
678.8941	58.57627
679.0485	56.59613
679.2028	54.90076
679.3571	60.15461
679.5115	62.06896
679.6658	61.36868
679.8201	61.27044
679.9744	62.22937
680.1288	64.44691
680.2831	66.55767
680.4373	59.84991
680.5916	61.94957
680.7459	59.83918
680.9001	62.01153
681.0544	63.77089
681.2087	66.52112
681.3629	57.17851
681.5171	60.72931
681.6713	64.34229
681.8256	67.69112
681.9797	58.67244
682.134	64.23497
682.2881	64.41486
682.4423	59.64488
682.5965	59.36111
682.7507	60.52899
682.9048	62.94915
683.059	64.30444
683.2131	62.04168
683.3672	64.47695
683.5213	62.13456
683.6754	62.37681
683.8295	59.52106
683.9836	59.3133
684.1377	64.70382
684.2918	56.7252
684.4459	55.34892
684.5999	62.67175
684.754	63.22264
684.908	64.19291
685.062	64.68004
685.2161	65.47337
685.3701	64.05869
685.5241	66.58643
685.6781	60.00937
685.8321	60.6935
685.9861	64.05504
686.14	60.87254
686.294	60.29063
686.4479	62.27983
686.6019	66.14239
686.7559	60.71526
686.9098	53.47124
687.0637	53.37201
687.2176	50.62572
687.3715	55.67876
687.5254	53.64282
687.6793	56.2886
687.8332	59.76609
687.9871	58.63355
688.1409	62.09524
688.2947	60.2742
688.4486	57.05039
688.6024	60.0218
688.7563	58.91764
688.9101	61.23287
689.0639	62.39147
689.2177	64.37976
689.3715	62.32686
689.5253	63.02005
689.6791	57.99015
689.8328	62.15646
689.9866	57.08111
690.1403	58.0243
690.2941	55.81543
690.4478	64.77267
690.6015	59.71865
690.7552	63.80468
690.9089	64.11877
691.0626	62.6124
691.2164	61.7923
691.37	63.48848
691.5237	58.9936
691.6774	64.75446
691.831	68.29426
691.9847	67.05167
692.1383	65.50099
692.2919	66.93846
692.4456	68.29552
692.5992	70.92295
692.7527	67.70438
692.9064	68.38795
693.0599	66.18262
693.2136	69.94181
693.3671	67.88387
693.5207	72.92361
693.6742	70.48917
693.8278	72.76835
693.9813	71.61885
694.1348	70.85907
694.2883	73.93988
694.4418	73.65797
694.5953	72.32463
694.7488	71.10873
694.9023	69.01303
695.0558	73.134
695.2093	73.04343
695.3627	74.73227
695.5162	76.05672
695.6696	77.59617
695.8231	74.8674
695.9764	80.30894
696.1299	77.19663
696.2833	72.76595
696.4367	74.94987
696.5901	80.06594
696.7435	72.78147
696.8968	79.86776
697.0502	77.45781
697.2036	80.47545
697.3569	83.11678
697.5102	84.87128
697.6635	80.48792
697.8168	80.36671
697.9702	79.31728
698.1235	79.02029
698.2768	81.81552
698.4301	86.90263
698.5833	86.9898
698.7366	84.91259
698.8898	81.20136
699.0431	83.68041
699.1964	85.68004
699.3495	84.20554
699.5028	88.82449
699.656	93.74725
699.8092	85.15108
699.9624	86.51718
700.1156	90.37979
700.2688	88.22444
700.4219	92.73222
700.5751	90.55051
700.7283	87.23361
700.8814	89.33307
701.0345	87.76218
701.1877	90.75318
701.3408	92.81339
701.4939	96.5675
701.647	94.96646
701.8001	87.90457
701.9532	93.37836
702.1063	97.82672
702.2593	99.10738
702.4124	97.50198
702.5654	93.42141
702.7184	92.26321
702.8715	91.31017
703.0245	97.13467
703.1776	98.42895
703.3305	98.45851
703.4835	96.6442
703.6365	101.4141
703.7895	102.586
703.9424	103.5732
704.0954	103.4855
704.2484	104.7892
704.4013	107.1437
704.5543	106.5522
704.7072	110.4039
704.8601	110.6344
705.013	108.432
705.1659	115.0145
705.3188	109.2118
705.4717	108.987
705.6246	110.2818
705.7774	109.1859
705.9303	110.918
706.0831	107.852
706.236	113.3413
706.3888	108.8983
706.5416	110.9837
706.6944	115.3579
706.8472	109.6706
707	115.0272
707.1528	112.4643
707.3056	106.5707
707.4583	119.6295
707.6111	121.0363
707.7639	113.1403
707.9166	117.4266
708.0693	114.0696
708.222	116.7177
708.3748	116.6955
708.5275	116.6973
708.6802	118.8226
708.8328	124.6862
708.9855	122.1533
709.1382	118.5282
709.2909	119.4658
709.4435	125.0208
709.5962	120.4373
709.7488	124.2736
709.9014	125.1252
710.054	121.1339
710.2067	121.6005
710.3593	124.5473
710.5118	119.1396
710.6644	125.121
710.817	120.6696
710.9695	119.8822
711.1221	126.2697
711.2747	124.9047
711.4272	124.3425
711.5797	128.8758
711.7322	131.876
711.8848	129.0336
712.0373	122.169
712.1898	128.9628
712.3422	124.6428
712.4948	127.3237
712.6472	134.856
712.7996	128.0425
712.9521	126.2333
713.1046	126.6989
713.257	132.0766
713.4094	137.8198
713.5618	135.8604
713.7142	132.481
713.8666	129.5958
714.019	134.6865
714.1714	133.8885
714.3237	130.0786
714.4761	130.6404
714.6285	129.3701
714.7808	132.3196
714.9331	132.74
715.0854	132.2994
715.2378	133.7419
715.3901	137.1258
715.5424	138.5949
715.6947	132.3795
715.8469	136.4184
715.9992	138.2645
716.1515	134.9174
716.3037	129.3087
716.456	124.2497
716.6082	122.881
716.7604	122.9753
716.9127	123.5581
717.0649	119.2641
717.2171	123.1269
717.3693	120.9101
717.5214	110.7779
717.6736	112.9887
717.8258	125.8877
717.978	124.6044
718.1301	121.5361
718.2822	121.9865
718.4344	122.9972
718.5865	123.1762
718.7386	113.3528
718.8907	119.465
719.0428	118.4359
719.1949	120.2144
719.3469	116.9839
719.499	122.4874
719.6511	124.2561
719.8031	128.4763
719.9551	124.7753
720.1072	121.4886
720.2592	121.5513
720.4112	125.6646
720.5632	122.4465
720.7152	127.7868
720.8672	129.2845
721.0192	133.4637
721.1711	148.6682
721.3231	149.2562
721.475	146.6761
721.627	143.6794
721.7789	148.0587
721.9308	152.339
722.0828	153.3748
722.2347	148.4623
722.3866	146.9041
722.5385	150.6549
722.6903	142.7008
722.8422	140.5387
722.9941	149.8076
723.1459	147.8094
723.2977	133.641
723.4496	131.286
723.6014	134.8423
723.7532	139.8246
723.905	140.6946
724.0568	132.6963
724.2086	134.2465
724.3604	139.4057
724.5121	138.7676
724.6639	143.4835
724.8157	145.3392
724.9674	143.5759
725.1191	137.3477
725.2709	136.8125
725.4226	141.7569
725.5743	153.87
725.726	150.431
725.8777	150.1926
726.0294	149.5467
726.181	146.1967
726.3327	149.1442
726.4844	142.6427
726.636	147.9516
726.7877	151.6516
726.9393	159.2743
727.0909	157.2575
727.2425	157.8024
727.3941	148.9481
727.5457	141.5253
727.6973	151.8346
727.8488	149.542
728.0004	151.8305
728.1519	156.4334
728.3035	159.0696
728.455	169.5735
728.6066	166.6886
728.7581	156.2434
728.9095	149.7379
729.0611	142.8844
729.2126	143.0481
729.364	149.1097
729.5155	157.9489
729.667	161.6664
729.8184	169.8101
729.9698	166.1401
730.1213	165.3758
730.2727	157.5748
730.4241	158.2463
730.5756	162.8746
730.7269	176.3221
730.8784	166.5187
731.0297	162.5865
731.1811	163.4975
731.3325	168.465
731.4838	172.6334
731.6351	173.6351
731.7865	172.5667
731.9378	172.8539
732.0891	177.8894
732.2404	183.9717
732.3917	178.0147
732.543	178.7178
732.6943	176.5009
732.8456	177.7456
732.9968	183.6104
733.1481	180.1529
733.2993	179.8776
733.4506	177.6146
733.6018	182.3588
733.753	197.509
733.9042	196.5041
734.0554	199.6576
734.2066	193.3394
734.3578	194.7258
734.509	195.9082
734.6602	187.8281
734.8113	195.5244
734.9624	188.528
735.1136	181.7827
735.2647	182.5072
735.4158	188.7859
735.5669	191.3671
735.718	189.0517
735.8691	185.6533
736.0201	189.2984
736.1713	192.1266
736.3223	194.7973
736.4733	191.2657
736.6244	191.1662
736.7755	198.3815
736.9265	190.0999
737.0775	188.7389
737.2285	197.7774
737.3795	197.0292
737.5305	206.7172
737.6815	201.4968
737.8324	202.8388
737.9834	198.7429
738.1343	195.7192
738.2853	196.4473
738.4362	189.9619
738.5871	192.3449
738.738	190.9347
738.8889	190.8628
739.0399	195.4692
739.1907	200.4608
739.3416	202.8429
739.4925	198.7848
739.6433	194.7718
739.7942	200.7981
739.945	201.6819
740.0958	199.0925
740.2467	200.9715
740.3975	205.0963
740.5483	204.0081
740.6991	207.1465
740.8499	199.0557
741.0007	201.2832
741.1514	197.4101
741.3022	193.7782
741.4529	198.9824
741.6036	200.3169
741.7544	207.4175
741.9051	200.8395
742.0558	195.0703
742.2065	197.9251
742.3572	194.5815
742.5079	194.9567
742.6586	199.9928
742.8093	207.14
742.9599	206.7544
743.1105	220.1528
743.2612	211.7227
743.4118	211.071
743.5624	208.7418
743.7131	205.1238
743.8636	200.9773
744.0142	198.315
744.1648	203.6177
744.3154	202.3638
744.4659	203.6811
744.6165	199.3278
744.767	201.7185
744.9176	203.0308
745.0681	205.3062
745.2186	204.8346
745.3691	206.5911
745.5197	205.4075
745.6702	208.1388
745.8206	210.9562
745.9711	200.6788
746.1215	201.5644
746.272	197.8192
746.4224	199.92
746.5729	204.1879
746.7233	204.5911
746.8737	205.5024
747.0241	208.0997
747.1745	202.8126
747.3249	202.8149
747.4753	209.4831
747.6257	206.9188
747.776	201.6641
747.9264	198.5802
748.0767	197.9848
748.2271	203.6222
748.3774	200.6712
748.5276	206.6005
748.678	197.8466
748.8282	200.1658
748.9786	197.3616
749.1288	196.6316
749.2791	190.7809
749.4294	191.7609
749.5796	199.0688
749.7299	199.2201
749.8801	199.5825
750.0303	204.9125
750.1805	201.6
750.3307	199.0709
750.4809	199.4134
750.6311	195.2386
750.7813	192.8044
750.9314	190.8192
751.0816	188.1757
751.2318	197.506
751.3818	199.3532
751.532	201.209
751.6821	193.4871
751.8322	200.9227
751.9823	199.3386
752.1324	194.0665
752.2825	191.0395
752.4326	189.2815
752.5826	183.6373
752.7327	194.5514
752.8827	195.4764
753.0327	191.1807
753.1827	191.4087
753.3328	194.3681
753.4828	200.1914
753.6328	200.999
753.7828	201.3775
753.9327	195.869
754.0827	190.7153
754.2327	193.3623
754.3826	194.842
754.5325	189.3908
754.6825	189.249
754.8324	189.8443
754.9823	194.9145
755.1322	188.7572
755.2821	185.5081
755.432	184.8712
755.5818	192.9198
755.7318	188.1858
755.8816	187.7955
756.0314	187.1413
756.1813	182.3183
756.3311	180.8168
756.4809	186.2153
756.6307	194.3888
756.7805	182.6277
756.9303	182.0497
757.0801	181.6064
757.2299	183.5246
757.3796	181.5711
757.5294	178.7113
757.6791	179.853
757.8289	182.4137
757.9786	183.4401
758.1283	176.1388
758.278	170.2726
758.4277	174.1224
758.5773	180.1025
758.7271	179.1458
758.8767	173.0652
759.0264	176.9358
759.176	167.9215
759.3256	146.4666
759.4753	121.0792
759.6249	98.65017
759.7745	81.57391
759.9241	67.79094
760.0737	61.05811
760.2233	53.56705
760.3729	51.02798
760.5224	47.32818
760.6719	51.72443
760.8215	45.92559
760.971	48.21042
761.1205	58.93502
761.2701	66.29037
761.4196	79.79981
761.5691	92.76087
761.7186	107.4526
761.868	118.414
762.0175	127.9011
762.167	120.1378
762.3164	103.7567
762.4659	87.85503
762.6153	87.75836
762.7647	81.13036
762.9141	83.26621
763.0635	89.35461
763.2129	90.25191
763.3623	83.74261
763.5117	86.80087
763.661	88.1599
763.8104	88.71955
763.9597	92.27834
764.1091	94.30026
764.2584	101.75
764.4077	102.4432
764.557	103.1229
764.7063	103.075
764.8556	103.2989
765.0049	107.6353
765.1541	107.3842
765.3034	116.1167
765.4526	117.536
765.6019	127.5274
765.7511	131.045
765.9003	126.5763
766.0496	121.7208
766.1987	123.606
766.348	133.8183
766.4971	130.6602
766.6463	132.023
766.7955	142.1665
766.9446	146.5034
767.0938	142.484
767.2429	144.9187
767.392	146.8548
767.5411	149.5051
767.6902	151.6033
767.8394	141.4121
767.9884	150.8118
768.1375	150.4312
768.2866	155.1741
768.4356	153.8424
768.5847	150.7053
768.7337	147.0563
768.8828	148.6766
769.0317	152.8351
769.1808	148.2475
769.3298	152.2323
769.4788	154.8306
769.6277	152.4441
769.7767	153.6081
769.9257	148.1618
770.0746	159.5385
770.2236	151.9114
770.3725	146.0955
770.5214	150.2912
770.6703	152.2955
770.8193	156.0766
770.9681	148.3557
771.1171	149.1224
771.2659	143.4098
771.4148	144.8722
771.5637	150.9171
771.7125	147.119
771.8613	151.615
772.0101	153.2366
772.159	147.5776
772.3078	148.077
772.4566	148.9835
772.6054	151.1297
772.7542	144.1309
772.903	147.839
773.0517	151.1219
773.2004	145.4859
773.3492	145.5888
773.4979	146.6916
773.6467	147.1703
773.7953	145.9856
773.944	151.4413
774.0928	143.9764
774.2415	143.9307
774.3901	146.5371
774.5388	144.9148
774.6874	137.5686
774.8361	135.4029
774.9847	138.5319
775.1334	132.6193
775.282	139.2483
775.4305	136.2445
775.5792	146.6708
775.7277	146.3372
775.8763	148.3662
776.0249	142.9644
776.1735	137.645
776.322	138.6879
776.4705	148.0586
776.6191	142.4065
776.7676	140.334
776.9161	143.7834
777.0646	144.2193
777.2131	138.6518
777.3616	136.7667
777.5101	141.8266
777.6585	140.4581
777.8069	139.2933
777.9554	139.7656
778.1038	140.8335
778.2523	136.831
778.4007	139.8454
778.5491	138.1414
778.6974	143.6635
778.8459	151.6784
778.9942	145.8853
779.1426	147.2329
779.291	141.6226
779.4393	137.7676
779.5876	138.3289
779.736	134.833
779.8843	138.037
780.0326	137.2092
780.1809	131.8063
780.3292	135.6721
780.4775	141.7485
780.6257	141.6896
780.774	140.105
780.9222	140.5349
781.0704	131.0522
781.2187	135.3126
781.3669	137.1362
781.5151	138.4922
781.6633	139.7541
781.8115	137.4213
781.9597	136.2499
782.1078	140.3549
782.256	137.047
782.4042	134.1268
782.5523	140.3172
782.7004	138.5001
782.8486	131.7363
782.9967	132.3525
783.1448	128.5928
783.2929	130.1449
783.441	134.3404
783.5891	130.6478
783.7371	133.3699
783.8851	133.315
784.0332	127.3313
784.1812	127.112
784.3293	127.5653
784.4773	128.2417
784.6253	131.5216
784.7733	124.1679
784.9213	129.49
785.0692	136.2255
785.2172	127.8475
785.3652	127.7133
785.5131	128.5496
785.6611	122.3942
785.809	127.5834
785.9569	128.1749
786.1048	128.5797
786.2527	130.3089
786.4006	135.1489
786.5485	129.8372
786.6964	131.3917
786.8442	128.6151
786.9921	131.9588
787.1399	120.1104
787.2877	127.6476
787.4355	124.0897
787.5833	121.0612
787.7311	126.2749
787.8789	121.6703
788.0267	122.4042
788.1745	122.8409
788.3223	126.4965
788.47	123.8863
788.6177	123.3959
788.7654	124.5506
788.9132	121.8691
789.0609	129.332
789.2086	126.5751
789.3563	118.314
789.504	127.487
789.6517	116.9531
789.7993	119.5211
789.947	125.539
790.0946	115.9225
790.2422	121.0227
790.3898	120.0119
790.5375	121.1688
790.6851	125.0395
790.8326	117.5946
790.9802	116.2678
791.1278	117.2431
791.2754	117.0549
791.423	117.4675
791.5705	118.7755
791.718	116.8428
791.8655	119.147
792.0131	116.4275
792.1606	117.9703
792.308	120.3035
792.4556	123.383
792.603	121.5659
792.7505	112.956
792.8979	113.3288
793.0454	118.5605
793.1928	118.4181
793.3403	119.8518
793.4877	119.8473
793.6351	120.9945
793.7825	117.6472
793.9299	118.6326
794.0772	116.1021
794.2246	115.627
794.3719	119.4028
794.5193	120.7657
794.6666	110.7963
794.814	114.8231
794.9613	114.1374
795.1086	118.8927
795.2559	113.7184
795.4032	115.3055
795.5505	114.6159
795.6978	113.6407
795.845	112.1826
795.9922	112.0675
796.1395	104.805
796.2867	105.1553
796.4339	107.9586
796.5811	114.4936
796.7283	117.7837
796.8755	116.2864
797.0227	109.4126
797.1699	108.3581
797.317	112.1762
797.4642	112.3566
797.6113	109.6085
797.7584	105.9973
797.9056	109.7267
798.0527	112.5152
798.1998	118.8728
798.3469	116.877
798.494	110.9607
798.641	105.7098
798.7881	110.8748
798.9351	112.3788
799.0822	115.6078
799.2292	108.7045
799.3762	116.8729
799.5232	117.0302
799.6702	107.6332
799.8172	104.2568
799.9642	102.1467
800.1111	100.1105
800.2581	107.1994
800.4051	106.3934
800.552	103.0866
800.6989	107.2707
800.8458	103.115
800.9927	106.254
801.1396	108.0068
801.2866	105.8856
801.4334	110.6903
801.5803	105.6184
801.7272	111.1461
801.874	107.5189
802.0209	104.281
802.1677	105.758
802.3145	105.4221
802.4613	102.1147
802.6081	101.7398
802.7549	101.196
802.9017	97.97508
803.0485	99.46925
803.1952	104.0523
803.342	107.4078
803.4887	101.8718
803.6354	102.9173
803.7822	106.1954
803.9289	108.0521
804.0756	100.5311
804.2223	101.8012
804.369	98.1472
804.5156	95.38437
804.6623	98.00201
804.8089	96.05304
804.9556	98.43719
805.1022	98.87634
805.2488	103.1216
805.3954	104.8923
805.542	105.4404
805.6886	98.38927
805.8352	98.1258
805.9818	101.0474
806.1283	103.6839
806.2749	98.59264
806.4214	94.63934
806.5679	102.0391
806.7145	106.9738
806.861	99.82763
807.0074	96.81252
807.154	96.40515
807.3004	93.96548
807.4469	97.10352
807.5934	100.3035
807.7398	99.72307
807.8862	98.00658
808.0327	95.53346
808.1791	98.92141
808.3255	97.60498
808.4719	95.02592
808.6183	95.94276
808.7647	97.93983
808.9111	96.10279
809.0574	89.37368
809.2037	90.86797
809.3501	89.03264
809.4965	86.14586
809.6428	86.57242
809.7891	97.75529
809.9354	93.07496
810.0817	89.22796
810.2279	89.30422
810.3742	88.23052
810.5204	93.74274
810.6667	95.3079
810.8129	94.4379
810.9592	94.44011
811.1054	86.50431
811.2516	93.26817
811.3978	85.56085
811.5439	85.37698
811.6901	86.11024
811.8363	89.28972
811.9825	88.25552
812.1286	88.36084
812.2748	83.42581
812.4209	85.27932
812.567	87.71971
812.7131	87.50684
812.8592	85.89306
813.0053	84.11555
813.1514	77.13174
813.2974	78.18006
813.4435	75.4868
813.5895	76.81098
813.7356	81.0155
813.8816	75.97846
814.0276	77.93477
814.1736	79.91515
814.3196	74.71322
814.4656	73.26939
814.6116	67.74422
814.7576	67.51723
814.9035	71.71325
815.0494	72.07671
815.1954	73.47187
815.3413	74.27084
815.4872	74.92024
815.6331	74.01756
815.779	74.372
815.9249	75.85163
816.0707	68.9002
816.2166	67.1011
816.3625	64.59884
816.5083	62.19376
816.6542	71.52427
816.8	68.42879
816.9458	61.39682
817.0916	64.64391
817.2374	75.60162
817.3832	79.7956
817.5289	74.84572
817.6747	68.05901
817.8204	63.63654
817.9662	62.44121
818.1119	66.10738
818.2576	61.78555
818.4034	63.80086
818.5491	68.52425
818.6948	72.73314
818.8405	72.40499
818.9861	65.95995
819.1318	65.50337
819.2774	63.90286
819.423	66.00407
819.5687	66.39902
819.7143	57.54047
819.8599	59.1991
820.0055	59.87156
820.1511	67.43462
820.2967	74.88556
820.4422	76.43804
820.5878	77.22016
820.7333	72.32772
820.8788	77.76595
821.0244	77.98902
821.1699	73.10069
821.3154	67.86314
821.4609	69.48327
821.6064	63.25984
821.7519	70.95612
821.8973	69.32673
822.0428	66.86467
822.1882	67.1301
822.3337	71.69446
822.4791	67.96265
822.6245	62.34668
822.7699	52.48668
822.9153	48.97627
823.0607	52.71056
823.2061	55.11094
823.3514	59.1361
823.4968	59.05478
823.6422	60.12082
823.7875	62.71275
823.9328	64.91462
824.0781	71.69566
824.2234	67.6713
824.3687	69.87183
824.514	72.65395
824.6592	72.35837
824.8045	70.35646
824.9498	73.93465
825.095	73.3973
825.2402	72.89015
825.3854	78.152
825.5306	65.92295
825.6758	64.79527
825.821	61.6502
825.9662	64.60397
826.1114	66.51532
826.2565	72.00238
826.4017	74.03024
826.5468	75.94184
826.692	75.34054
826.837	73.78853
826.9822	74.74728
827.1273	71.1463
827.2723	69.40283
827.4174	67.05971
827.5625	63.15532
827.7075	59.07281
827.8526	58.39721
827.9976	65.36961
828.1426	64.2648
828.2877	64.78201
828.4327	62.8335
828.5776	64.37875
828.7227	67.80179
828.8676	65.00274
829.0126	60.70277
829.1575	62.25199
829.3024	60.74004
829.4474	62.75653
829.5923	60.87086
829.7372	61.15461
829.8821	65.08361
830.027	63.17341
830.1719	64.81297
830.3168	59.45042
830.4616	56.27955
830.6064	58.29963
830.7513	64.70596
830.8961	68.51271
831.041	68.20043
831.1857	72.16273
831.3306	68.58358
831.4753	65.60294
831.6201	60.38766
831.7649	60.07061
831.9096	61.07902
832.0544	56.98528
832.1991	64.71034
832.3438	61.89104
832.4885	64.86836
832.6332	64.20403
832.778	65.22937
832.9226	64.65858
833.0673	62.37463
833.2119	56.45314
833.3566	59.68988
833.5012	63.07851
833.6459	67.85805
833.7905	63.03637
833.9351	55.18808
834.0797	62.70124
834.2243	67.61983
834.3688	67.50701
834.5134	60.85273
834.658	63.41694
834.8026	62.72705
834.9471	67.728
835.0916	65.0324
835.2361	65.22121
835.3806	56.54852
835.5251	56.84644
835.6696	66.14297
835.8141	61.36393
835.9586	63.89036
836.103	61.2116
836.2474	65.09729
836.3918	62.98253
836.5363	63.67201
836.6807	62.71154
836.8251	64.82352
836.9695	66.84005
837.1138	62.50292
837.2582	60.95448
837.4026	66.35872
837.5469	65.55024
837.6913	63.48486
837.8356	63.15401
837.9799	66.20295
838.1242	62.78297
838.2686	65.73086
838.4128	63.60214
838.5571	64.62603
838.7014	66.89819
838.8456	61.34299
838.9899	63.25852
839.1341	67.02357
839.2783	62.19984
839.4225	66.52423
839.5667	65.97516
839.7109	62.02372
839.8551	63.1535
839.9993	63.26621
840.1434	65.79501
840.2876	66.23479
840.4317	66.059
840.5759	65.74954
840.72	59.59334
840.8641	61.63628
841.0082	61.29399
841.1523	63.8841
841.2963	65.4924
841.4404	64.8914
841.5845	63.56285
841.7285	65.15794
841.8726	63.97696
842.0165	61.51314
842.1606	64.17319
842.3046	55.63338
842.4485	55.48339
842.5925	66.02347
842.7365	58.35181
842.8805	58.78682
843.0244	58.27718
843.1684	65.20547
843.3123	66.76172
843.4562	62.87681
843.6002	61.16721
843.744	59.61964
843.8879	63.15345
844.0318	59.66198
844.1757	55.06215
844.3195	65.15498
844.4634	60.59979
844.6072	57.27709
844.751	58.41911
844.8948	60.60936
845.0386	62.34577
845.1824	60.61891
845.3262	62.25915
845.47	56.9558
845.6138	54.6121
845.7575	58.72047
845.9012	60.09135
846.045	60.47734
846.1887	57.6367
846.3324	57.13254
846.4761	58.50177
846.6198	63.80218
846.7635	56.67469
846.9071	61.61864
847.0508	60.69849
847.1944	56.37261
847.3381	55.8632
847.4817	60.10918
847.6253	56.72579
847.7689	56.63348
847.9125	54.92895
848.0561	58.65014
848.1996	63.91695
848.3432	63.41835
848.4868	61.15396
848.6303	58.02859
848.7738	56.43515
848.9174	57.35931
849.0609	54.65429
849.2043	52.79455
849.3478	55.58801
849.4913	53.99061
849.6348	51.95744
849.7782	54.15317
849.9217	48.35367
850.0651	50.15325
850.2086	52.27726
850.3519	52.04985
850.4954	53.67854
850.6387	58.39906
850.7821	57.6516
850.9255	55.32998
851.0688	55.88339
851.2122	54.37176
851.3555	58.83749
851.4988	59.92558
851.6422	55.50654
851.7855	47.61411
851.9288	57.07072
852.0721	62.51362
852.2153	61.09117
852.3586	59.12954
852.5018	59.84908
852.6451	55.5797
852.7883	53.70643
852.9315	53.01213
853.0748	51.79162
853.218	55.64468
853.3611	61.42386
853.5043	54.54396
853.6475	51.17757
853.7906	50.1354
853.9338	45.40341
854.0769	38.82814
854.22	37.70127
854.3632	41.51745
854.5063	42.82537
854.6494	42.40615
854.7924	50.95895
854.9355	46.51609
855.0786	50.61325
855.2216	58.27651
855.3647	54.08002
855.5077	48.80935
855.6507	49.92869
855.7937	57.61849
855.9367	50.55062
856.0797	51.41286
856.2227	52.0513
856.3657	57.19475
856.5086	58.15461
856.6516	55.58256
856.7945	53.6308
856.9374	53.53691
857.0803	54.99194
857.2232	49.50398
857.3661	47.98898
857.509	47.96826
857.6519	47.89705
857.7947	50.60538
857.9376	51.41123
858.0804	55.75618
858.2232	49.90924
858.366	49.52697
858.5089	53.41282
858.6516	54.23149
858.7944	51.54824
858.9372	50.77327
859.08	51.53974
859.2227	50.35899
859.3654	50.52
859.5082	52.23313
859.6509	52.6869
859.7936	54.42797
859.9363	47.54631
860.079	48.38102
860.2217	53.02443
860.3643	51.55782
860.507	52.54752
860.6496	57.38263
860.7922	47.70084
860.9349	49.7207
861.0775	53.96708
861.2201	53.13881
861.3627	48.23793
861.5052	49.03476
861.6478	49.40927
861.7904	50.15327
861.9329	49.57588
862.0755	53.57312
862.218	52.13287
862.3605	47.7121
862.503	48.40543
862.6455	51.56726
862.788	50.94837
862.9305	51.54408
863.0729	45.38763
863.2154	43.12717
863.3578	46.11218
863.5002	46.92062
863.6426	47.59191
863.7851	49.96846
863.9275	51.1627
864.0698	51.60919
864.2122	50.54626
864.3546	49.13847
864.4969	49.5079
864.6393	49.42442
864.7816	45.61471
864.924	45.98056
865.0662	47.18635
865.2086	47.25696
865.3508	48.27956
865.4931	45.8802
865.6354	45.31033
865.7776	46.366
865.9199	42.21305
866.0621	40.67245
866.2043	39.31656
866.3466	36.35817
866.4888	39.45636
866.6309	45.00413
866.7731	40.87187
866.9153	47.00681
867.0574	46.31577
867.1996	44.11497
867.3417	44.58815
867.4839	46.5786
867.626	44.31268
867.7681	43.77064
867.9102	49.68789
868.0522	46.62354
868.1943	42.38708
868.3364	43.08446
868.4785	42.86713
868.6205	46.32562
868.7625	46.98668
868.9045	46.75031
869.0465	41.39833
869.1885	42.28524
869.3305	43.19474
869.4725	40.80128
869.6144	45.48266
869.7564	43.2679
869.8983	44.73857
870.0403	43.57595
870.1822	45.75526
870.3241	39.96266
870.466	43.24944
870.6079	44.47523
870.7498	47.94523
870.8916	43.7538
871.0335	43.84094
871.1754	44.11448
871.3171	44.85764
871.459	43.32821
871.6008	43.44563
871.7426	44.22076
871.8844	44.10622
872.0262	40.32042
872.1679	42.03181
872.3097	44.03334
872.4514	48.7879
872.5931	43.46232
872.7349	46.3215
872.8766	45.56131
873.0183	39.51468
873.16	42.0962
873.3017	40.89607
873.4434	38.58441
873.585	42.99174
873.7266	40.63235
873.8683	40.90187
874.0099	42.04785
874.1516	38.31674
874.2932	38.05896
874.4348	36.75834
874.5763	37.72145
874.7179	38.70599
874.8594	44.07883
875.001	43.46328
875.1425	41.08796
875.2841	40.19769
875.4256	41.75782
875.5671	37.08478
875.7086	38.04744
875.85	39.51059
875.9915	42.992
876.133	42.98158
876.2744	39.59871
876.4159	40.14933
876.5573	42.05996
876.6987	40.20664
876.8401	41.94674
876.9815	41.94945
877.1229	38.65273
877.2643	40.32317
877.4056	40.85378
877.547	38.05387
877.6884	40.4631
877.8297	46.17881
877.971	43.11002
878.1123	37.32609
878.2536	40.30577
878.3949	38.16426
878.5362	37.55025
878.6774	37.53007
878.8187	43.14999
878.9599	41.22326
879.1011	41.71911
879.2424	39.71096
879.3836	35.10985
879.5248	37.0063
879.666	41.76285
879.8071	41.21998
879.9483	40.90526
880.0895	41.90386
880.2306	41.38513
880.3718	37.50941
880.5129	35.28325
880.654	43.35342
880.7951	35.75639
880.9362	38.53212
881.0773	40.90194
881.2183	40.44557
881.3594	44.06405
881.5004	41.39152
881.6414	38.48597
881.7825	40.46022
881.9235	40.30747
882.0645	40.81395
882.2054	36.5341
882.3464	37.85829
882.4874	43.49947
882.6284	42.59562
882.7693	38.39264
882.9103	35.00163
883.0512	34.01096
883.1921	38.4816
883.333	42.76876
883.4739	36.1878
883.6147	38.58913
883.7556	34.92041
883.8965	38.77043
884.0374	36.72256
884.1782	36.71081
884.319	33.2587
884.4598	37.9683
884.6006	43.35632
884.7414	35.62533
884.8822	40.44534
885.0229	37.67412
885.1637	33.97135
885.3044	36.92171
885.4452	37.36176
885.5859	34.5092
885.7266	37.61978
885.8673	39.22216
886.008	34.0737
886.1487	40.38564
886.2894	34.7951
886.43	32.32448
886.5707	40.97871
886.7113	36.05526
886.8519	34.93364
886.9926	30.2332
887.1331	37.77124
887.2737	31.1473
887.4143	34.51819
887.5549	32.89671
887.6954	31.34193
887.836	32.83136
887.9765	35.27116
888.1171	42.14596
888.2576	37.83315
888.3981	37.32684
888.5386	36.28064
888.679	39.56624
888.8195	35.82944
888.96	30.50393
889.1004	35.1778
889.2408	38.93331
889.3813	36.16616
889.5217	34.4108
889.6621	30.77464
889.8025	37.47398
889.9429	37.72889
890.0833	38.21692
890.2236	33.4098
890.364	33.31441
890.5043	39.24024
890.6446	35.83928
890.7849	33.59543
890.9252	38.8408
891.0655	34.82819
891.2058	34.20399
891.3461	33.67237
891.4863	32.96069
891.6266	34.33957
891.7668	36.22813
891.907	34.06997
892.0472	37.282
892.1874	41.40466
892.3276	34.76646
892.4678	30.86101
892.608	32.19038
892.7481	29.46292
892.8883	34.47776
893.0284	32.53609
893.1685	23.1292
893.3087	29.44281
893.4487	33.78662
893.5889	33.00868
893.7289	36.6301
893.869	37.2344
894.009	35.13518
894.1491	35.3925
894.2891	31.23368
894.4291	32.72541
894.5692	32.94574
894.7092	32.65326
894.8491	25.74423
894.9891	29.45921
895.1291	31.20934
895.269	30.01207
895.409	27.78465
895.549	26.33744
895.6888	28.99023
895.8288	32.8041
895.9687	29.26434
896.1086	28.98516
896.2484	25.47778
896.3883	30.00768
896.5281	27.46719
896.668	25.53992
896.8079	30.52446
896.9476	28.17729
897.0875	28.88287
897.2272	24.80381
897.3671	28.14492
897.5068	31.81368
897.6466	27.67237
897.7864	25.96762
897.9261	22.92831
898.0658	24.85126
898.2056	27.14706
898.3453	30.10885
898.4849	28.8986
898.6246	27.3825
898.7643	24.08282
898.904	21.44542
899.0436	17.02468
899.1833	22.24286
899.3229	25.63881
899.4625	28.26006
899.6021	26.93904
899.7417	30.93971
899.8813	30.92266
900.0209	23.37192
900.1605	19.29224
900.3	18.60395
900.4395	21.64922
900.579	20.80948
900.7186	21.25979
900.8581	23.00032
900.9976	24.77349
901.1371	22.13546
901.2766	23.93875
901.416	24.38437
901.5555	22.1491
901.6949	22.3224
901.8344	21.82706
901.9738	26.79071
902.1132	30.09081
902.2526	25.53421
902.3919	17.27989
902.5313	19.62516
902.6707	22.8381
