SPECTRUM DATA FILE
SpectrumCount:	1
PixelCount:	3648
UserName:	ToughBook User
SampleName:	
LightSource:	
Comments:	
DeviceName:	Qwave
DeviceManufacturer:	Broadcom
DeviceSerialNo:	11311

Name:	last spectrum
Date:	2024-05-02T14:48:28.3256603+02:00
ExposureTime:	0.02
TemporalAvg:	1
IntensityUnit:	normalizedCounts
CCDLoadLevel:	0.9475325
Temperature:	31.49347
DiagramColor:	200
ProcessingSteps:	335

Wavelength [nm]	Intensity1
334.421	188.8993
334.5891	190.4016
334.7573	193.505
334.9254	192.9261
335.0935	198.5966
335.2616	202.7027
335.4297	209.253
335.5978	203.8866
335.7659	181.3679
335.934	166.0138
336.1021	158.8478
336.2701	159.8604
336.4382	176.7952
336.6063	177.2133
336.7744	163.6748
336.9424	152.58
337.1105	155.6878
337.2785	168.1586
337.4466	187.8215
337.6146	195.5047
337.7827	191.1571
337.9507	181.4725
338.1187	182.4527
338.2867	191.7274
338.4548	203.903
338.6228	211.367
338.7908	208.7592
338.9588	205.7387
339.1268	195.7623
339.2948	196.2265
339.4628	205.2827
339.6308	221.2573
339.7988	227.2837
339.9667	241.1629
340.1347	237.4879
340.3027	227.6083
340.4707	209.3763
340.6386	210.8952
340.8066	215.8467
340.9745	213.1157
341.1425	212.6288
341.3104	209.6353
341.4784	209.0456
341.6463	222.1588
341.8142	233.5573
341.9821	243.3474
342.1501	236.1154
342.318	244.7228
342.4859	233.4639
342.6538	239.8395
342.8217	247.8265
342.9896	252.1247
343.1575	249.7444
343.3254	243.7192
343.4933	231.7669
343.6612	226.3588
343.829	208.7021
343.9969	189.5117
344.1648	165.6786
344.3326	176.8489
344.5005	190.0486
344.6683	220.8138
344.8362	235.8664
345.004	250.2916
345.1719	263.2623
345.3397	249.6835
345.5075	244.1571
345.6754	242.2891
345.8432	222.9135
346.011	220.4336
346.1788	229.9853
346.3466	239.6198
346.5144	244.2427
346.6822	257.1599
346.85	261.3488
347.0178	256.3037
347.1856	247.1917
347.3534	235.2378
347.5211	214.2732
347.6889	224.4233
347.8567	240.2059
348.0244	255.0876
348.1922	256.1778
348.3599	252.3453
348.5277	252.7461
348.6954	255.3448
348.8632	251.5202
349.0309	233.9841
349.1986	228.3893
349.3663	235.7742
349.5341	243.6179
349.7018	262.1039
349.8695	280.7225
350.0372	303.5895
350.2049	315.1048
350.3726	322.0535
350.5403	314.0959
350.7079	309.2392
350.8756	300.0794
351.0433	286.8856
351.211	276.3306
351.3786	278.3909
351.5463	293.4462
351.714	306.8875
351.8816	309.6379
352.0493	300.0826
352.2169	274.8834
352.3846	259.4045
352.5522	259.9621
352.7198	277.7605
352.8875	297.3711
353.0551	318.8698
353.2227	326.498
353.3903	332.2696
353.5579	335.9703
353.7255	341.8581
353.8931	344.738
354.0607	356.2729
354.2283	358.7866
354.3958	357.3654
354.5634	359.887
354.731	365.3896
354.8986	360.7229
355.0661	354.636
355.2337	342.045
355.4012	328.3805
355.5688	330.0179
355.7363	338.6901
355.9039	341.5987
356.0714	337.3689
356.239	331.2292
356.4065	315.5368
356.574	285.1662
356.7415	263.0551
356.909	253.5796
357.0765	263.2337
357.244	279.22
357.4115	297.2392
357.579	303.7739
357.7465	288.8262
357.914	255.0894
358.0815	240.9383
358.249	221.6349
358.4164	223.0548
358.5839	228.8058
358.7513	263.3031
358.9188	298.5138
359.0862	337.5877
359.2537	356.6075
359.4211	373.5731
359.5886	388.8003
359.756	408.8488
359.9234	412.6761
360.0909	393.4123
360.2583	372.951
360.4257	352.9759
360.5931	328.1745
360.7605	316.7679
360.9279	319.5735
361.0953	333.6819
361.2627	344.8223
361.4301	366.6227
361.5974	358.6086
361.7648	340.4964
361.9322	324.7637
362.0995	338.378
362.2669	377.5776
362.4343	420.7983
362.6016	450.719
362.769	450.0172
362.9363	422.9386
363.1036	381.739
363.271	349.4956
363.4383	356.483
363.6056	392.6222
363.7729	420.4389
363.9402	441.3602
364.1075	437.4202
364.2748	423.1266
364.4421	408.3662
364.6094	383.8535
364.7767	386.7543
364.944	400.2094
365.1113	433.3618
365.2786	472.6479
365.4458	485.9629
365.6131	508.4706
365.7803	517.8709
365.9476	525.2681
366.1148	524.2439
366.2821	502.8564
366.4493	507.1586
366.6166	493.2978
366.7838	499.0842
366.951	497.2921
367.1182	509.0331
367.2855	521.073
367.4527	522.2901
367.6199	498.8129
367.7871	476.9043
367.9543	463.941
368.1215	472.4306
368.2886	481.1532
368.4558	479.6049
368.623	462.1309
368.7902	473.8051
368.9573	506.781
369.1245	545.9483
369.2917	564.8922
369.4588	552.3653
369.6259	562.602
369.7931	577.496
369.9602	588.8477
370.1274	585.8042
370.2945	545.0834
370.4616	497.0037
370.6287	472.6242
370.7958	472.0544
370.963	507.0804
371.1301	578.4032
371.2971	622.4663
371.4643	652.4828
371.6313	625.014
371.7984	553.0858
371.9655	476.9963
372.1326	446.8329
372.2997	467.2224
372.4667	541.0215
372.6338	574.6755
372.8008	576.4254
372.9679	551.8408
373.1349	514.1286
373.3019	448.81
373.469	391.2824
373.636	389.7193
373.803	439.1441
373.9701	508.441
374.1371	552.2619
374.3041	535.7705
374.4711	469.1182
374.6381	416.1944
374.8051	406.3323
374.9721	435.7797
375.1391	509.9237
375.3061	591.3769
375.473	648.4285
375.64	630.0722
375.8069	569.7156
375.9739	541.5934
376.1409	560.524
376.3078	572.6196
376.4748	575.3638
376.6417	569.05
376.8087	592.4187
376.9756	605.202
377.1425	636.232
377.3094	686.3139
377.4763	713.5558
377.6432	726.1413
377.8102	750.2488
377.9771	773.5256
378.144	794.2934
378.3109	789.1127
378.4777	769.7421
378.6446	708.419
378.8115	659.9911
378.9784	639.4689
379.1452	639.4374
379.3121	621.776
379.4789	603.9541
379.6458	577.602
379.8127	577.1599
379.9795	612.3038
380.1463	679.9764
380.3131	734.7726
380.48	758.2164
380.6468	758.1183
380.8136	759.1646
380.9804	775.8793
381.1472	754.3484
381.314	697.2599
381.4808	636.8464
381.6476	592.8534
381.8144	579.475
381.9812	567.171
382.148	555.8084
382.3147	535.3545
382.4815	516.9692
382.6483	480.0162
382.815	464.1066
382.9818	471.0902
383.1485	462.9132
383.3153	457.8031
383.482	455.608
383.6487	457.8083
383.8155	467.4012
383.9822	493.349
384.1489	551.1998
384.3156	650.9053
384.4823	725.7531
384.649	751.3306
384.8157	750.5381
384.9824	725.7441
385.1491	726.603
385.3158	725.5602
385.4825	706.54
385.6491	650.2599
385.8158	599.1106
385.9825	603.5579
386.1491	651.9008
386.3157	723.0805
386.4824	766.9908
386.649	767.7058
386.8157	724.1251
386.9823	668.2339
387.1489	644.1942
387.3156	677.4778
387.4821	722.1761
387.6488	751.4099
387.8154	730.8466
387.982	680.6592
388.1486	671.174
388.3152	678.3801
388.4818	689.3723
388.6483	673.4668
388.8149	666.2484
388.9815	706.9015
389.148	805.7379
389.3146	856.4683
389.4811	882.2468
389.6477	896.566
389.8142	900.0994
389.9808	901.9119
390.1473	892.1214
390.3138	860.6212
390.4804	838.221
390.6469	855.1989
390.8134	923.4196
390.9799	996.6856
391.1464	1049.209
391.3129	1051.939
391.4794	1045.926
391.6459	1017.174
391.8124	966.0403
391.9789	907.1337
392.1453	854.5231
392.3118	840.0659
392.4782	831.7967
392.6447	750.9301
392.8112	638.3951
392.9776	509.602
393.144	397.8305
393.3105	338.7458
393.4769	332.5582
393.6433	408.4393
393.8098	546.9092
393.9762	673.9622
394.1426	753.632
394.309	809.0751
394.4754	863.1255
394.6418	930.0705
394.8082	1017.878
394.9746	1059.939
395.141	1081.45
395.3073	1095.123
395.4737	1099.96
395.64	1099.191
395.8064	1077.991
395.9728	1009.426
396.1391	893.7224
396.3055	773.4053
396.4718	639.0947
396.6381	525.3234
396.8045	436.989
396.9708	429.2464
397.1371	525.9041
397.3034	688.3401
397.4697	851.0333
397.636	991.3997
397.8023	1130.85
397.9686	1233.695
398.1349	1265.702
398.3012	1268.214
398.4675	1269.827
398.6337	1303.457
398.8	1362.777
398.9662	1402.07
399.1325	1430.781
399.2988	1432.269
399.465	1415.12
399.6313	1393.816
399.7975	1416.802
399.9637	1458.132
400.1299	1499.013
400.2961	1502.278
400.4624	1446.795
400.6286	1396.746
400.7948	1432.527
400.961	1505.518
401.1272	1555.049
401.2934	1572.537
401.4595	1584.269
401.6257	1583.07
401.7919	1575.875
401.9581	1597.142
402.1242	1623.439
402.2904	1619.421
402.4565	1617.698
402.6227	1609.652
402.7888	1613.84
402.955	1580.657
403.1211	1497.616
403.2872	1426.413
403.4533	1469.728
403.6194	1576.235
403.7856	1673.428
403.9517	1711.526
404.1177	1678.805
404.2838	1598.438
404.4499	1475.362
404.616	1411.028
404.7821	1485.26
404.9482	1634.933
405.1142	1715.261
405.2803	1692.322
405.4464	1627.475
405.6124	1589.617
405.7784	1585.379
405.9445	1607.663
406.1105	1610.081
406.2766	1556.031
406.4426	1500.108
406.6086	1537
406.7746	1632.533
406.9406	1690.753
407.1066	1669.903
407.2726	1667.555
407.4386	1668.566
407.6046	1674.879
407.7706	1646.09
407.9366	1671.824
408.1025	1784.601
408.2685	1822.036
408.4344	1822.302
408.6004	1839.922
408.7664	1921.108
408.9323	1984.313
409.0983	1971.917
409.2642	1922.974
409.4301	1864.507
409.596	1788.073
409.762	1712.364
409.9279	1606.575
410.0938	1506.337
410.2597	1487.416
410.4256	1578.533
410.5915	1741.034
410.7574	1825.99
410.9232	1867.054
411.0891	1896.172
411.255	1930.567
411.4209	2013.514
411.5867	2044.048
411.7526	2021.365
411.9184	1998.002
412.0843	1982.74
412.2501	1983.375
412.4159	1990.658
412.5818	1986.117
412.7476	1971.739
412.9134	1939.452
413.0792	1883.965
413.245	1836.338
413.4108	1856.025
413.5766	1939.263
413.7424	2055.931
413.9082	2127.206
414.074	2074.585
414.2397	1961.712
414.4055	1907.263
414.5713	1934.057
414.737	2018.464
414.9028	2046.334
415.0685	2026.47
415.2343	1984.32
415.4	1950.975
415.5658	1936.698
415.7315	1972.891
415.8972	2031.376
416.0629	2096.565
416.2286	2150.294
416.3943	2181.676
416.56	2161.818
416.7257	2127.155
416.8914	2098.435
417.0571	2045.546
417.2228	1977.9
417.3884	1932.96
417.5541	1939.7
417.7198	2010.682
417.8854	2046.525
418.0511	2059.143
418.2167	2061.407
418.3824	2070.719
418.548	2066.954
418.7136	2040.154
418.8792	2054.026
419.0449	2117.633
419.2105	2217.764
419.3761	2239.352
419.5417	2167.74
419.7073	2072.806
419.8729	1995.991
420.0385	1983.493
420.204	2034.395
420.3696	2131.31
420.5352	2244.594
420.7007	2328.327
420.8663	2355.685
421.0319	2371.989
421.1974	2377.973
421.3629	2355.828
421.5285	2307.746
421.694	2271.705
421.8595	2322.308
422.0251	2401.216
422.1906	2369.548
422.3561	2233.209
422.5216	2003.436
422.6871	1854.91
422.8526	1962.224
423.0181	2223.964
423.1835	2380.189
423.349	2342.739
423.5145	2238.786
423.68	2195.475
423.8454	2204.495
424.0109	2261.098
424.1763	2323.324
424.3418	2396.201
424.5072	2411.391
424.6726	2344.182
424.838	2248.116
425.0035	2187.021
425.1689	2235.344
425.3343	2276.646
425.4997	2320.167
425.6651	2321.621
425.8305	2276.833
425.9959	2191.988
426.1613	2180.251
426.3267	2314.841
426.492	2467.372
426.6574	2484.912
426.8228	2369.625
426.9881	2195.27
427.1534	2017.06
427.3188	1974.444
427.4841	2068.226
427.6495	2240.69
427.8148	2357.776
427.9801	2370.37
428.1454	2336.637
428.3107	2323.762
428.476	2309.73
428.6414	2232.81
428.8066	2138.583
428.9719	2095.34
429.1372	2131.161
429.3025	2187.152
429.4678	2209.665
429.633	2103.922
429.7983	1929.104
429.9636	1751.862
430.1288	1646.571
430.294	1656.53
430.4593	1703.746
430.6245	1668.252
430.7897	1601.792
430.955	1602.048
431.1202	1698.184
431.2854	1923.105
431.4506	2228.981
431.6158	2556.803
431.781	2773.807
431.9462	2852.792
432.1114	2712.213
432.2766	2466.242
432.4417	2189.275
432.6069	2105.139
432.772	2308.321
432.9372	2586.532
433.1024	2741.507
433.2675	2761.717
433.4326	2759.086
433.5977	2646.961
433.7629	2407.941
433.928	2122.876
434.0931	1994.525
434.2582	2143.156
434.4233	2384.909
434.5884	2629.933
434.7535	2755.051
434.9186	2783.804
435.0837	2696.733
435.2488	2584.962
435.4138	2580.747
435.5789	2703.688
435.744	2790.194
435.909	2823.263
436.0741	2875.151
436.2391	2950.344
436.4042	3015.268
436.5692	2999.448
436.7342	2974.223
436.8992	2913.586
437.0643	2865.384
437.2293	2829.984
437.3943	2746.99
437.5593	2696.906
437.7243	2753.127
437.8893	2861.879
438.0542	2825.945
438.2192	2552.411
438.3842	2290.404
438.5491	2299.923
438.7141	2489.479
438.8791	2674.774
439.044	2736.792
439.209	2782.436
439.3739	2832.892
439.5388	2870.617
439.7037	2952.753
439.8687	2984.017
440.0336	2911.749
440.1985	2819.313
440.3634	2712.478
440.5283	2691.084
440.6932	2709.361
440.8581	2858.497
441.0229	3030.219
441.1878	3157.111
441.3527	3141.481
441.5175	3020.436
441.6824	2970.116
441.8472	3104.69
442.0121	3240.519
442.1769	3235.117
442.3418	3167.31
442.5066	3123.441
442.6714	3152.063
442.8362	3195.524
443.001	3173.369
443.1659	3163.486
443.3307	3089.557
443.4955	3042.842
443.6602	3091.519
443.825	3233.831
443.9898	3314.396
444.1546	3225.456
444.3193	3170.014
444.4841	3223.807
444.6488	3317.28
444.8136	3373.88
444.9783	3364.551
445.1431	3342.615
445.3078	3223.666
445.4725	3063.477
445.6372	2962.683
445.802	2939.638
445.9667	3001.477
446.1314	3038.008
446.2961	3107.236
446.4608	3213.545
446.6255	3327.082
446.7901	3322.588
446.9548	3292.451
447.1195	3347.025
447.2841	3441.845
447.4488	3577.131
447.6134	3621.17
447.7781	3593.117
447.9427	3478.482
448.1074	3339.901
448.272	3298.625
448.4366	3449.075
448.6012	3589.955
448.7658	3579.534
448.9305	3490.635
449.095	3471.838
449.2596	3521.886
449.4242	3525.315
449.5888	3530.193
449.7534	3582.035
449.9179	3669.807
450.0825	3721.98
450.2471	3775.777
450.4116	3848.169
450.5762	3928.019
450.7407	3922.918
450.9052	3897.841
451.0698	3888.417
451.2343	3852.983
451.3988	3807.155
451.5633	3750.049
451.7278	3716.917
451.8923	3783.475
452.0568	3808.287
452.2213	3800.172
452.3858	3740.542
452.5503	3598.007
452.7148	3482.781
452.8792	3352.929
453.0437	3351.441
453.2081	3415.665
453.3726	3452.649
453.537	3499.937
453.7015	3632.171
453.8659	3793.519
454.0303	3807.173
454.1947	3781.862
454.3592	3763.041
454.5236	3745.14
454.688	3683.454
454.8524	3590.438
455.0168	3558.797
455.1811	3589.618
455.3455	3629.51
455.5099	3603.649
455.6743	3671.375
455.8386	3814.915
456.003	3918.227
456.1673	3908.784
456.3317	3832.476
456.496	3738.288
456.6603	3757.506
456.8246	3849.98
456.989	3887.387
457.1533	3843.666
457.3176	3824.161
457.4819	3884.037
457.6462	3961.949
457.8105	3891.209
457.9748	3769.27
458.1391	3666.482
458.3033	3615.195
458.4676	3607.022
458.6319	3661.01
458.7961	3764.048
458.9604	3845.294
459.1246	3847.011
459.2888	3768.662
459.4531	3719.959
459.6173	3740.889
459.7815	3730.25
459.9457	3719.675
460.11	3722.316
460.2741	3752.692
460.4384	3782.446
460.6025	3816.004
460.7667	3877.61
460.9309	3954.647
461.0951	3956.454
461.2592	3902.809
461.4234	3861.363
461.5876	3907.486
461.7517	3929.389
461.9159	3904.648
462.08	3927.581
462.2441	3963.506
462.4082	3985.813
462.5724	3990.579
462.7365	3999.026
462.9006	4000.048
463.0647	4004.051
463.2288	4001.986
463.3929	3984.484
463.557	3950.561
463.721	3886.536
463.8851	3860.664
464.0492	3882.23
464.2132	3939.369
464.3773	3951.916
464.5414	3891.525
464.7054	3780.927
464.8694	3753.55
465.0334	3864.349
465.1975	3970.522
465.3615	3990.448
465.5255	3957.667
465.6895	3955.699
465.8535	4049.059
466.0175	4154.99
466.1815	4156.91
466.3455	4054.604
466.5095	3900.209
466.6734	3737.25
466.8374	3671.641
467.0014	3764.673
467.1653	3939.877
467.3293	4014.02
467.4932	4094.948
467.6571	4124.297
467.8211	4099.486
467.985	4023.537
468.1489	3971.018
468.3128	4020.599
468.4767	4116.23
468.6406	4145.11
468.8045	4135.888
468.9684	4119.95
469.1323	4100.958
469.2962	4111.474
469.46	4159.75
469.6239	4175.508
469.7878	4131.408
469.9516	4003.627
470.1154	3903.136
470.2793	3854.031
470.4431	3875.56
470.607	3940.232
470.7708	3955.176
470.9346	3962.746
471.0984	4017.981
471.2622	4074.353
471.426	4081.446
471.5898	4099.836
471.7536	4201.077
471.9174	4305.01
472.0811	4344.357
472.2449	4332.861
472.4087	4323.971
472.5724	4276.637
472.7362	4176.372
472.8999	4040.059
473.0637	3965.029
473.2274	4009.843
473.3911	4097.257
473.5548	4112.225
473.7185	4104.626
473.8822	4133.772
474.0459	4186.277
474.2096	4214.682
474.3733	4227.266
474.537	4255.792
474.7007	4264.418
474.8643	4261.177
475.028	4251.892
475.1917	4214.661
475.3553	4143.662
475.519	4073.337
475.6826	4072.009
475.8463	4107.975
476.0099	4130.855
476.1735	4126.693
476.3371	4007.289
476.5007	3930.002
476.6643	3967.06
476.8279	4033.064
476.9915	4136.362
477.1551	4165.331
477.3187	4196.23
477.4823	4257.862
477.6458	4302.849
477.8094	4318.609
477.9729	4324.882
478.1365	4290.323
478.3	4235.746
478.4636	4169.642
478.6271	4116.732
478.7906	4079.102
478.9541	4089.29
479.1176	4127.956
479.2812	4224.943
479.4447	4329.125
479.6082	4359.207
479.7716	4306.748
479.9351	4200.918
480.0986	4173.433
480.2621	4202.352
480.4255	4214.503
480.589	4210.598
480.7524	4179.077
480.9159	4181.094
481.0793	4189.552
481.2428	4205.044
481.4062	4260.642
481.5696	4331.347
481.733	4361.063
481.8964	4384.275
482.0598	4366.008
482.2232	4287.255
482.3866	4199.615
482.55	4214.013
482.7134	4254.438
482.8768	4263.881
483.0401	4248.01
483.2035	4230.151
483.3668	4238.591
483.5302	4266.733
483.6935	4255.512
483.8568	4196.566
484.0202	4126.015
484.1835	4095.298
484.3468	4151.946
484.5101	4203.857
484.6734	4230.68
484.8367	4208.115
485	4180.752
485.1633	4176.986
485.3266	4113.522
485.4899	3985.818
485.6531	3855.604
485.8164	3653.067
485.9796	3337.109
486.1429	3039.401
486.3061	3057.451
486.4694	3358.061
486.6326	3711.385
486.7958	3898.129
486.959	3902.39
487.1223	3784.602
487.2855	3748.802
487.4486	3841.484
487.6118	3994.042
487.775	4094.274
487.9382	4185.028
488.1014	4240.42
488.2646	4216.212
488.4277	4136.162
488.5909	4029.476
488.754	3963.549
488.9171	3894.247
489.0803	3806.136
489.2434	3865.71
489.4066	4085.196
489.5697	4329.314
489.7328	4429.825
489.8959	4399.896
490.059	4333.794
490.2221	4291.491
490.3852	4263.173
490.5482	4255.385
490.7113	4280.759
490.8744	4220.978
491.0374	4101.943
491.2005	4048.763
491.3636	4140.675
491.5266	4243.28
491.6896	4167.55
491.8527	3910.145
492.0157	3705.2
492.1787	3690.3
492.3417	3843.796
492.5047	4003.069
492.6677	4138.516
492.8307	4212.159
492.9937	4283.185
493.1567	4250.471
493.3196	4151.016
493.4826	4093.172
493.6456	4040.608
493.8085	3980.539
493.9715	3977.323
494.1344	4095.483
494.2974	4252.593
494.4603	4318.443
494.6232	4312.353
494.7861	4322.998
494.949	4351.778
495.1119	4351.861
495.2748	4316.625
495.4377	4249.853
495.6006	4078.114
495.7635	3943.35
495.9264	3966.85
496.0892	4173.292
496.2521	4349.819
496.4149	4375.004
496.5778	4309.48
496.7407	4223.859
496.9035	4181.76
497.0663	4198.551
497.2291	4298.863
497.3919	4342.131
497.5547	4374.208
497.7176	4332.72
497.8804	4241.846
498.0432	4132.802
498.2059	3994.152
498.3687	3855.027
498.5315	3853.896
498.6942	4045.717
498.857	4245.944
499.0198	4278.887
499.1825	4269.76
499.3452	4251.789
499.508	4303.696
499.6707	4326.514
499.8334	4303.192
499.9962	4220.496
500.1589	4125.699
500.3216	4076.957
500.4843	4028.998
500.6469	3948.323
500.8096	4035.338
500.9723	4122.429
501.135	4151.82
501.2976	4045.055
501.4603	3950.573
501.623	3950.225
501.7856	3948.1
501.9482	3989.411
502.1109	4056.234
502.2735	4131.223
502.4361	4191.67
502.5987	4186.524
502.7614	4184.477
502.924	4225.695
503.0865	4304.782
503.2491	4396.998
503.4117	4382.583
503.5743	4266.051
503.7368	4175.525
503.8994	4032.631
504.062	3908.674
504.2245	3922.658
504.3871	4120.358
504.5496	4339.662
504.7121	4402.77
504.8746	4311.031
505.0372	4235.142
505.1997	4235.291
505.3622	4319.242
505.5247	4398.745
505.6872	4464.832
505.8497	4472.049
506.0121	4510.214
506.1746	4521.039
506.3371	4469.867
506.4995	4356.094
506.662	4281.417
506.8244	4276.775
506.9869	4327.624
507.1493	4325.84
507.3117	4291.029
507.4742	4271.421
507.6366	4257.229
507.799	4189.623
507.9614	4085.486
508.1238	4017.781
508.2862	4071.527
508.4485	4195.194
508.6109	4270.536
508.7733	4343.332
508.9357	4377.357
509.098	4385.105
509.2604	4439.634
509.4227	4423.992
509.5851	4329.847
509.7474	4159.768
509.9097	4024.208
510.072	4074.173
510.2343	4207.734
510.3966	4271.968
510.5589	4240.917
510.7212	4161.969
510.8835	4109.01
511.0458	4105.951
511.2081	4185.026
511.3703	4264.737
511.5326	4308.737
511.6949	4331.718
511.8571	4328.75
512.0193	4302.87
512.1816	4202.031
512.3438	4089.161
512.506	3974.415
512.6682	3951.913
512.8304	3986.38
512.9926	4036.556
513.1548	4054.248
513.317	4063.787
513.4792	4093.156
513.6414	4060.208
513.8035	3957.35
513.9657	3855.44
514.1279	3830.917
514.29	3854.292
514.4521	3884.14
514.6143	3897.491
514.7764	3955.363
514.9385	3964.038
515.1006	3974.734
515.2628	3986.625
515.4249	3985.314
515.587	4001.012
515.7491	4038.598
515.9111	4090.696
516.0732	4062.964
516.2353	3977.332
516.3973	3829.957
516.5594	3577.456
516.7214	3292.55
516.8835	3170.613
517.0455	3173.99
517.2076	3143.743
517.3696	3215.213
517.5316	3486.81
517.6937	3827.659
517.8557	3994.669
518.0176	3957.928
518.1796	3675.951
518.3416	3287.818
518.5036	3179.856
518.6656	3417.664
518.8275	3749.856
518.9895	3865.683
519.1514	3834.125
519.3134	3794.14
519.4753	3783.923
519.6373	3829.693
519.7992	3913.356
519.9611	4001.494
520.123	4062.243
520.2849	4030.669
520.4468	3926.778
520.6087	3806.898
520.7706	3758.397
520.9325	3825.368
521.0944	3944.566
521.2562	4064.129
521.4181	4060.105
521.58	3980.809
521.7418	3948.414
521.9036	4010.793
522.0655	4122.025
522.2273	4168.463
522.3891	4079.193
522.551	3889.188
522.7128	3758.482
522.8746	3770.7
523.0363	3886.07
523.1981	3987.56
523.3599	3931.35
523.5217	3935.301
523.6835	4059.238
523.8452	4161.348
524.007	4222.493
524.1687	4214.923
524.3304	4199.592
524.4922	4206.78
524.6539	4200.731
524.8157	4154.967
524.9774	4122.069
525.1391	4108.618
525.3008	4103.35
525.4625	4125.445
525.6241	4153.016
525.7858	4216.677
525.9475	4260.259
526.1092	4160.559
526.2709	3950.632
526.4325	3728.741
526.5942	3580.123
526.7558	3570.053
526.9174	3552.613
527.079	3569.4
527.2407	3687.174
527.4023	3848.152
527.5639	3919.771
527.7255	4035.183
527.8871	4159.734
528.0487	4159.019
528.2103	4068.26
528.3718	3989.896
528.5334	4066.706
528.695	4198.067
528.8565	4301.875
529.0181	4339.017
529.1796	4316.743
529.3412	4303.877
529.5027	4251.556
529.6642	4123.525
529.8257	4002.347
529.9872	3980.136
530.1487	4038.637
530.3102	4116.321
530.4717	4163.391
530.6332	4225.478
530.7947	4260.696
530.9562	4260.847
531.1176	4281.179
531.2791	4276.332
531.4405	4218.827
531.6019	4125.495
531.7634	4109.072
531.9248	4112.671
532.0862	4100.579
532.2477	4066.111
532.4091	3958.589
532.5704	3819.439
532.7319	3682.537
532.8932	3620.199
533.0546	3702.179
533.216	3872.312
533.3774	3998.542
533.5388	4029.413
533.7001	4044.156
533.8615	4008.796
534.0228	3881.381
534.1841	3830.711
534.3455	3873.349
534.5068	3945.042
534.6681	3948.095
534.8293	3902.515
534.9907	3913.563
535.152	3958.399
535.3132	4016.531
535.4745	4066.716
535.6358	4107.671
535.7971	4135.655
535.9583	4105.872
536.1196	4038.302
536.2808	3970.077
536.4421	3879.605
536.6033	3827.69
536.7645	3765.469
536.9258	3681.124
537.087	3638.485
537.2482	3669.363
537.4094	3780.646
537.5706	3889.553
537.7318	3930.109
537.8929	3919.708
538.0541	3896.781
538.2153	3846.199
538.3764	3804.242
538.5376	3850.248
538.6987	3905.331
538.8599	3871.209
539.021	3809.584
539.1821	3746.803
539.3432	3717.618
539.5043	3683.093
539.6655	3648.522
539.8265	3637.647
539.9876	3657.041
540.1487	3676.977
540.3098	3653.203
540.4708	3547.979
540.6319	3467.271
540.793	3501.468
540.954	3550.431
541.1151	3618.874
541.2761	3658.814
541.4371	3679.695
541.5981	3691.695
541.7592	3723.698
541.9202	3764.91
542.0812	3747.054
542.2422	3704.06
542.4031	3653.448
542.5641	3681.156
542.7251	3713.14
542.886	3684.501
543.0471	3615.386
543.208	3593.671
543.369	3603.857
543.5298	3608.915
543.6908	3643.141
543.8517	3735.386
544.0126	3824.061
544.1736	3881.912
544.3345	3818.222
544.4954	3700.983
544.6563	3604.682
544.8171	3604.194
544.978	3719.312
545.1389	3801.684
545.2997	3759.922
545.4606	3682.506
545.6215	3652.951
545.7823	3685.657
545.9432	3748.625
546.104	3780.461
546.2648	3702.815
546.4256	3657.25
546.5864	3668.01
546.7473	3722.708
546.908	3759.656
547.0688	3768.497
547.2296	3767.749
547.3904	3715.202
547.5511	3607.688
547.7119	3529.322
547.8727	3537.285
548.0334	3566.327
548.1942	3620.461
548.3549	3657.842
548.5156	3712.069
548.6763	3747.649
548.837	3731.238
548.9977	3711.776
549.1584	3718.226
549.3192	3728.975
549.4798	3748.767
549.6405	3717.037
549.8011	3699.195
549.9619	3717.658
550.1225	3706.446
550.2831	3699.248
550.4438	3676.448
550.6044	3643.601
550.765	3661.616
550.9257	3677.917
551.0863	3681.969
551.2469	3641.016
551.4075	3616.281
551.5681	3642.615
551.7287	3681.763
551.8893	3738.61
552.0498	3749.903
552.2104	3751.141
552.371	3732.177
552.5315	3668.789
552.6921	3574.618
552.8526	3513.514
553.0131	3524.595
553.1736	3594.409
553.3342	3626.219
553.4947	3601.474
553.6552	3588.856
553.8157	3620.747
553.9762	3635.658
554.1367	3642.019
554.2971	3654.005
554.4576	3638.017
554.618	3603.494
554.7785	3613.654
554.939	3629.296
555.0994	3646.972
555.2598	3606.525
555.4203	3566.167
555.5807	3551.651
555.7411	3559.648
555.9015	3572.066
556.0619	3518.887
556.2223	3481.022
556.3827	3459.454
556.5431	3441.372
556.7034	3414.536
556.8638	3406.877
557.0242	3401.413
557.1845	3378.579
557.3448	3366.03
557.5052	3379.18
557.6655	3398.12
557.8259	3439.104
557.9861	3456.775
558.1465	3446.961
558.3068	3419.893
558.467	3386.709
558.6274	3277.367
558.7877	3196.813
558.9479	3166.635
559.1082	3191.116
559.2684	3248
559.4287	3272.533
559.5889	3280.479
559.7491	3286.193
559.9094	3285.693
560.0696	3235.317
560.2299	3193.993
560.3901	3241.54
560.5502	3340.703
560.7104	3420.388
560.8707	3439.687
561.0308	3452.38
561.191	3431.383
561.3511	3365.242
561.5114	3239.328
561.6714	3174.55
561.8316	3198.779
561.9918	3271.781
562.1519	3319.163
562.312	3279.184
562.4722	3244.253
562.6323	3226.693
562.7924	3275.682
562.9525	3339.824
563.1125	3353.548
563.2726	3360.22
563.4327	3310.038
563.5928	3245.199
563.7528	3225.967
563.9129	3232.874
564.0729	3215.825
564.233	3207.959
564.393	3229.434
564.553	3243.977
564.7131	3279.21
564.873	3277.459
565.0331	3271.371
565.1931	3251.581
565.353	3220.619
565.5131	3190.354
565.673	3129.85
565.833	3070.657
565.9929	3068.944
566.1529	3077.133
566.3129	3102.68
566.4728	3147.383
566.6328	3162.424
566.7927	3184.195
566.9526	3198.701
567.1125	3204.858
567.2724	3220.98
567.4323	3251.886
567.5922	3243.777
567.7521	3223.028
567.9119	3228.896
568.0718	3185.663
568.2317	3128.006
568.3915	3102.304
568.5514	3080.454
568.7112	3048.551
568.871	3062.763
569.0309	3100.199
569.1907	3124.122
569.3505	3162.805
569.5103	3153.318
569.6701	3164.91
569.8299	3142.92
569.9897	3116.915
570.1495	3097.034
570.3092	3077.485
570.469	3074.448
570.6287	3044.254
570.7885	2993.703
570.9482	2940.267
571.108	2913.943
571.2677	2951.576
571.4274	3003.665
571.5871	3044.607
571.7468	3086.812
571.9066	3103.597
572.0662	3131.27
572.2259	3135.99
572.3856	3145.937
572.5452	3152.771
572.7049	3152.427
572.8646	3143.475
573.0242	3115.049
573.1838	3109.112
573.3435	3143.117
573.5031	3148.037
573.6627	3135.253
573.8223	3134.779
573.9819	3115.645
574.1415	3106.347
574.3011	3090.099
574.4607	3091.113
574.6203	3075.496
574.7798	3062.667
574.9394	3063.579
575.099	3037.75
575.2585	2993.92
575.418	2947.873
575.5776	2952.733
575.7371	3004.629
575.8966	3030.151
576.0562	3007.754
576.2156	2996.644
576.3751	2982.77
576.5346	3022.06
576.6941	3066.898
576.8536	3069.184
577.0131	3062.272
577.1725	3029.531
577.332	3016.979
577.4914	3017.366
577.6508	3009.043
577.8103	3023.622
577.9697	2980.135
578.1291	2909.517
578.2885	2866.583
578.4479	2872.741
578.6073	2877.866
578.7667	2892.425
578.9261	2930.785
579.0854	2931.961
579.2448	2891.541
579.4042	2910.956
579.5635	2902.065
579.7229	2914.191
579.8822	2929.59
580.0416	2933.824
580.2009	2938.221
580.3602	2927.363
580.5195	2897.494
580.6788	2872.576
580.8381	2883.69
580.9974	2884.371
581.1566	2885.689
581.3159	2905.283
581.4752	2876.145
581.6345	2849.317
581.7937	2861.188
581.9529	2886.109
582.1122	2895.294
582.2714	2894.981
582.4306	2893.449
582.5898	2870.914
582.749	2872.95
582.9082	2891.369
583.0674	2837.595
583.2266	2824.408
583.3857	2831.293
583.5449	2825.999
583.7041	2825.579
583.8633	2835.104
584.0224	2830.088
584.1815	2841.261
584.3407	2841.927
584.4998	2819.034
584.6589	2812.058
584.818	2806.125
584.9771	2789.286
585.1362	2765.684
585.2953	2717.975
585.4544	2704.33
585.6135	2675.887
585.7725	2648.171
585.9316	2656.964
586.0906	2673.736
586.2497	2686.552
586.4087	2685.548
586.5677	2696.547
586.7267	2715.928
586.8858	2707.38
587.0448	2690.221
587.2038	2676.586
587.3628	2694.862
587.5218	2666.531
587.6807	2649.504
587.8397	2659.598
587.9987	2639.024
588.1577	2611.569
588.3166	2585.584
588.4755	2565.996
588.6345	2533.778
588.7934	2459.954
588.9523	2357.786
589.1112	2283.914
589.2701	2269.741
589.429	2283.589
589.5879	2292.322
589.7468	2304.218
589.9056	2329.625
590.0645	2409.539
590.2234	2462.56
590.3822	2494.697
590.5411	2516.945
590.6999	2523.605
590.8588	2541.017
591.0176	2510.409
591.1764	2491.743
591.3352	2503.614
591.494	2482.121
591.6528	2465.488
591.8116	2464.742
591.9703	2452.003
592.1291	2464.999
592.2878	2462.517
592.4467	2486.578
592.6053	2479.867
592.7641	2469.831
592.9229	2469.391
593.0816	2475.255
593.2403	2455.475
593.399	2461.531
593.5577	2487.577
593.7164	2497.301
593.8751	2503.531
594.0338	2490.209
594.1924	2450.56
594.3511	2436.339
594.5098	2440.753
594.6684	2416.477
594.8271	2409.409
594.9857	2410.846
595.1443	2416.508
595.303	2428.216
595.4615	2434.209
595.6202	2456.528
595.7787	2453.263
595.9374	2440.711
596.0959	2430.687
596.2545	2455.414
596.4131	2474.559
596.5717	2445.813
596.7302	2444.948
596.8887	2465.119
597.0473	2467.449
597.2058	2454.593
597.3644	2442.203
597.5229	2437.937
597.6814	2421.935
597.8399	2416.44
597.9984	2434.107
598.1569	2434.655
598.3154	2425.43
598.4738	2412.531
598.6323	2427.418
598.7908	2420.985
598.9492	2422.51
599.1076	2436.379
599.2661	2439.569
599.4245	2447.993
599.5829	2445.689
599.7413	2424.789
599.8997	2420.982
600.0581	2430.401
600.2165	2420.114
600.3749	2434.231
600.5333	2413.878
600.6917	2412.72
600.85	2398.138
601.0084	2371.852
601.1667	2384.882
601.325	2414.675
601.4833	2400.154
601.6417	2384.96
601.8	2375.402
601.9583	2361.642
602.1166	2344.765
602.2749	2330.962
602.4332	2355.169
602.5914	2380.379
602.7498	2395.836
602.908	2412.859
603.0662	2409.597
603.2245	2433.14
603.3828	2431.819
603.541	2414.962
603.6992	2417.14
603.8574	2417.95
604.0156	2410.871
604.1738	2409.166
604.332	2406.732
604.4902	2412.779
604.6484	2417.208
604.8065	2414.384
604.9647	2405.69
605.1229	2406.49
605.281	2408.331
605.4391	2375.33
605.5973	2364.516
605.7554	2362.602
605.9135	2358.633
606.0717	2381.883
606.2297	2377.706
606.3878	2366.554
606.5459	2357.689
606.704	2360.976
606.8621	2373.153
607.0201	2384.978
607.1782	2394.676
607.3362	2413.84
607.4943	2416.219
607.6523	2386.675
607.8104	2386.614
607.9684	2360.918
608.1264	2302.377
608.2844	2299.975
608.4424	2306.107
608.6003	2270.124
608.7584	2277.063
608.9163	2292.185
609.0743	2290.748
609.2322	2264.685
609.3902	2248.529
609.5482	2269.266
609.7061	2282.11
609.864	2262.077
610.0219	2253.147
610.1798	2230.297
610.3377	2179.044
610.4956	2187.324
610.6535	2225.979
610.8114	2238.635
610.9693	2235.172
611.1271	2244.883
611.285	2253.613
611.4429	2263.978
611.6007	2252.535
611.7585	2248.409
611.9164	2218.558
612.0742	2187.056
612.232	2177.582
612.3898	2160.59
612.5476	2171.004
612.7054	2192.822
612.8632	2202.713
613.0209	2192.296
613.1787	2187.824
613.3365	2190.333
613.4942	2178.386
613.652	2120.677
613.8097	2078.691
613.9674	2072.166
614.1252	2107.425
614.2829	2129.494
614.4406	2136.073
614.5983	2149.474
614.756	2156.147
614.9136	2154.649
615.0714	2136.907
615.229	2142.177
615.3867	2143.382
615.5443	2106.628
615.702	2095.819
615.8596	2074.451
616.0172	2032.456
616.1748	2008.738
616.3325	1978.858
616.4901	1978.656
616.6476	2022.683
616.8052	2025.225
616.9628	2027.615
617.1204	2015.085
617.278	2043.027
617.4355	2066.849
617.5931	2065.769
617.7506	2067.139
617.9081	2081.462
618.0657	2068.006
618.2232	2087.156
618.3807	2092.782
618.5382	2096.459
618.6957	2091.475
618.8532	2067.742
619.0107	2033.515
619.1682	2029.907
619.3256	2033.207
619.4831	2052.125
619.6406	2079.307
619.798	2089.688
619.9554	2071.108
620.1129	2062.71
620.2703	2062.914
620.4277	2073.777
620.5851	2072.874
620.7425	2074.41
620.8998	2070.974
621.0573	2067.593
621.2146	2047.663
621.372	2018.649
621.5294	1999.001
621.6867	1998.207
621.8441	2003.956
622.0013	1989.504
622.1587	1998.863
622.316	2003.015
622.4733	2011.984
622.6306	1996.208
622.7879	2001.759
622.9452	1981.633
623.1025	1939.601
623.2598	1942.439
623.4171	1980.115
623.5743	1973.291
623.7316	1980.534
623.8888	1976.751
624.046	1970.036
624.2032	1954.818
624.3605	1929.424
624.5176	1906.324
624.6749	1914.147
624.8321	1946.814
624.9893	1955.264
625.1464	1949.166
625.3036	1921.474
625.4608	1885.879
625.6179	1876.216
625.7751	1879.844
625.9322	1909.897
626.0894	1913.425
626.2465	1929.346
626.4036	1950.911
626.5607	1942.684
626.7178	1937.069
626.8749	1940.467
627.032	1942.137
627.189	1938.131
627.3461	1928.985
627.5032	1919.6
627.6602	1881.709
627.8173	1822.473
627.9743	1791.018
628.1313	1792.097
628.2884	1825.338
628.4454	1874.681
628.6024	1891.736
628.7594	1886.778
628.9164	1896.916
629.0734	1898.192
629.2303	1874.098
629.3873	1862.06
629.5443	1868.088
629.7012	1850.466
629.8582	1847.204
630.0151	1824.936
630.172	1806.819
630.3289	1801.405
630.4858	1816.526
630.6428	1859.411
630.7996	1872.779
630.9565	1872.865
631.1134	1865.952
631.2703	1861.624
631.4272	1835.796
631.584	1812.352
631.7408	1778.042
631.8977	1783.112
632.0546	1797.727
632.2114	1814.385
632.3682	1827.636
632.525	1859.936
632.6818	1864.866
632.8386	1864.172
632.9954	1860.811
633.1522	1861.166
633.3089	1846.008
633.4657	1826.962
633.6224	1814.286
633.7792	1812.37
633.9359	1806.503
634.0927	1822.388
634.2494	1827.504
634.4061	1808.443
634.5628	1799.776
634.7195	1813.657
634.8762	1843.277
635.0329	1845.923
635.1895	1846.817
635.3462	1815.098
635.5029	1814.269
635.6595	1805.635
635.8162	1783.032
635.9728	1778.921
636.1295	1766.936
636.2861	1758.6
636.4427	1778.478
636.5992	1781.756
636.7559	1800.366
636.9124	1812.443
637.069	1807.154
637.2256	1819.943
637.3821	1815.219
637.5387	1812.404
637.6953	1803.387
637.8518	1787.734
638.0084	1784.844
638.1649	1793.357
638.3214	1790.205
638.4779	1796.309
638.6344	1795.298
638.7909	1795.968
638.9474	1808.193
639.1038	1791.64
639.2603	1759.544
639.4167	1739.534
639.5732	1730.237
639.7297	1742.689
639.8861	1719.255
640.0425	1697.443
640.199	1690.908
640.3553	1708.291
640.5118	1721.598
640.6682	1715.901
640.8245	1694.732
640.981	1686.058
641.1373	1683.576
641.2936	1699.108
641.45	1696.316
641.6064	1690.644
641.7627	1675.411
641.9191	1673.32
642.0754	1666.531
642.2317	1666.747
642.388	1687.383
642.5443	1687.466
642.7006	1696.866
642.8569	1692.318
643.0131	1664.716
643.1694	1665.964
643.3257	1678.252
643.4819	1673.113
643.6382	1674.414
643.7944	1632.773
643.9506	1607.608
644.1069	1622.869
644.2631	1642.192
644.4193	1664.266
644.5754	1658.82
644.7316	1657.958
644.8878	1613.522
645.044	1593.542
645.2002	1597.676
645.3563	1621.039
645.5125	1623.3
645.6686	1604.019
645.8248	1582.786
645.9809	1594.795
646.137	1583.154
646.2931	1555.179
646.4492	1548.208
646.6053	1571.316
646.7614	1575.241
646.9174	1574.486
647.0735	1561.483
647.2296	1549.843
647.3856	1543.738
647.5417	1526.788
647.6977	1540.073
647.8537	1545.718
648.0098	1543.044
648.1658	1539.791
648.3218	1517.314
648.4777	1520.184
648.6337	1527.235
648.7897	1525.505
648.9457	1535.287
649.1016	1534.533
649.2576	1497.767
649.4135	1450.276
649.5695	1416.401
649.7254	1400.82
649.8813	1431.261
650.0372	1479.249
650.1932	1510.813
650.3491	1537.245
650.5049	1543.816
650.6608	1554.212
650.8167	1546.699
650.9725	1546.136
651.1284	1538.135
651.2842	1512.882
651.4401	1489.174
651.5959	1452.448
651.7518	1449.511
651.9076	1444.484
652.0634	1475.056
652.2192	1491.901
652.3749	1503.221
652.5308	1512.204
652.6865	1509.706
652.8423	1499.811
652.998	1489.478
653.1538	1494.441
653.3096	1487.297
653.4653	1488.134
653.621	1504.001
653.7767	1510.664
653.9324	1507.04
654.0881	1490.904
654.2438	1489.582
654.3995	1478.541
654.5552	1448.588
654.7109	1444.715
654.8665	1442.422
655.0222	1454.389
655.1778	1440.912
655.3334	1419.665
655.4891	1402.585
655.6447	1378.51
655.8003	1345.965
655.9559	1301.758
656.1115	1195.324
656.2671	1081.542
656.4227	1051.017
656.5782	1120.579
656.7338	1230.188
656.8893	1315.921
657.0449	1350.671
657.2004	1380.842
657.356	1383.442
657.5115	1397.438
657.667	1406.449
657.8225	1436.559
657.978	1446.281
658.1335	1459.409
658.289	1446.537
658.4445	1447.151
658.5999	1458.407
658.7554	1458.426
658.9108	1459.347
659.0663	1459.127
659.2217	1446.113
659.3771	1420.881
659.5325	1410.218
659.6879	1429.034
659.8433	1442.865
659.9987	1449.22
660.1541	1459.439
660.3095	1460.997
660.4648	1461.684
660.6202	1451.358
660.7756	1452.253
660.9309	1447.344
661.0862	1452.828
661.2416	1458.547
661.3969	1457.25
661.5522	1465.209
661.7075	1467.729
661.8628	1467.672
662.0181	1472.687
662.1733	1471.474
662.3286	1457.286
662.4839	1463.306
662.6391	1458.698
662.7944	1456.284
662.9496	1454.759
663.1048	1439.841
663.26	1424.981
663.4152	1399.865
663.5704	1398.726
663.7256	1429.954
663.8808	1445.066
664.036	1450.505
664.1912	1440.305
664.3463	1427.766
664.5015	1438.203
664.6566	1440.287
664.8118	1450.349
664.9669	1463.193
665.122	1454.015
665.2771	1443.736
665.4322	1441.525
665.5873	1457.708
665.7424	1444.782
665.8975	1432.447
666.0526	1436.22
666.2076	1419.421
666.3627	1399.901
666.5177	1403.238
666.6727	1436.279
666.8278	1444.198
666.9828	1425.124
667.1378	1419.863
667.2928	1429.221
667.4478	1423.865
667.6028	1415.312
667.7578	1399.638
667.9127	1394.95
668.0677	1399.471
668.2226	1422.578
668.3776	1431.66
668.5325	1424.564
668.6874	1422.703
668.8423	1419.915
668.9973	1417.151
669.1522	1408.305
669.3071	1408.58
669.4619	1406.694
669.6168	1385.556
669.7717	1372.066
669.9265	1378.165
670.0814	1379.262
670.2362	1378.868
670.3911	1369.901
670.5459	1374.271
670.7007	1374.822
670.8555	1370.597
671.0103	1380.064
671.1651	1374.308
671.3199	1364.282
671.4747	1358.167
671.6295	1361.504
671.7842	1351.989
671.939	1350.772
672.0937	1341.727
672.2484	1340.518
672.4031	1342.028
672.5579	1356.593
672.7126	1352.85
672.8673	1359.433
673.022	1351.831
673.1767	1345.375
673.3314	1351.335
673.486	1343.096
673.6407	1343.236
673.7953	1342.836
673.95	1337.989
674.1046	1335.349
674.2592	1328.846
674.4138	1307.38
674.5684	1325.51
674.723	1336.666
674.8776	1313.469
675.0322	1311.337
675.1868	1292.63
675.3414	1299.75
675.4959	1305.591
675.6505	1304.797
675.805	1294.762
675.9595	1290.716
676.1141	1290.241
676.2686	1286.591
676.4231	1287.987
676.5776	1282.715
676.7321	1274.738
676.8866	1257.376
677.041	1265.631
677.1955	1261.851
677.35	1264.134
677.5044	1261.08
677.6589	1271.345
677.8133	1272.629
677.9677	1278.564
678.1221	1258.494
678.2766	1247.249
678.4309	1243.551
678.5853	1236.773
678.7397	1228.332
678.8941	1223.142
679.0485	1233.869
679.2028	1236.92
679.3571	1231.885
679.5115	1214.066
679.6658	1206.943
679.8201	1211.216
679.9744	1211.102
680.1288	1198.327
680.2831	1200.097
680.4373	1212.013
680.5916	1206.377
680.7459	1197.494
680.9001	1194.192
681.0544	1183.051
681.2087	1180.273
681.3629	1176.113
681.5171	1178.894
681.6713	1175.378
681.8256	1174.363
681.9797	1164.579
682.134	1158.917
682.2881	1160.103
682.4423	1153.852
682.5965	1148.281
682.7507	1142.5
682.9048	1142.359
683.059	1145.604
683.2131	1140.886
683.3672	1142.623
683.5213	1134.717
683.6754	1123.226
683.8295	1112.965
683.9836	1095.498
684.1377	1077.221
684.2918	1061.175
684.4459	1074.51
684.5999	1081.288
684.754	1095.851
684.908	1106.843
685.062	1111.821
685.2161	1098.058
685.3701	1092.785
685.5241	1088.688
685.6781	1072.194
685.8321	1050.821
685.9861	1053.097
686.14	1064.088
686.294	1068.107
686.4479	1044.734
686.6019	999.8948
686.7559	903.967
686.9098	787.1094
687.0637	720.8458
687.2176	703.9547
687.3715	738.2244
687.5254	778.1904
687.6793	809.6494
687.8332	848.1749
687.9871	887.7353
688.1409	915.6078
688.2947	941.3893
688.4486	943.4339
688.6024	917.748
688.7563	895.9452
688.9101	901.98
689.0639	885.1847
689.2177	875.812
689.3715	886.7198
689.5253	887.9301
689.6791	889.8124
689.8328	892.1212
689.9866	893.3051
690.1403	904.8134
690.2941	912.3743
690.4478	922.2357
690.6015	915.788
690.7552	921.8272
690.9089	924.7114
691.0626	925.5529
691.2164	926.4067
691.37	921.8933
691.5237	917.0886
691.6774	924.4407
691.831	938.2739
691.9847	934.213
692.1383	932.8624
692.2919	936.0645
692.4456	934.52
692.5992	932.0574
692.7527	923.0926
692.9064	918.2917
693.0599	912.7685
693.2136	917.3823
693.3671	919.4757
693.5207	908.9675
693.6742	903.1459
693.8278	903.5645
693.9813	892.3309
694.1348	883.6575
694.2883	874.0191
694.4418	896.4665
694.5953	900.0709
694.7488	897.603
694.9023	897.04
695.0558	894.0855
695.2093	900.9186
695.3627	911.2048
695.5162	907.7352
695.6696	907.2352
695.8231	900.719
695.9764	891.7697
696.1299	900.4544
696.2833	910.9333
696.4367	928.5349
696.5901	931.9484
696.7435	938.8661
696.8968	950.8863
697.0502	931.03
697.2036	922.9551
697.3569	935.6848
697.5102	933.4599
697.6635	915.5941
697.8168	883.1925
697.9702	880.0657
698.1235	903.0482
698.2768	920.1226
698.4301	923.2969
698.5833	901.2553
698.7366	887.8676
698.8898	874.2999
699.0431	872.4999
699.1964	877.0203
699.3495	872.6542
699.5028	893.4111
699.656	886.1401
699.8092	879.0121
699.9624	882.8848
700.1156	880.7983
700.2688	871.3216
700.4219	858.4515
700.5751	850.9592
700.7283	853.2396
700.8814	867.8831
701.0345	875.7429
701.1877	873.429
701.3408	874.3523
701.4939	869.2818
701.647	863.8231
701.8001	854.3181
701.9532	856.798
702.1063	872.2444
702.2593	871.4583
702.4124	863.9496
702.5654	855.3864
702.7184	858.7001
702.8715	864.3531
703.0245	869.8976
703.1776	889.8286
703.3305	893.8513
703.4835	893.9078
703.6365	887.4352
703.7895	871.7151
703.9424	873.3928
704.0954	872.7294
704.2484	878.4225
704.4013	882.7064
704.5543	888.371
704.7072	896.8859
704.8601	883.3774
705.013	887.2259
705.1659	864.369
705.3188	860.2298
705.4717	864.0721
705.6246	871.4536
705.7774	870.4117
705.9303	870.8714
706.0831	882.2602
706.236	875.9268
706.3888	864.2398
706.5416	871.128
706.6944	871.5845
706.8472	881.8105
707	870.9614
707.1528	868.3028
707.3056	867.6204
707.4583	868.0278
707.6111	879.3488
707.7639	880.4017
707.9166	879.103
708.0693	867.2122
708.222	874.1617
708.3748	866.7476
708.5275	860.6383
708.6802	851.8586
708.8328	852.4339
708.9855	853.0491
709.1382	844.9926
709.2909	852.6517
709.4435	856.4147
709.5962	853.3511
709.7488	857.8567
709.9014	862.9659
710.054	852.3884
710.2067	847.5458
710.3593	861.0867
710.5118	859.9845
710.6644	843.5494
710.817	837.3004
710.9695	845.8038
711.1221	841.1536
711.2747	829.2881
711.4272	823.7621
711.5797	829.1148
711.7322	837.9517
711.8848	839.4214
712.0373	826.8482
712.1898	821.0413
712.3422	813.4291
712.4948	822.6233
712.6472	820.9872
712.7996	825.4689
712.9521	812.7305
713.1046	803.6767
713.257	802.0056
713.4094	803.3079
713.5618	818.219
713.7142	827.9454
713.8666	822.5941
714.019	805.1902
714.1714	805.3101
714.3237	809.2756
714.4761	804.6072
714.6285	792.733
714.7808	779.8024
714.9331	770.0976
715.0854	784.8409
715.2378	791.8383
715.3901	789.845
715.5424	782.2057
715.6947	790.3994
715.8469	788.2601
715.9992	779.1016
716.1515	772.4281
716.3037	762.3567
716.456	729.9749
716.6082	695.15
716.7604	686.097
716.9127	673.5408
717.0649	664.7798
717.2171	646.9138
717.3693	635.1047
717.5214	627.6191
717.6736	627.8014
717.8258	635.3381
717.978	625.6093
718.1301	637.521
718.2822	631.6213
718.4344	605.6026
718.5865	578.0247
718.7386	560.5762
718.8907	580.5481
719.0428	607.7883
719.1949	594.492
719.3469	578.7087
719.499	582.6153
719.6511	597.051
719.8031	596.8557
719.9551	589.5189
720.1072	580.8207
720.2592	569.598
720.4112	578.4063
720.5632	593.717
720.7152	605.2714
720.8672	619.1328
721.0192	645.5285
721.1711	672.397
721.3231	690.466
721.475	698.351
721.627	698.6112
721.7789	695.2155
721.9308	694.8672
722.0828	702.1748
722.2347	698.1109
722.3866	698.7461
722.5385	672.5762
722.6903	678.8929
722.8422	688.8853
722.9941	679.6083
723.1459	653.2758
723.2977	621.4758
723.4496	581.3801
723.6014	584.1652
723.7532	603.5302
723.905	616.6658
724.0568	598.5159
724.2086	597.1431
724.3604	608.6042
724.5121	596.8264
724.6639	608.3929
724.8157	624.0563
724.9674	628.5721
725.1191	617.7651
725.2709	589.7983
725.4226	590.7227
725.5743	598.1508
725.726	620.6098
725.8777	644.8579
726.0294	632.8674
726.181	624.8151
726.3327	598.7623
726.4844	596.5936
726.636	599.0244
726.7877	617.9317
726.9393	640.3954
727.0909	640.8485
727.2425	630.6656
727.3941	611.7194
727.5457	592.145
727.6973	562.8194
727.8488	560.8879
728.0004	593.4704
728.1519	616.9498
728.3035	639.0141
728.455	648.9151
728.6066	645.5677
728.7581	632.2505
728.9095	604.7396
729.0611	561.5313
729.2126	561.5047
729.364	573.2977
729.5155	595.9551
729.667	633.6422
729.8184	643.5046
729.9698	644.1078
730.1213	631.8517
730.2727	604.3151
730.4241	592.0797
730.5756	590.051
730.7269	606.5698
730.8784	610.8107
731.0297	602.0683
731.1811	597.9502
731.3325	608.115
731.4838	623.8993
731.6351	624.0535
731.7865	611.7196
731.9378	610.3807
732.0891	616.7006
732.2404	639.9992
732.3917	649.9315
732.543	658.845
732.6943	650.7997
732.8456	644.1786
732.9968	647.8231
733.1481	645.4175
733.2993	650.5944
733.4506	647.2338
733.6018	658.2141
733.753	670.4636
733.9042	675.5507
734.0554	683.8865
734.2066	689.2548
734.3578	681.4152
734.509	669.4856
734.6602	670.119
734.8113	660.8052
734.9624	650.2335
735.1136	645.2642
735.2647	655.7488
735.4158	644.9084
735.5669	648.1367
735.718	647.47
735.8691	644.9422
736.0201	648.5761
736.1713	633.3082
736.3223	635.7459
736.4733	639.9953
736.6244	650.4975
736.7755	651.1033
736.9265	641.668
737.0775	645.5574
737.2285	634.0583
737.3795	650.1169
737.5305	650.8752
737.6815	653.4623
737.8324	655.2623
737.9834	656.6022
738.1343	649.0161
738.2853	641.5168
738.4362	633.2601
738.5871	636.9291
738.738	625.0022
738.8889	618.1591
739.0399	618.4245
739.1907	624.7383
739.3416	637.7788
739.4925	632.528
739.6433	636.4524
739.7942	631.7118
739.945	620.9053
740.0958	642.6636
740.2467	640.1988
740.3975	642.1123
740.5483	639.0197
740.6991	631.2292
740.8499	624.5425
741.0007	613.0493
741.1514	616.2517
741.3022	621.8192
741.4529	617.4056
741.6036	623.6612
741.7544	624.8774
741.9051	633.9128
742.0558	629.462
742.2065	614.1627
742.3572	603.1422
742.5079	610.7313
742.6586	624.0161
742.8093	625.0829
742.9599	627.5014
743.1105	634.1379
743.2612	626.173
743.4118	623.6098
743.5624	626.5476
743.7131	631.2331
743.8636	623.1054
744.0142	616.7878
744.1648	608.3774
744.3154	607.349
744.4659	614.8452
744.6165	608.211
744.767	604.5048
744.9176	605.7992
745.0681	611.1288
745.2186	620.6357
745.3691	618.3457
745.5197	607.0648
745.6702	601.1486
745.8206	604.2239
745.9711	607.7717
746.1215	599.4536
746.272	600.0395
746.4224	601.2301
746.5729	605.1478
746.7233	597.8806
746.8737	600.8532
747.0241	608.809
747.1745	608.318
747.3249	597.6611
747.4753	584.1599
747.6257	595.1306
747.776	604.4362
747.9264	598.2154
748.0767	584.3628
748.2271	583.5631
748.3774	587.0242
748.5276	586.6766
748.678	578.524
748.8282	593.0775
748.9786	590.1816
749.1288	577.9024
749.2791	567.9897
749.4294	560.8323
749.5796	559.8848
749.7299	561.4813
749.8801	569.5534
750.0303	573.3729
750.1805	573.1904
750.3307	576.67
750.4809	568.7333
750.6311	567.3273
750.7813	555.8742
750.9314	555.2616
751.0816	547.2738
751.2318	537.0427
751.3818	543.6304
751.532	547.6014
751.6821	560.1332
751.8322	559.6912
751.9823	558.8218
752.1324	547.6752
752.2825	542.881
752.4326	543.883
752.5826	536.3604
752.7327	544.86
752.8827	551.3444
753.0327	543.9455
753.1827	540.0978
753.3328	534.0421
753.4828	534.8362
753.6328	543.8121
753.7828	548.7237
753.9327	537.9312
754.0827	544.017
754.2327	537.2276
754.3826	539.996
754.5325	535.1258
754.6825	531.5475
754.8324	523.2856
754.9823	519.8282
755.1322	529.979
755.2821	524.9106
755.432	522.2034
755.5818	511.615
755.7318	514.4976
755.8816	513.2162
756.0314	511.0826
756.1813	511.7556
756.3311	510.1865
756.4809	516.4033
756.6307	506.9084
756.7805	505.6613
756.9303	501.9978
757.0801	496.701
757.2299	496.5844
757.3796	493.8997
757.5294	499.8874
757.6791	498.4352
757.8289	493.2646
757.9786	495.42
758.1283	488.8559
758.278	483.5365
758.4277	483.1437
758.5773	476.6308
758.7271	475.8213
758.8767	475.9034
759.0264	475.4461
759.176	464.0005
759.3256	416.3064
759.4753	345.8143
759.6249	267.7953
759.7745	216.4081
759.9241	174.1643
760.0737	149.0948
760.2233	131.3419
760.3729	114.6914
760.5224	109.2328
760.6719	105.8711
760.8215	109.254
760.971	124.102
761.1205	138.8215
761.2701	153.8958
761.4196	179.8563
761.5691	225.7921
761.7186	278.7097
761.868	317.1576
762.0175	330.2887
762.167	306.3087
762.3164	266.6176
762.4659	237.1438
762.6153	228.5891
762.7647	218.7501
762.9141	210.8848
763.0635	202.3866
763.2129	203.6341
763.3623	209.3174
763.5117	211.4669
763.661	223.4475
763.8104	226.3792
763.9597	230.6388
764.1091	240.7474
764.2584	243.6685
764.4077	253.7818
764.557	264.5053
764.7063	273.5357
764.8556	277.9933
765.0049	289.7465
765.1541	292.0072
765.3034	302.2723
765.4526	310.0219
765.6019	307.1436
765.7511	324.3599
765.9003	329.1956
766.0496	330.7291
766.1987	334.1602
766.348	350.7097
766.4971	354.364
766.6463	351.3567
766.7955	365.2321
766.9446	373.6082
767.0938	373.2684
767.2429	372.0586
767.392	379.1689
767.5411	387.879
767.6902	388.2683
767.8394	373.6961
767.9884	385.4584
768.1375	393.2888
768.2866	389.7141
768.4356	390.8085
768.5847	398.6808
768.7337	400.2661
768.8828	400.2174
769.0317	396.0142
769.1808	388.9962
769.3298	384.8551
769.4788	393.9543
769.6277	395.7576
769.7767	391.792
769.9257	393.174
770.0746	388.6846
770.2236	400.2567
770.3725	409.0984
770.5214	405.2584
770.6703	400.8364
770.8193	398.0019
770.9681	398.0601
771.1171	400.1523
771.2659	395.6492
771.4148	385.8318
771.5637	389.9705
771.7125	388.2442
771.8613	390.1356
772.0101	394.679
772.159	381.7368
772.3078	384.4759
772.4566	394.3721
772.6054	389.5335
772.7542	380.1343
772.903	385.2179
773.0517	389.246
773.2004	388.9368
773.3492	387.2318
773.4979	392.6556
773.6467	381.2468
773.7953	383.7416
773.944	398.897
774.0928	391.0958
774.2415	377.8576
774.3901	376.5802
774.5388	374.6991
774.6874	362.8649
774.8361	363.2521
774.9847	363.601
775.1334	368.0452
775.282	372.8976
775.4305	366.1345
775.5792	374.3775
775.7277	376.8769
775.8763	372.1456
776.0249	369.2712
776.1735	366.2
776.322	369.8289
776.4705	373.695
776.6191	373.7538
776.7676	366.6425
776.9161	363.8397
777.0646	358.6451
777.2131	356.2843
777.3616	364.045
777.5101	360.1334
777.6585	364.5367
777.8069	367.0989
777.9554	364.9351
778.1038	362.6851
778.2523	362.3094
778.4007	363.7345
778.5491	364.8087
778.6974	361.7539
778.8459	355.652
778.9942	357.5907
779.1426	356.9445
779.291	351.1383
779.4393	357.2599
779.5876	358.609
779.736	352.3408
779.8843	348.6396
780.0326	344.8629
780.1809	343.8622
780.3292	354.7592
780.4775	353.2846
780.6257	353.9672
780.774	354.8402
780.9222	346.0934
781.0704	346.1984
781.2187	354.0704
781.3669	346.9547
781.5151	351.485
781.6633	353.414
781.8115	349.5902
781.9597	352.6707
782.1078	359.7469
782.256	357.6577
782.4042	356.7437
782.5523	357.5434
782.7004	353.0881
782.8486	349.9347
782.9967	353.8044
783.1448	343.1868
783.2929	333.8266
783.441	339.6114
783.5891	333.68
783.7371	335.9786
783.8851	337.7829
784.0332	337.4159
784.1812	338.6527
784.3293	335.8308
784.4773	327.857
784.6253	329.0297
784.7733	325.6058
784.9213	334.8911
785.0692	337.7012
785.2172	322.7793
785.3652	335.6754
785.5131	334.6185
785.6611	333.978
785.809	324.601
785.9569	332.2863
786.1048	328.736
786.2527	326.6868
786.4006	327.3708
786.5485	327.4429
786.6964	328.7714
786.8442	333.1876
786.9921	325.5818
787.1399	321.7401
787.2877	319.882
787.4355	317.4776
787.5833	319.6857
787.7311	313.7596
787.8789	321.2909
788.0267	313.0854
788.1745	310.1547
788.3223	322.6862
788.47	319.4139
788.6177	316.6247
788.7654	313.3763
788.9132	314.158
789.0609	313.3739
789.2086	308.6256
789.3563	304.8041
789.504	301.2384
789.6517	310.8692
789.7993	306.7778
789.947	306.417
790.0946	311.1164
790.2422	297.5745
790.3898	297.9983
790.5375	301.2089
790.6851	308.8346
790.8326	301.6666
790.9802	291.1223
791.1278	295.3909
791.2754	306.0108
791.423	301.4437
791.5705	302.011
791.718	304.4421
791.8655	306.0293
792.0131	296.2115
792.1606	297.6627
792.308	299.3347
792.4556	291.7988
792.603	302.0177
792.7505	299.9671
792.8979	294.5539
793.0454	293.9251
793.1928	289.0939
793.3403	289.4788
793.4877	290.3216
793.6351	286.2873
793.7825	287.0353
793.9299	294.7286
794.0772	295.0349
794.2246	293.6185
794.3719	292.6051
794.5193	287.2662
794.6666	288.5314
794.814	287.4921
794.9613	288.1355
795.1086	290.0409
795.2559	294.7364
795.4032	294.4561
795.5505	293.2829
795.6978	286.7783
795.845	293.1233
795.9922	282.8238
796.1395	278.3364
796.2867	271.4278
796.4339	275.9983
796.5811	281.1519
796.7283	277.9926
796.8755	279.9188
797.0227	287.7654
797.1699	290.6743
797.317	285.7738
797.4642	281.761
797.6113	287.1476
797.7584	279.6623
797.9056	282.8344
798.0527	286.0497
798.1998	282.3844
798.3469	287.9974
798.494	283.2964
798.641	274.3092
798.7881	273.9534
798.9351	280.0336
799.0822	274.1091
799.2292	275.4508
799.3762	279.0407
799.5232	274.1505
799.6702	265.6044
799.8172	265.5302
799.9642	264.1016
800.1111	264.7661
800.2581	264.4084
800.4051	270.4165
800.552	272.1967
800.6989	272.2202
800.8458	267.8813
800.9927	263.1953
801.1396	260.1124
801.2866	258.13
801.4334	266.6856
801.5803	262.9966
801.7272	265.2134
801.874	264.1968
802.0209	266.8066
802.1677	264.1944
802.3145	265.3869
802.4613	256.506
802.6081	256.872
802.7549	245.1065
802.9017	251.0292
803.0485	253.6327
803.1952	256.06
803.342	255.9775
803.4887	251.9469
803.6354	253.4848
803.7822	253.0695
803.9289	255.6433
804.0756	257.0264
804.2223	250.7673
804.369	249.0053
804.5156	248.9275
804.6623	242.5651
804.8089	243.1635
804.9556	248.0449
805.1022	243.4057
805.2488	240.762
805.3954	247.4194
805.542	248.7341
805.6886	249.17
805.8352	250.8293
805.9818	250.3384
806.1283	255.4504
806.2749	251.8846
806.4214	242.5188
806.5679	248.9869
806.7145	250.1129
806.861	244.0183
807.0074	241.9489
807.154	244.0514
807.3004	244.0517
807.4469	251.314
807.5934	249.0284
807.7398	244.5469
807.8862	241.8308
808.0327	239.0185
808.1791	231.982
808.3255	230.6784
808.4719	234.3019
808.6183	239.0874
808.7647	236.4334
808.9111	227.8039
809.0574	234.9946
809.2037	234.6228
809.3501	232.169
809.4965	228.7412
809.6428	223.7102
809.7891	231.0075
809.9354	229.2002
810.0817	225.5947
810.2279	224.2345
810.3742	224.5034
810.5204	224.5185
810.6667	221.9987
810.8129	222.2545
810.9592	218.6025
811.1054	223.8916
811.2516	227.7018
811.3978	218.0851
811.5439	215.8046
811.6901	220.6343
811.8363	221.959
811.9825	214.8558
812.1286	210.3799
812.2748	214.3352
812.4209	215.0777
812.567	211.216
812.7131	215.5854
812.8592	217.9601
813.0053	209.301
813.1514	200.3436
813.2974	200.6188
813.4435	193.5795
813.5895	191.9643
813.7356	194.9399
813.8816	196.3297
814.0276	187.1841
814.1736	188.454
814.3196	186.5467
814.4656	187.3781
814.6116	187.3111
814.7576	185.1812
814.9035	174.3597
815.0494	171.5922
815.1954	173.4338
815.3413	178.3526
815.4872	176.3567
815.6331	182.9696
815.779	188.8362
815.9249	178.9088
816.0707	167.1884
816.2166	161.6738
816.3625	156.3887
816.5083	155.8559
816.6542	163.8601
816.8	166.4881
816.9458	166.8923
817.0916	163.4842
817.2374	175.2598
817.3832	185.5928
817.5289	184.3223
817.6747	172.5875
817.8204	159.9104
817.9662	151.9418
818.1119	154.1382
818.2576	160.1978
818.4034	163.279
818.5491	168.6311
818.6948	172.1879
818.8405	164.8375
818.9861	163.7158
819.1318	166.8306
819.2774	171.1523
819.423	164.6023
819.5687	163.4136
819.7143	163.8926
819.8599	158.6444
820.0055	157.734
820.1511	155.4216
820.2967	168.9227
820.4422	180.3
820.5878	182.9133
820.7333	181.3876
820.8788	182.4649
821.0244	182.1052
821.1699	178.1684
821.3154	169.9285
821.4609	175.7848
821.6064	173.8133
821.7519	177.0312
821.8973	165.4783
822.0428	168.3071
822.1882	162.8335
822.3337	163.2759
822.4791	159.7803
822.6245	141.484
822.7699	129.9344
822.9153	116.2698
823.0607	118.8035
823.2061	119.268
823.3514	128.2628
823.4968	149.5831
823.6422	153.9202
823.7875	161.0478
823.9328	166.9424
824.0781	168.6496
824.2234	164.5493
824.3687	165.4099
824.514	161.8932
824.6592	171.2639
824.8045	181.3578
824.9498	177.0515
825.095	172.4221
825.2402	169.9096
825.3854	171.3358
825.5306	164.8344
825.6758	155.7074
825.821	155.1282
825.9662	153.0177
826.1114	161.5689
826.2565	161.6781
826.4017	168.3618
826.5468	168.8083
826.692	171.9446
826.837	171.3877
826.9822	169.8239
827.1273	167.6915
827.2723	154.0527
827.4174	150.3345
827.5625	151.0101
827.7075	145.7068
827.8526	150.7585
827.9976	151.2695
828.1426	151.3015
828.2877	155.5609
828.4327	160.7766
828.5776	165.1972
828.7227	162.8701
828.8676	152.2494
829.0126	151.4797
829.1575	146.2396
829.3024	150.1865
829.4474	150.9037
829.5923	152.0143
829.7372	157.8664
829.8821	155.2078
830.027	160.5213
830.1719	154.8281
830.3168	154.1778
830.4616	149.9242
830.6064	139.077
830.7513	146.7966
830.8961	148.1136
831.041	155.5313
831.1857	165.0246
831.3306	157.5147
831.4753	149.8896
831.6201	148.163
831.7649	145.944
831.9096	145.9589
832.0544	150.2632
832.1991	141.3531
832.3438	138.7834
832.4885	145.9093
832.6332	151.4446
832.778	153.1288
832.9226	151.7526
833.0673	147.8396
833.2119	142.255
833.3566	145.1866
833.5012	148.6805
833.6459	150.3369
833.7905	142.3658
833.9351	142.2535
834.0797	147.7558
834.2243	148.527
834.3688	154.2371
834.5134	155.9583
834.658	151.9491
834.8026	151.1683
834.9471	155.1865
835.0916	154.605
835.2361	151.9018
835.3806	154.7872
835.5251	153.9525
835.6696	146.5649
835.8141	144.6353
835.9586	148.336
836.103	151.322
836.2474	149.1734
836.3918	155.7391
836.5363	149.775
836.6807	146.7018
836.8251	151.8606
836.9695	151.3959
837.1138	144.4321
837.2582	148.2036
837.4026	142.4994
837.5469	146.7533
837.6913	150.7734
837.8356	151.0849
837.9799	152.3669
838.1242	152.9591
838.2686	160.3957
838.4128	153.8659
838.5571	153.9387
838.7014	151.0583
838.8456	148.4333
838.9899	150.2656
839.1341	151.8913
839.2783	148.1813
839.4225	148.3297
839.5667	153.2896
839.7109	160.149
839.8551	152.4112
839.9993	153.3924
840.1434	149.0791
840.2876	153.335
840.4317	153.9439
840.5759	143.5798
840.72	151.4523
840.8641	148.1017
841.0082	146.6514
841.1523	145.7985
841.2963	151.1866
841.4404	148.4695
841.5845	145.2469
841.7285	143.0173
841.8726	145.5375
842.0165	147.0548
842.1606	147.1131
842.3046	146.1112
842.4485	152.2763
842.5925	143.9791
842.7365	142.5105
842.8805	147.4377
843.0244	142.3096
843.1684	149.1895
843.3123	149.4821
843.4562	141.5975
843.6002	142.5341
843.744	143.0833
843.8879	136.9914
844.0318	143.1555
844.1757	143.8414
844.3195	145.6325
844.4634	149.4706
844.6072	149.3325
844.751	143.3752
844.8948	149.4803
845.0386	146.9958
845.1824	145.1739
845.3262	146.1672
845.47	146.4651
845.6138	144.8306
845.7575	147.1221
845.9012	144.0272
846.045	140.1908
846.1887	144.9518
846.3324	140.6227
846.4761	143.5581
846.6198	139.7459
846.7635	136.6172
846.9071	140.9564
847.0508	134.7847
847.1944	138.2996
847.3381	138.424
847.4817	142.4815
847.6253	136.4309
847.7689	143.8181
847.9125	144.2155
848.0561	141.1039
848.1996	135.9264
848.3432	143.5396
848.4868	138.8896
848.6303	143.611
848.7738	141.725
848.9174	136.2645
849.0609	132.2755
849.2043	133.5259
849.3478	137.2934
849.4913	130.5179
849.6348	123.9045
849.7782	117.3059
849.9217	118.7143
850.0651	113.2397
850.2086	126.4572
850.3519	127.326
850.4954	126.7604
850.6387	134.4728
850.7821	131.0892
850.9255	134.7735
851.0688	133.2135
851.2122	134.9275
851.3555	127.865
851.4988	124.8769
851.6422	128.3481
851.7855	131.2274
851.9288	131.8307
852.0721	131.2617
852.2153	135.5675
852.3586	132.6524
852.5018	124.6757
852.6451	130.0209
852.7883	130.9967
852.9315	126.4338
853.0748	132.5244
853.218	130.7359
853.3611	127.9269
853.5043	130.1051
853.6475	124.305
853.7906	119.1191
853.9338	108.6459
854.0769	98.67181
854.22	95.09986
854.3632	92.49628
854.5063	94.72935
854.6494	102.0774
854.7924	108.0273
854.9355	115.1359
855.0786	121.629
855.2216	127.0355
855.3647	123.5518
855.5077	116.4976
855.6507	120.5978
855.7937	118.7442
855.9367	123.7031
856.0797	126.412
856.2227	126.1402
856.3657	132.1536
856.5086	127.2844
856.6516	129.3775
856.7945	123.2594
856.9374	123.8217
857.0803	125.5495
857.2232	128.8637
857.3661	122.3647
857.509	119.55
857.6519	125.3996
857.7947	127.3481
857.9376	127.1529
858.0804	123.3377
858.2232	119.2157
858.366	117.2544
858.5089	122.4448
858.6516	122.4444
858.7944	124.4226
858.9372	114.84
859.08	121.7703
859.2227	124.1622
859.3654	119.5601
859.5082	120.4237
859.6509	121.3784
859.7936	121.1927
859.9363	123.8053
860.079	121.1056
860.2217	116.9126
860.3643	116.0453
860.507	121.9088
860.6496	121.8509
860.7922	128.3106
860.9349	121.7777
861.0775	115.4072
861.2201	112.5361
861.3627	118.1667
861.5052	114.6381
861.6478	117.2502
861.7904	117.1445
861.9329	107.8866
862.0755	116.4723
862.218	120.5262
862.3605	123.4227
862.503	117.6929
862.6455	115.4469
862.788	117.2659
862.9305	115.5841
863.0729	115.31
863.2154	114.2887
863.3578	115.4968
863.5002	114.4804
863.6426	116.9886
863.7851	112.3942
863.9275	116.6466
864.0698	118.2536
864.2122	119.4461
864.3546	118.4874
864.4969	116.0104
864.6393	115.1311
864.7816	109.6916
864.924	105.6532
865.0662	108.1072
865.2086	110.833
865.3508	115.2649
865.4931	114.5264
865.6354	107.7947
865.7776	106.1554
865.9199	100.6821
866.0621	89.19781
866.2043	85.76271
866.3466	82.799
866.4888	86.90517
866.6309	90.99232
866.7731	93.56792
866.9153	99.62429
867.0574	102.3542
867.1996	105.0755
867.3417	106.9339
867.4839	105.6419
867.626	108.9542
867.7681	105.0543
867.9102	104.6548
868.0522	108.6903
868.1943	105.8486
868.3364	109.6506
868.4785	102.0389
868.6205	102.2674
868.7625	106.2706
868.9045	104.2136
869.0465	98.68859
869.1885	103.2469
869.3305	109.0337
869.4725	104.4167
869.6144	106.5368
869.7564	105.4769
869.8983	102.873
870.0403	103.4278
870.1822	103.136
870.3241	96.66385
870.466	104.1114
870.6079	100.5787
870.7498	102.6407
870.8916	104.6551
871.0335	99.20125
871.1754	101.6261
871.3171	95.05875
871.459	102.5302
871.6008	97.8018
871.7426	102.3457
871.8844	106.8882
872.0262	102.3602
872.1679	100.0992
872.3097	94.99335
872.4514	99.09616
872.5931	100.4601
872.7349	101.5663
872.8766	100.577
873.0183	99.19077
873.16	103.0697
873.3017	99.2315
873.4434	104.8402
873.585	101.4743
873.7266	97.08248
873.8683	100.1773
874.0099	94.53934
874.1516	95.63979
874.2932	99.76699
874.4348	94.22498
874.5763	93.97137
874.7179	101.3802
874.8594	98.76137
875.001	100.3253
875.1425	92.56517
875.2841	90.12273
875.4256	87.83916
875.5671	90.03976
875.7086	92.92482
875.85	94.55568
875.9915	94.05914
876.133	97.11111
876.2744	95.57471
876.4159	95.27198
876.5573	89.46133
876.6987	90.05769
876.8401	92.11939
876.9815	93.09321
877.1229	96.96439
877.2643	90.5499
877.4056	87.62567
877.547	87.64075
877.6884	86.95135
877.8297	89.72069
877.971	91.74438
878.1123	89.31295
878.2536	95.23702
878.3949	96.44455
878.5362	92.74998
878.6774	91.06983
878.8187	94.04872
878.9599	90.19178
879.1011	90.2168
879.2424	91.90594
879.3836	92.2159
879.5248	92.60155
879.666	91.41121
879.8071	88.70657
879.9483	86.28918
880.0895	91.6731
880.2306	89.47943
880.3718	84.64098
880.5129	84.92378
880.654	81.302
880.7951	84.13521
880.9362	89.91451
881.0773	90.67083
881.2183	87.46065
881.3594	90.54631
881.5004	88.00605
881.6414	81.71095
881.7825	84.86467
881.9235	87.01318
882.0645	93.09834
882.2054	96.03207
882.3464	87.02251
882.4874	87.01123
882.6284	86.65433
882.7693	89.58341
882.9103	88.60983
883.0512	93.7804
883.1921	86.48499
883.333	85.08579
883.4739	85.98718
883.6147	85.61572
883.7556	84.40457
883.8965	80.68906
884.0374	86.97124
884.1782	89.67237
884.319	87.7309
884.4598	86.59734
884.6006	89.38599
884.7414	82.62994
884.8822	84.78511
885.0229	83.9661
885.1637	77.93948
885.3044	84.73319
885.4452	87.80981
885.5859	80.75174
885.7266	76.01087
885.8673	81.36012
886.008	80.00111
886.1487	83.88336
886.2894	82.75815
886.43	77.32135
886.5707	78.18962
886.7113	79.10606
886.8519	81.69069
886.9926	82.6246
887.1331	85.76789
887.2737	87.48776
887.4143	83.97511
887.5549	77.18097
887.6954	79.62324
887.836	79.4608
887.9765	74.78841
888.1171	77.68736
888.2576	79.07735
888.3981	83.98113
888.5386	81.21772
888.679	84.75938
888.8195	81.77547
888.96	83.52648
889.1004	78.85323
889.2408	73.73348
889.3813	75.50918
889.5217	78.00954
889.6621	82.6674
889.8025	74.32073
889.9429	79.70146
890.0833	77.9544
890.2236	77.13142
890.364	82.91513
890.5043	79.35574
890.6446	79.87314
890.7849	73.57951
890.9252	76.74761
891.0655	76.61296
891.2058	77.71223
891.3461	78.7311
891.4863	80.42556
891.6266	79.07919
891.7668	77.67845
891.907	75.3032
892.0472	75.2274
892.1874	71.53091
892.3276	78.07938
892.4678	76.40251
892.608	74.4205
892.7481	70.94755
892.8883	73.83909
893.0284	73.39396
893.1685	70.28269
893.3087	73.85987
893.4487	76.89114
893.5889	72.06638
893.7289	74.45934
893.869	73.22935
894.009	74.90555
894.1491	72.28775
894.2891	72.67516
894.4291	70.8581
894.5692	71.41383
894.7092	73.09831
894.8491	67.4539
894.9891	66.1203
895.1291	65.4959
895.269	66.54723
895.409	63.58348
895.549	65.19044
895.6888	65.03937
895.8288	68.47056
895.9687	66.62586
896.1086	62.49577
896.2484	63.15928
896.3883	62.03521
896.5281	53.84337
896.668	55.92083
896.8079	60.51579
896.9476	64.81149
897.0875	66.22444
897.2272	62.44192
897.3671	62.76701
897.5068	55.09145
897.6466	55.02857
897.7864	61.20235
897.9261	60.52693
898.0658	63.12791
898.2056	65.99475
898.3453	60.3972
898.4849	61.86009
898.6246	56.37448
898.7643	51.20809
898.904	47.61023
899.0436	40.61052
899.1833	39.67306
899.3229	45.41109
899.4625	57.56128
899.6021	65.60596
899.7417	67.77957
899.8813	65.75418
900.0209	60.60843
900.1605	53.06882
900.3	52.68116
900.4395	51.57602
900.579	55.83078
900.7186	56.65893
900.8581	51.58326
900.9976	52.1265
901.1371	52.64526
901.2766	54.23271
901.416	52.36253
901.5555	53.2501
901.6949	50.63126
901.8344	53.9929
901.9738	55.79358
902.1132	56.45114
902.2526	58.63231
902.3919	55.59817
902.5313	53.57652
902.6707	50.65154
