SPECTRUM DATA FILE
SpectrumCount:	1
PixelCount:	3648
UserName:	ToughBook User
SampleName:	
LightSource:	
Comments:	
DeviceName:	Qwave
DeviceManufacturer:	Broadcom
DeviceSerialNo:	11311

Name:	last spectrum
Date:	2024-05-02T14:42:37.6818742+02:00
ExposureTime:	0.02
TemporalAvg:	1
IntensityUnit:	normalizedCounts
CCDLoadLevel:	0.04871854
Temperature:	31.16721
DiagramColor:	200
ProcessingSteps:	335

Wavelength [nm]	Intensity1
334.421	9.03078
334.5891	5.870246
334.7573	3.419277
334.9254	5.827379
335.0935	8.265917
335.2616	4.886721
335.4297	3.91937
335.5978	5.48399
335.7659	4.238426
335.934	4.152259
336.1021	11.09695
336.2701	9.121262
336.4382	11.41783
336.6063	7.935627
336.7744	3.738775
336.9424	5.520888
337.1105	7.709137
337.2785	6.755089
337.4466	8.554962
337.6146	9.567537
337.7827	8.649753
337.9507	9.026875
338.1187	6.450407
338.2867	6.880575
338.4548	5.419504
338.6228	4.233181
338.7908	5.669831
338.9588	4.293022
339.1268	4.410615
339.2948	10.83763
339.4628	8.369234
339.6308	4.375438
339.7988	5.23057
339.9667	7.192331
340.1347	7.897964
340.3027	4.749642
340.4707	7.373831
340.6386	5.544702
340.8066	4.146488
340.9745	6.269586
341.1425	7.536252
341.3104	7.802006
341.4784	6.071725
341.6463	2.351069
341.8142	8.757261
341.9821	9.680589
342.1501	5.363681
342.318	7.457032
342.4859	4.919845
342.6538	8.459391
342.8217	8.106242
342.9896	9.614544
343.1575	6.086884
343.3254	6.917094
343.4933	3.648042
343.6612	7.850418
343.829	6.912736
343.9969	11.35601
344.1648	9.58259
344.3326	5.841555
344.5005	7.227558
344.6683	3.238436
344.8362	6.906971
345.004	7.574508
345.1719	5.557385
345.3397	7.479395
345.5075	10.11192
345.6754	7.301121
345.8432	9.588596
346.011	5.0499
346.1788	7.13873
346.3466	9.184725
346.5144	8.36442
346.6822	7.030555
346.85	8.454203
347.0178	6.271045
347.1856	5.036101
347.3534	7.297814
347.5211	5.340209
347.6889	4.419149
347.8567	6.635354
348.0244	7.794481
348.1922	5.246874
348.3599	10.25562
348.5277	4.858293
348.6954	5.692196
348.8632	3.929587
349.0309	10.93839
349.1986	6.949233
349.3663	3.114737
349.5341	5.87442
349.7018	4.63074
349.8695	4.502305
350.0372	4.309129
350.2049	7.36082
350.3726	8.444582
350.5403	10.97209
350.7079	9.822962
350.8756	6.670766
351.0433	8.45479
351.211	9.873671
351.3786	8.128409
351.5463	7.73449
351.714	9.365495
351.8816	10.55903
352.0493	9.412975
352.2169	6.758519
352.3846	6.333104
352.5522	12.93582
352.7198	4.745143
352.8875	5.583583
353.0551	9.733298
353.2227	6.651799
353.3903	9.87063
353.5579	8.196161
353.7255	5.294384
353.8931	7.22101
354.0607	4.23264
354.2283	11.63335
354.3958	14.9611
354.5634	8.864779
354.731	9.661107
354.8986	4.722978
355.0661	5.596197
355.2337	6.358579
355.4012	11.63138
355.5688	12.6801
355.7363	9.441414
355.9039	7.896877
356.0714	8.666817
356.239	7.646451
356.4065	6.320135
356.574	9.779181
356.7415	3.218935
356.909	9.283098
357.0765	9.923609
357.244	4.144751
357.4115	9.007013
357.579	6.487348
357.7465	7.688022
357.914	4.135869
358.0815	4.030486
358.249	5.894975
358.4164	7.800733
358.5839	5.405162
358.7513	4.147263
358.9188	5.755163
359.0862	3.999241
359.2537	11.38059
359.4211	9.839782
359.5886	8.491291
359.756	8.945828
359.9234	7.84587
360.0909	10.54741
360.2583	11.62844
360.4257	8.146318
360.5931	0.261444
360.7605	4.363604
360.9279	7.689804
361.0953	8.722118
361.2627	6.656554
361.4301	9.465436
361.5974	8.546388
361.7648	7.799302
361.9322	11.88167
362.0995	10.60604
362.2669	10.46575
362.4343	12.754
362.6016	8.692286
362.769	7.742474
362.9363	5.866872
363.1036	6.843232
363.271	6.583084
363.4383	6.903687
363.6056	10.384
363.7729	6.992249
363.9402	6.046698
364.1075	12.39307
364.2748	7.541759
364.4421	11.15866
364.6094	10.27333
364.7767	9.456225
364.944	8.025126
365.1113	7.78179
365.2786	10.48551
365.4458	9.754314
365.6131	9.48629
365.7803	9.816216
365.9476	11.64708
366.1148	13.59152
366.2821	11.94554
366.4493	12.87012
366.6166	13.61144
366.7838	11.7292
366.951	13.15924
367.1182	7.995082
367.2855	10.16942
367.4527	9.506649
367.6199	9.39255
367.7871	13.12766
367.9543	9.39972
368.1215	5.752721
368.2886	8.760993
368.4558	7.440717
368.623	5.997786
368.7902	9.882242
368.9573	12.7261
369.1245	12.24564
369.2917	9.247043
369.4588	6.306237
369.6259	8.723143
369.7931	10.20403
369.9602	9.945559
370.1274	6.486169
370.2945	5.542794
370.4616	7.432286
370.6287	9.956867
370.7958	6.511269
370.963	8.255052
371.1301	10.93233
371.2971	15.42285
371.4643	9.951212
371.6313	9.781275
371.7984	13.03581
371.9655	7.342526
372.1326	11.5247
372.2997	9.667008
372.4667	11.49285
372.6338	15.19151
372.8008	13.73481
372.9679	10.62301
373.1349	12.22528
373.3019	12.11287
373.469	11.59193
373.636	11.25489
373.803	11.32261
373.9701	12.04394
374.1371	13.41189
374.3041	13.07664
374.4711	9.302102
374.6381	10.85736
374.8051	3.191789
374.9721	6.251921
375.1391	8.069234
375.3061	13.05303
375.473	14.71454
375.64	12.5778
375.8069	11.73583
375.9739	7.044032
376.1409	10.41402
376.3078	9.946463
376.4748	6.823442
376.6417	10.31839
376.8087	8.11543
376.9756	5.502734
377.1425	10.46142
377.3094	11.51745
377.4763	11.81108
377.6432	12.64586
377.8102	9.407005
377.9771	11.38623
378.144	10.3267
378.3109	11.26868
378.4777	12.49516
378.6446	8.314819
378.8115	12.17666
378.9784	9.464914
379.1452	13.09807
379.3121	14.24449
379.4789	14.31694
379.6458	12.49516
379.8127	14.4248
379.9795	10.49949
380.1463	12.39843
380.3131	15.09822
380.48	14.07095
380.6468	12.71931
380.8136	12.92252
380.9804	14.65633
381.1472	15.28073
381.314	13.08374
381.4808	10.3911
381.6476	7.675876
381.8144	12.5973
381.9812	13.82343
382.148	11.99962
382.3147	9.974967
382.4815	11.85358
382.6483	10.15121
382.815	8.852242
382.9818	11.40764
383.1485	6.79794
383.3153	5.362356
383.482	6.867722
383.6487	9.814518
383.8155	6.528036
383.9822	11.38996
384.1489	9.981338
384.3156	13.51138
384.4823	15.53803
384.649	15.5548
384.8157	8.01685
384.9824	14.99168
385.1491	12.76789
385.3158	12.59777
385.4825	11.82159
385.6491	10.54311
385.8158	7.14156
385.9825	4.618179
386.1491	10.03127
386.3157	18.90199
386.4824	14.02718
386.649	11.21515
386.8157	14.33517
386.9823	13.49963
387.1489	13.40954
387.3156	12.78282
387.4821	14.82684
387.6488	13.9839
387.8154	15.07258
387.982	12.64593
388.1486	11.52508
388.3152	12.06683
388.4818	11.89063
388.6483	15.35649
388.8149	10.57752
388.9815	9.641739
389.148	14.89057
389.3146	11.48729
389.4811	11.48623
389.6477	9.836609
389.8142	11.276
389.9808	12.81315
390.1473	17.79066
390.3138	13.30684
390.4804	12.31266
390.6469	10.96565
390.8134	12.00689
390.9799	17.35328
391.1464	16.3828
391.3129	12.3295
391.4794	10.96761
391.6459	13.71833
391.8124	18.04077
391.9789	21.71581
392.1453	19.33755
392.3118	11.01891
392.4782	11.18398
392.6447	15.07667
392.8112	12.12016
392.9776	11.64682
393.144	9.897315
393.3105	7.917391
393.4769	9.14899
393.6433	13.05165
393.8098	12.06699
393.9762	16.21557
394.1426	13.80391
394.309	15.93195
394.4754	10.67921
394.6418	12.74486
394.8082	17.41546
394.9746	14.37069
395.141	17.47171
395.3073	16.88236
395.4737	13.46092
395.64	12.79899
395.8064	16.75471
395.9728	15.47095
396.1391	13.58843
396.3055	14.49274
396.4718	14.59203
396.6381	11.76568
396.8045	12.32356
396.9708	10.61188
397.1371	9.228136
397.3034	10.04954
397.4697	19.96981
397.636	18.71812
397.8023	16.19957
397.9686	17.55342
398.1349	18.18683
398.3012	15.79706
398.4675	13.47991
398.6337	20.05393
398.8	20.875
398.9662	17.47067
399.1325	20.39337
399.2988	23.37625
399.465	20.90863
399.6313	20.88099
399.7975	20.64451
399.9637	20.84453
400.1299	22.21962
400.2961	21.35765
400.4624	18.99083
400.6286	19.40993
400.7948	22.85052
400.961	19.71673
401.1272	18.59161
401.2934	23.87772
401.4595	24.69446
401.6257	23.06165
401.7919	22.48937
401.9581	22.04595
402.1242	22.63774
402.2904	24.93307
402.4565	21.50649
402.6227	17.79463
402.7888	22.3613
402.955	19.12923
403.1211	15.69482
403.2872	15.47986
403.4533	21.00099
403.6194	20.41468
403.7856	21.9703
403.9517	25.29637
404.1177	22.43062
404.2838	19.86443
404.4499	24.03317
404.616	23.85755
404.7821	24.46942
404.9482	24.15432
405.1142	20.23526
405.2803	22.44864
405.4464	20.741
405.6124	24.01943
405.7784	20.4682
405.9445	23.18851
406.1105	22.64722
406.2766	21.15055
406.4426	23.32573
406.6086	20.74897
406.7746	20.57777
406.9406	23.88853
407.1066	28.524
407.2726	26.94036
407.4386	26.40439
407.6046	24.63333
407.7706	23.34155
407.9366	23.00169
408.1025	21.61546
408.2685	22.86784
408.4344	25.21341
408.6004	27.66558
408.7664	23.04744
408.9323	28.8726
409.0983	28.30124
409.2642	24.74065
409.4301	26.86993
409.596	29.8603
409.762	28.1718
409.9279	21.94725
410.0938	26.19601
410.2597	22.56816
410.4256	28.01318
410.5915	26.73167
410.7574	25.85722
410.9232	28.22459
411.0891	27.71571
411.255	25.68441
411.4209	29.32917
411.5867	28.64029
411.7526	27.86766
411.9184	30.05672
412.0843	28.16841
412.2501	28.26623
412.4159	29.87305
412.5818	29.6708
412.7476	24.44335
412.9134	27.68256
413.0792	25.06532
413.245	27.62631
413.4108	29.2619
413.5766	31.90718
413.7424	32.57289
413.9082	29.58381
414.074	33.48701
414.2397	28.87074
414.4055	29.40398
414.5713	24.89375
414.737	29.50939
414.9028	30.69446
415.0685	28.54189
415.2343	34.10249
415.4	28.51047
415.5658	27.55614
415.7315	32.49729
415.8972	31.49457
416.0629	35.00876
416.2286	32.39017
416.3943	31.6888
416.56	27.50895
416.7257	29.4552
416.8914	33.87852
417.0571	33.38214
417.2228	29.08726
417.3884	31.8758
417.5541	30.1505
417.7198	32.52547
417.8854	31.22932
418.0511	32.54021
418.2167	28.06041
418.3824	33.60493
418.548	31.39242
418.7136	29.59251
418.8792	32.08141
419.0449	31.39195
419.2105	32.85601
419.3761	33.884
419.5417	29.25672
419.7073	30.57425
419.8729	24.98482
420.0385	26.73455
420.204	32.73658
420.3696	30.11768
420.5352	36.86828
420.7007	34.29372
420.8663	31.83497
421.0319	38.67271
421.1974	40.68153
421.3629	34.3961
421.5285	31.71193
421.694	35.369
421.8595	35.33754
422.0251	36.39462
422.1906	41.74419
422.3561	32.80896
422.5216	31.67169
422.6871	30.09514
422.8526	29.42054
423.0181	35.32185
423.1835	37.63728
423.349	37.59442
423.5145	37.8303
423.68	36.30122
423.8454	34.73634
424.0109	36.23925
424.1763	34.0976
424.3418	38.92523
424.5072	36.81376
424.6726	39.8693
424.838	35.62059
425.0035	36.48713
425.1689	40.60562
425.3343	39.84642
425.4997	46.0075
425.6651	41.33408
425.8305	38.80477
425.9959	35.75509
426.1613	34.14843
426.3267	38.00564
426.492	40.13412
426.6574	39.95391
426.8228	34.97873
426.9881	34.25486
427.1534	35.66798
427.3188	30.23802
427.4841	31.57301
427.6495	38.89956
427.8148	42.35178
427.9801	43.43827
428.1454	36.86198
428.3107	40.20139
428.476	40.75992
428.6414	41.79937
428.8066	36.57224
428.9719	42.29319
429.1372	36.41119
429.3025	32.52173
429.4678	39.59566
429.633	36.44923
429.7983	35.29443
429.9636	31.47924
430.1288	28.84633
430.294	33.56534
430.4593	34.87822
430.6245	30.9842
430.7897	30.22476
430.955	33.11398
431.1202	33.98069
431.2854	29.25022
431.4506	38.03258
431.6158	43.82664
431.781	47.04671
431.9462	47.50929
432.1114	45.79455
432.2766	42.65549
432.4417	39.55688
432.6069	34.95055
432.772	38.42043
432.9372	43.53716
433.1024	48.00225
433.2675	44.28948
433.4326	46.35403
433.5977	43.88457
433.7629	40.91661
433.928	42.36983
434.0931	36.36086
434.2582	40.74092
434.4233	36.597
434.5884	37.32109
434.7535	48.9277
434.9186	53.64413
435.0837	50.37863
435.2488	41.78042
435.4138	47.67213
435.5789	48.83487
435.744	50.55991
435.909	51.51474
436.0741	49.5828
436.2391	52.65818
436.4042	52.29508
436.5692	47.37082
436.7342	51.11173
436.8992	49.19327
437.0643	50.34351
437.2293	51.52423
437.3943	51.23683
437.5593	48.98106
437.7243	49.11853
437.8893	47.22115
438.0542	51.40567
438.2192	45.68376
438.3842	43.89295
438.5491	43.27489
438.7141	46.79915
438.8791	48.79368
439.044	48.65936
439.209	50.65036
439.3739	51.74047
439.5388	47.95623
439.7037	47.56842
439.8687	53.36155
440.0336	50.66702
440.1985	56.23566
440.3634	45.96482
440.5283	46.77282
440.6932	45.6562
440.8581	52.12064
441.0229	60.74431
441.1878	59.77902
441.3527	55.51071
441.5175	55.61437
441.6824	53.74136
441.8472	54.85218
442.0121	61.48047
442.1769	52.95319
442.3418	53.36492
442.5066	57.73807
442.6714	59.94285
442.8362	60.06596
443.001	56.16664
443.1659	54.88538
443.3307	62.28823
443.4955	57.68374
443.6602	47.77728
443.825	58.42062
443.9898	61.08913
444.1546	55.16211
444.3193	58.02996
444.4841	60.69445
444.6488	63.591
444.8136	61.25993
444.9783	63.32861
445.1431	57.6765
445.3078	55.91359
445.4725	58.57294
445.6372	59.80907
445.802	56.38263
445.9667	56.59628
446.1314	58.40446
446.2961	61.48259
446.4608	59.44769
446.6255	64.43874
446.7901	58.78492
446.9548	63.67719
447.1195	58.70237
447.2841	57.89592
447.4488	63.07834
447.6134	63.45361
447.7781	63.52253
447.9427	62.37601
448.1074	64.59218
448.272	61.16483
448.4366	64.37476
448.6012	62.82597
448.7658	62.72556
448.9305	59.50031
449.095	64.3166
449.2596	66.22919
449.4242	58.86979
449.5888	64.28924
449.7534	64.38263
449.9179	64.96059
450.0825	66.81319
450.2471	69.91242
450.4116	67.55963
450.5762	65.9671
450.7407	72.24229
450.9052	72.26108
451.0698	70.50191
451.2343	67.84578
451.3988	66.06367
451.5633	68.05038
451.7278	68.35139
451.8923	69.16431
452.0568	70.598
452.2213	69.65695
452.3858	68.76977
452.5503	68.22949
452.7148	65.93878
452.8792	65.71806
453.0437	65.8486
453.2081	64.4224
453.3726	63.65294
453.537	63.82206
453.7015	67.05199
453.8659	67.49193
454.0303	75.09425
454.1947	72.81357
454.3592	74.64726
454.5236	67.96474
454.688	58.74569
454.8524	66.01338
455.0168	70.66953
455.1811	74.70322
455.3455	74.34846
455.5099	71.58714
455.6743	72.41323
455.8386	72.54687
456.003	79.03127
456.1673	76.71291
456.3317	75.71683
456.496	71.05882
456.6603	71.0107
456.8246	72.91925
456.989	72.24171
457.1533	68.69594
457.3176	73.19285
457.4819	73.85835
457.6462	71.20678
457.8105	75.94411
457.9748	70.27052
458.1391	73.89593
458.3033	68.19606
458.4676	71.94618
458.6319	77.40365
458.7961	78.59572
458.9604	73.14559
459.1246	68.14352
459.2888	71.60741
459.4531	74.11987
459.6173	71.83895
459.7815	72.76577
459.9457	72.24274
460.11	67.04747
460.2741	67.62462
460.4384	70.3069
460.6025	74.76733
460.7667	79.81689
460.9309	75.4263
461.0951	73.84506
461.2592	75.34739
461.4234	77.20647
461.5876	74.77006
461.7517	76.22301
461.9159	74.52941
462.08	76.4873
462.2441	76.9447
462.4082	73.72671
462.5724	71.73768
462.7365	75.68388
462.9006	79.86474
463.0647	73.34995
463.2288	76.16753
463.3929	80.22277
463.557	78.19216
463.721	73.17013
463.8851	71.68724
464.0492	72.7832
464.2132	78.93813
464.3773	76.78029
464.5414	78.65234
464.7054	74.07804
464.8694	73.39642
465.0334	73.86038
465.1975	79.75275
465.3615	77.70274
465.5255	72.66815
465.6895	76.54939
465.8535	75.91716
466.0175	76.89996
466.1815	73.59576
466.3455	76.05826
466.5095	77.25395
466.6734	72.88158
466.8374	67.23796
467.0014	76.40663
467.1653	73.87965
467.3293	75.74331
467.4932	77.72926
467.6571	84.43621
467.8211	81.94039
467.985	80.23163
468.1489	75.75772
468.3128	78.54597
468.4767	84.26781
468.6406	79.86081
468.8045	77.31456
468.9684	79.52118
469.1323	81.57422
469.2962	78.92139
469.46	77.97552
469.6239	77.5581
469.7878	78.65327
469.9516	72.06649
470.1154	71.9367
470.2793	71.34444
470.4431	72.68896
470.607	79.21653
470.7708	79.96515
470.9346	80.93036
471.0984	81.9149
471.2622	80.05215
471.426	81.52701
471.5898	82.2646
471.7536	88.24203
471.9174	85.69555
472.0811	87.01518
472.2449	88.72914
472.4087	84.65847
472.5724	73.99493
472.7362	76.22912
472.8999	83.95626
473.0637	79.46768
473.2274	80.54068
473.3911	75.79948
473.5548	79.66574
473.7185	80.17416
473.8822	75.38702
474.0459	77.60578
474.2096	80.39423
474.3733	81.65063
474.537	82.73822
474.7007	87.03815
474.8643	86.96556
475.028	81.19402
475.1917	85.79367
475.3553	86.26554
475.519	86.96752
475.6826	82.51778
475.8463	78.14005
476.0099	83.04896
476.1735	83.41289
476.3371	83.4569
476.5007	81.79877
476.6643	75.66457
476.8279	80.92047
476.9915	79.97081
477.1551	81.5254
477.3187	80.06346
477.4823	80.77578
477.6458	84.85278
477.8094	86.75363
477.9729	84.38998
478.1365	85.68523
478.3	84.43954
478.4636	85.06512
478.6271	83.84986
478.7906	80.25731
478.9541	81.63236
479.1176	82.12678
479.2812	79.77069
479.4447	83.42284
479.6082	85.38149
479.7716	90.66577
479.9351	84.83504
480.0986	80.16376
480.2621	88.75315
480.4255	79.96484
480.589	79.26707
480.7524	78.77322
480.9159	85.64014
481.0793	89.70395
481.2428	87.6479
481.4062	86.53919
481.5696	88.62418
481.733	87.16177
481.8964	91.24424
482.0598	87.1469
482.2232	85.47396
482.3866	86.54719
482.55	79.26498
482.7134	87.9502
482.8768	85.06796
483.0401	85.38884
483.2035	82.98928
483.3668	84.41265
483.5302	85.74084
483.6935	89.79427
483.8568	80.85661
484.0202	80.1955
484.1835	81.64166
484.3468	80.42699
484.5101	82.01548
484.6734	79.41106
484.8367	84.89005
485	88.01179
485.1633	85.32221
485.3266	85.94278
485.4899	82.07742
485.6531	81.01403
485.8164	70.60823
485.9796	73.28181
486.1429	67.46478
486.3061	64.89988
486.4694	74.19318
486.6326	80.53342
486.7958	83.48583
486.959	79.66656
487.1223	78.19004
487.2855	83.20914
487.4486	84.61352
487.6118	79.57375
487.775	78.24218
487.9382	83.19697
488.1014	81.32094
488.2646	80.74798
488.4277	86.28301
488.5909	81.17844
488.754	81.59037
488.9171	77.92265
489.0803	83.14244
489.2434	80.14361
489.4066	82.5239
489.5697	88.13861
489.7328	85.7589
489.8959	90.31934
490.059	92.13357
490.2221	89.04699
490.3852	93.40773
490.5482	91.47983
490.7113	87.92959
490.8744	85.27285
491.0374	83.61467
491.2005	87.18443
491.3636	86.03537
491.5266	92.33372
491.6896	88.65288
491.8527	91.8979
492.0157	82.46273
492.1787	81.0574
492.3417	83.19993
492.5047	89.36865
492.6677	93.62994
492.8307	92.11215
492.9937	89.62027
493.1567	88.27351
493.3196	85.54156
493.4826	81.62288
493.6456	82.15858
493.8085	83.7702
493.9715	88.57034
494.1344	92.58825
494.2974	93.15948
494.4603	93.88956
494.6232	91.20174
494.7861	89.12788
494.949	92.22401
495.1119	96.20507
495.2748	93.10334
495.4377	93.15459
495.6006	92.03897
495.7635	86.6415
495.9264	90.00863
496.0892	89.35318
496.2521	95.80047
496.4149	88.22871
496.5778	90.31226
496.7407	92.42721
496.9035	90.44643
497.0663	95.46864
497.2291	91.95869
497.3919	93.58665
497.5547	94.72675
497.7176	100.1182
497.8804	97.96085
498.0432	92.47034
498.2059	89.51836
498.3687	83.84287
498.5315	90.11596
498.6942	93.66394
498.857	93.58896
499.0198	92.63935
499.1825	95.1339
499.3452	93.07102
499.508	102.4487
499.6707	101.8364
499.8334	95.80106
499.9962	97.1143
500.1589	93.30859
500.3216	90.6132
500.4843	88.55403
500.6469	93.73352
500.8096	95.72657
500.9723	93.60152
501.135	91.43033
501.2976	88.77206
501.4603	92.20778
501.623	95.29826
501.7856	90.24837
501.9482	96.82594
502.1109	98.82021
502.2735	95.0071
502.4361	93.69759
502.5987	96.00396
502.7614	92.94618
502.924	98.0386
503.0865	98.92136
503.2491	96.75249
503.4117	101.7217
503.5743	98.6053
503.7368	99.1066
503.8994	92.92186
504.062	91.04884
504.2245	91.69376
504.3871	103.6596
504.5496	99.21178
504.7121	106.647
504.8746	105.9818
505.0372	103.0581
505.1997	96.73452
505.3622	102.273
505.5247	104.7806
505.6872	106.1707
505.8497	112.7804
506.0121	111.673
506.1746	112.5185
506.3371	108.0815
506.4995	110.6474
506.662	108.3718
506.8244	107.4352
506.9869	108.4892
507.1493	106.5262
507.3117	107.1703
507.4742	102.2794
507.6366	112.2403
507.799	112.08
507.9614	106.7545
508.1238	105.6944
508.2862	107.8592
508.4485	107.634
508.6109	114.7957
508.7733	108.3966
508.9357	113.5719
509.098	120.4458
509.2604	122.8864
509.4227	121.0693
509.5851	117.3036
509.7474	105.4761
509.9097	102.8915
510.072	108.3379
510.2343	116.3943
510.3966	121.7558
510.5589	119.1876
510.7212	109.7407
510.8835	113.095
511.0458	113.4602
511.2081	114.5678
511.3703	114.674
511.5326	116.5765
511.6949	124.6325
511.8571	128.9247
512.0193	127.2213
512.1816	125.5646
512.3438	123.1648
512.506	123.5988
512.6682	126.5044
512.8304	122.0173
512.9926	120.4962
513.1548	120.6392
513.317	116.9391
513.4792	122.0406
513.6414	125.2677
513.8035	124.4102
513.9657	127.0475
514.1279	119.4066
514.29	125.4399
514.4521	122.4351
514.6143	127.7967
514.7764	129.5571
514.9385	132.1396
515.1006	128.9263
515.2628	132.0972
515.4249	129.5033
515.587	124.3425
515.7491	132.8236
515.9111	137.3148
516.0732	132.0909
516.2353	132.9166
516.3973	129.785
516.5594	116.0981
516.7214	113.2501
516.8835	111.6297
517.0455	116.1041
517.2076	110.4932
517.3696	115.4748
517.5316	115.6004
517.6937	126.9626
517.8557	137.7676
518.0176	136.6452
518.1796	133.1517
518.3416	122.3087
518.5036	114.7203
518.6656	122.6224
518.8275	141.5145
518.9895	144.2851
519.1514	142.6871
519.3134	140.8179
519.4753	137.563
519.6373	146.8826
519.7992	153.1016
519.9611	146.7085
520.123	146.7492
520.2849	146.9862
520.4468	148.5083
520.6087	147.8425
520.7706	146.3964
520.9325	148.5442
521.0944	156.9047
521.2562	164.0983
521.4181	160.6564
521.58	156.8629
521.7418	154.4225
521.9036	162.0516
522.0655	164.2049
522.2273	160.2466
522.3891	160.1187
522.551	158.7094
522.7128	155.1975
522.8746	151.7993
523.0363	157.9457
523.1981	161.9381
523.3599	164.7982
523.5217	167.7009
523.6835	167.1995
523.8452	172.0878
524.007	173.7365
524.1687	179.9514
524.3304	174.3053
524.4922	183.5948
524.6539	174.4802
524.8157	174.0696
524.9774	176.4056
525.1391	179.3241
525.3008	186.0106
525.4625	181.8026
525.6241	183.6532
525.7858	188.5677
525.9475	186.8014
526.1092	182.896
526.2709	168.6249
526.4325	162.7918
526.5942	169.1404
526.7558	163.9743
526.9174	158.8775
527.079	169.8685
527.2407	178.6126
527.4023	182.3354
527.5639	187.3465
527.7255	200.1598
527.8871	197.1575
528.0487	191.5418
528.2103	188.4001
528.3718	191.0163
528.5334	195.3081
528.695	199.3916
528.8565	201.4664
529.0181	206.4219
529.1796	205.1005
529.3412	202.9949
529.5027	207.2219
529.6642	202.6126
529.8257	193.4089
529.9872	190.3791
530.1487	197.0084
530.3102	207.6533
530.4717	215.2599
530.6332	213.3234
530.7947	211.1573
530.9562	212.5774
531.1176	211.7995
531.2791	214.9705
531.4405	208.3801
531.6019	209.5018
531.7634	210.6695
531.9248	203.6304
532.0862	209.774
532.2477	206.6385
532.4091	208.3266
532.5704	205.2241
532.7319	190.2718
532.8932	189.8853
533.0546	201.3694
533.216	204.8761
533.3774	217.4716
533.5388	207.3308
533.7001	215.8674
533.8615	211.8422
534.0228	202.5541
534.1841	207.0004
534.3455	209.4691
534.5068	209.2794
534.6681	210.6183
534.8293	206.9044
534.9907	207.3867
535.152	214.5996
535.3132	218.0377
535.4745	217.6277
535.6358	219.783
535.7971	222.0039
535.9583	221.5719
536.1196	216.366
536.2808	217.3374
536.4421	216.5275
536.6033	212.331
536.7645	207.7066
536.9258	196.8036
537.087	201.8825
537.2482	202.9381
537.4094	213.6164
537.5706	220.6012
537.7318	212.5398
537.8929	215.1275
538.0541	216.1442
538.2153	217.8284
538.3764	218.4845
538.5376	211.3512
538.6987	211.968
538.8599	215.5413
539.021	215.2842
539.1821	213.6656
539.3432	211.4505
539.5043	208.8232
539.6655	206.302
539.8265	205.5382
539.9876	211.7889
540.1487	210.6046
540.3098	208.0794
540.4708	204.5427
540.6319	204.5455
540.793	205.7028
540.954	209.1098
541.1151	213.7984
541.2761	215.0181
541.4371	209.6763
541.5981	205.7653
541.7592	209.5006
541.9202	214.0189
542.0812	216.0494
542.2422	216.2726
542.4031	210.1691
542.5641	203.7427
542.7251	214.1741
542.886	207.6862
543.0471	201.3551
543.208	212.5766
543.369	211.9778
543.5298	208.4015
543.6908	213.3503
543.8517	218.6341
544.0126	225.0984
544.1736	220.9673
544.3345	218.5306
544.4954	211.934
544.6563	209.929
544.8171	208.1336
544.978	219.2587
545.1389	224.8628
545.2997	219.002
545.4606	208.8103
545.6215	212.6204
545.7823	215.9299
545.9432	218.7887
546.104	218.8141
546.2648	212.7411
546.4256	214.3935
546.5864	222.2205
546.7473	219.8579
546.908	217.2738
547.0688	221.7531
547.2296	227.11
547.3904	218.9299
547.5511	214.7067
547.7119	214.4658
547.8727	211.0055
548.0334	214.3363
548.1942	215.4755
548.3549	217.3757
548.5156	220.3673
548.6763	222.9612
548.837	218.9994
548.9977	220.9927
549.1584	218.9355
549.3192	224.056
549.4798	223.9108
549.6405	224.6429
549.8011	222.1888
549.9619	225.6937
550.1225	223.5749
550.2831	222.2148
550.4438	224.6471
550.6044	222.4486
550.765	216.1998
550.9257	219.8615
551.0863	220.5558
551.2469	209.9093
551.4075	217.6983
551.5681	229.8835
551.7287	229.2169
551.8893	227.3932
552.0498	225.7145
552.2104	223.5971
552.371	222.77
552.5315	227.4404
552.6921	215.9028
552.8526	208.6535
553.0131	216.74
553.1736	222.5958
553.3342	224.522
553.4947	229.3624
553.6552	217.9563
553.8157	216.6889
553.9762	221.1459
554.1367	222.9917
554.2971	218.3239
554.4576	226.2914
554.618	218.9994
554.7785	222.0229
554.939	226.1405
555.0994	226.0628
555.2598	218.1265
555.4203	216.9105
555.5807	212.6965
555.7411	215.8545
555.9015	216.8586
556.0619	219.9888
556.2223	216.3245
556.3827	219.6082
556.5431	213.8542
556.7034	204.8803
556.8638	210.479
557.0242	205.8453
557.1845	209.2079
557.3448	200.2063
557.5052	200.755
557.6655	206.9696
557.8259	210.458
557.9861	213.6664
558.1465	207.3392
558.3068	200.4557
558.467	200.9935
558.6274	205.5928
558.7877	201.9652
558.9479	191.5326
559.1082	193.0209
559.2684	204.2092
559.4287	207.3107
559.5889	201.8107
559.7491	203.1495
559.9094	206.5078
560.0696	196.9613
560.2299	194.1939
560.3901	207.9103
560.5502	207.6312
560.7104	208.1095
560.8707	206.5651
561.0308	204.3416
561.191	205.1299
561.3511	202.5865
561.5114	195.7874
561.6714	196.9178
561.8316	198.0789
561.9918	196.1216
562.1519	195.7883
562.312	197.9589
562.4722	198.6958
562.6323	199.51
562.7924	201.9033
562.9525	188.0501
563.1125	195.0066
563.2726	199.2224
563.4327	192.3876
563.5928	192.7059
563.7528	194.0407
563.9129	189.9952
564.0729	194.2946
564.233	195.7017
564.393	189.6133
564.553	193.7839
564.7131	193.8618
564.873	190.1937
565.0331	201.0356
565.1931	193.1477
565.353	190.4252
565.5131	185.5182
565.673	182.8659
565.833	187.8296
565.9929	179.4542
566.1529	179.61
566.3129	183.2685
566.4728	184.0593
566.6328	183.9241
566.7927	182.7516
566.9526	186.3962
567.1125	191.484
567.2724	192.478
567.4323	190.2023
567.5922	189.1236
567.7521	192.5926
567.9119	187.6406
568.0718	182.0464
568.2317	180.976
568.3915	177.5101
568.5514	180.128
568.7112	182.9667
568.871	179.4285
569.0309	175.4425
569.1907	168.1658
569.3505	171.26
569.5103	174.4957
569.6701	174.8236
569.8299	173.2156
569.9897	178.4749
570.1495	178.7164
570.3092	176.2533
570.469	174.318
570.6287	168.4539
570.7885	165.2907
570.9482	167.7378
571.108	166.1681
571.2677	161.406
571.4274	164.3327
571.5871	172.6265
571.7468	168.9463
571.9066	169.9725
572.0662	168.5528
572.2259	168.9924
572.3856	175.1824
572.5452	179.244
572.7049	167.0008
572.8646	168.3136
573.0242	168.9023
573.1838	166.4277
573.3435	167.2737
573.5031	166.8728
573.6627	170.7511
573.8223	164.992
573.9819	165.414
574.1415	166.8398
574.3011	173.2604
574.4607	173.4758
574.6203	167.9357
574.7798	166.232
574.9394	163.956
575.099	160.0399
575.2585	163.7157
575.418	158.9158
575.5776	147.737
575.7371	154.6966
575.8966	159.8149
576.0562	161.2907
576.2156	156.2029
576.3751	152.96
576.5346	150.3788
576.6941	159.7268
576.8536	166.5363
577.0131	157.9842
577.1725	162.4122
577.332	157.5284
577.4914	151.9588
577.6508	152.3393
577.8103	158.2158
577.9697	154.6998
578.1291	159.1536
578.2885	156.7565
578.4479	145.2268
578.6073	148.9457
578.7667	153.4703
578.9261	150.3072
579.0854	151.0898
579.2448	151.3073
579.4042	148.6457
579.5635	155.1485
579.7229	151.662
579.8822	149.8142
580.0416	154.484
580.2009	145.6337
580.3602	146.9205
580.5195	144.5113
580.6788	145.3905
580.8381	147.7474
580.9974	148.944
581.1566	153.7933
581.3159	147.8165
581.4752	148.2776
581.6345	142.0978
581.7937	147.7372
581.9529	149.1482
582.1122	146.4451
582.2714	145.0294
582.4306	143.4168
582.5898	143.5844
582.749	142.313
582.9082	145.1839
583.0674	144.4997
583.2266	141.8547
583.3857	150.0376
583.5449	141.9391
583.7041	138.1055
583.8633	142.2765
584.0224	138.9533
584.1815	142.1441
584.3407	141.2459
584.4998	140.0638
584.6589	139.1472
584.818	143.6349
584.9771	143.0054
585.1362	143.4664
585.2953	138.1763
585.4544	135.4721
585.6135	133.4838
585.7725	134.2569
585.9316	129.0581
586.0906	128.8993
586.2497	132.3777
586.4087	132.5643
586.5677	138.6333
586.7267	141.5315
586.8858	136.287
587.0448	133.5797
587.2038	137.1488
587.3628	135.603
587.5218	135.0626
587.6807	128.115
587.8397	132.6022
587.9987	128.3012
588.1577	126.1716
588.3166	127.7883
588.4755	123.4409
588.6345	130.0391
588.7934	121.018
588.9523	113.9925
589.1112	114.1553
589.2701	115.6656
589.429	114.8486
589.5879	115.6072
589.7468	119.0944
589.9056	124.8284
590.0645	126.7156
590.2234	126.9748
590.3822	129.5736
590.5411	124.7093
590.6999	122.6918
590.8588	124.2103
591.0176	121.1126
591.1764	120.8591
591.3352	118.8951
591.494	124.2198
591.6528	122.3106
591.8116	122.7834
591.9703	130.9292
592.1291	125.9367
592.2878	121.3935
592.4467	123.7164
592.6053	128.9152
592.7641	121.5324
592.9229	121.6061
593.0816	118.3807
593.2403	120.917
593.399	119.586
593.5577	124.0685
593.7164	117.7203
593.8751	122.6848
594.0338	122.5106
594.1924	124.9032
594.3511	121.8457
594.5098	124.7039
594.6684	121.9384
594.8271	122.5618
594.9857	119.0682
595.1443	120.1798
595.303	120.3288
595.4615	120.8704
595.6202	117.287
595.7787	121.0228
595.9374	123.4382
596.0959	122.8811
596.2545	117.746
596.4131	119.3124
596.5717	126.3061
596.7302	122.0474
596.8887	122.4263
597.0473	125.2559
597.2058	125.6373
597.3644	122.8024
597.5229	119.4317
597.6814	123.5518
597.8399	118.5781
597.9984	126.4574
598.1569	126.7195
598.3154	122.5469
598.4738	116.8777
598.6323	121.3403
598.7908	118.6758
598.9492	112.4716
599.1076	120.7003
599.2661	118.6477
599.4245	119.5853
599.5829	117.2453
599.7413	114.07
599.8997	114.4685
600.0581	122.76
600.2165	121.0253
600.3749	119.5984
600.5333	118.4331
600.6917	117.6936
600.85	117.969
601.0084	113.3482
601.1667	115.3591
601.325	120.9181
601.4833	127.7224
601.6417	120.7307
601.8	110.7802
601.9583	113.7985
602.1166	120.8884
602.2749	115.0273
602.4332	122.3377
602.5914	123.2713
602.7498	125.0766
602.908	121.7682
603.0662	119.6421
603.2245	117.1977
603.3828	117.5728
603.541	121.382
603.6992	121.3093
603.8574	116.5493
604.0156	117.9687
604.1738	120.1083
604.332	116.9434
604.4902	114.8286
604.6484	120.7533
604.8065	113.4623
604.9647	117.7474
605.1229	115.3852
605.281	117.6056
605.4391	116.2787
605.5973	115.2568
605.7554	116.2924
605.9135	116.7333
606.0717	114.8269
606.2297	118.252
606.3878	116.2815
606.5459	109.6326
606.704	112.5593
606.8621	113.8903
607.0201	118.0437
607.1782	119.8814
607.3362	115.555
607.4943	111.7702
607.6523	115.861
607.8104	114.7598
607.9684	117.1809
608.1264	110.8033
608.2844	118.2544
608.4424	119.7691
608.6003	117.9014
608.7584	111.307
608.9163	112.5548
609.0743	106.2098
609.2322	104.8775
609.3902	106.5384
609.5482	107.457
609.7061	116.2076
609.864	114.8464
610.0219	115.8565
610.1798	111.0962
610.3377	111.7752
610.4956	110.1966
610.6535	110.0763
610.8114	111.2288
610.9693	111.9101
611.1271	108.6718
611.285	113.4882
611.4429	112.1141
611.6007	107.8418
611.7585	114.3617
611.9164	110.4775
612.0742	105.5324
612.232	105.3834
612.3898	102.7752
612.5476	102.8817
612.7054	102.6315
612.8632	105.7935
613.0209	106.7495
613.1787	101.0435
613.3365	101.475
613.4942	99.16903
613.652	101.0945
613.8097	104.4782
613.9674	98.66052
614.1252	99.02979
614.2829	104.5134
614.4406	103.8647
614.5983	102.6017
614.756	103.5022
614.9136	95.80006
615.0714	101.5536
615.229	100.6958
615.3867	105.0488
615.5443	104.7808
615.702	99.64781
615.8596	98.92161
616.0172	95.85946
616.1748	99.11856
616.3325	98.6476
616.4901	96.16238
616.6476	94.18129
616.8052	101.5077
616.9628	99.1208
617.1204	94.43293
617.278	100.5143
617.4355	100.143
617.5931	94.63169
617.7506	97.48957
617.9081	98.74427
618.0657	101.672
618.2232	97.81339
618.3807	101.4194
618.5382	99.61369
618.6957	98.6284
618.8532	101.4125
619.0107	95.48811
619.1682	94.75911
619.3256	91.67835
619.4831	99.82964
619.6406	99.86359
619.798	92.01994
619.9554	98.85259
620.1129	103.0596
620.2703	97.35365
620.4277	98.99174
620.5851	101.2083
620.7425	97.71358
620.8998	99.00361
621.0573	100.7861
621.2146	93.81088
621.372	94.72845
621.5294	95.48621
621.6867	91.89661
621.8441	87.08064
622.0013	89.13082
622.1587	92.95741
622.316	96.88174
622.4733	94.9632
622.6306	92.98808
622.7879	92.88739
622.9452	88.04114
623.1025	89.1845
623.2598	90.06646
623.4171	95.81757
623.5743	93.16088
623.7316	95.00815
623.8888	93.15069
624.046	92.8573
624.2032	95.98792
624.3605	93.07146
624.5176	93.31311
624.6749	94.29153
624.8321	93.59356
624.9893	98.01852
625.1464	95.48186
625.3036	90.49477
625.4608	90.14139
625.6179	91.89863
625.7751	94.96192
625.9322	89.63569
626.0894	89.3921
626.2465	85.76158
626.4036	93.69431
626.5607	91.00431
626.7178	93.5783
626.8749	91.83871
627.032	92.27569
627.189	87.19943
627.3461	91.48573
627.5032	95.1925
627.6602	88.67023
627.8173	87.31508
627.9743	83.83957
628.1313	86.38612
628.2884	90.61922
628.4454	87.71771
628.6024	86.21833
628.7594	86.43555
628.9164	87.33022
629.0734	91.42245
629.2303	92.10947
629.3873	88.50518
629.5443	88.60742
629.7012	87.04079
629.8582	89.52481
630.0151	86.03101
630.172	80.77579
630.3289	88.76127
630.4858	91.78763
630.6428	93.22464
630.7996	90.15964
630.9565	93.70239
631.1134	89.63136
631.2703	90.31306
631.4272	88.64981
631.584	88.2922
631.7408	92.2159
631.8977	90.10441
632.0546	89.8271
632.2114	93.40971
632.3682	90.62714
632.525	93.74463
632.6818	96.35498
632.8386	89.45269
632.9954	86.8213
633.1522	90.6294
633.3089	88.24102
633.4657	84.72083
633.6224	87.25581
633.7792	84.96198
633.9359	86.2996
634.0927	90.56272
634.2494	85.83199
634.4061	91.72566
634.5628	94.38606
634.7195	86.2733
634.8762	86.67132
635.0329	85.64765
635.1895	89.1385
635.3462	87.9239
635.5029	87.1011
635.6595	83.75549
635.8162	85.18011
635.9728	87.4998
636.1295	88.33192
636.2861	83.71719
636.4427	86.38363
636.5992	86.52316
636.7559	82.94282
636.9124	85.05764
637.069	85.83607
637.2256	85.17305
637.3821	86.59402
637.5387	81.74361
637.6953	86.64131
637.8518	84.56515
638.0084	83.54671
638.1649	86.44608
638.3214	83.95197
638.4779	88.22153
638.6344	89.53355
638.7909	83.85487
638.9474	86.72559
639.1038	85.01289
639.2603	84.08229
639.4167	76.90117
639.5732	84.97999
639.7297	85.75335
639.8861	81.45838
640.0425	85.17567
640.199	79.76184
640.3553	79.77068
640.5118	77.8664
640.6682	81.87042
640.8245	78.84186
640.981	74.95827
641.1373	80.1349
641.2936	78.52122
641.45	79.92854
641.6064	84.19727
641.7627	79.306
641.9191	79.0322
642.0754	75.17953
642.2317	74.8167
642.388	79.15535
642.5443	80.6367
642.7006	78.41074
642.8569	75.24608
643.0131	78.09622
643.1694	74.52803
643.3257	74.81884
643.4819	82.79938
643.6382	82.15737
643.7944	76.12222
643.9506	79.42664
644.1069	71.92302
644.2631	71.48109
644.4193	77.23242
644.5754	80.19708
644.7316	78.90836
644.8878	74.57879
645.044	75.58722
645.2002	79.97038
645.3563	77.34093
645.5125	73.58533
645.6686	70.91595
645.8248	74.8203
645.9809	71.84951
646.137	68.2714
646.2931	70.15043
646.4492	68.57526
646.6053	71.05638
646.7614	74.00013
646.9174	70.80869
647.0735	75.85024
647.2296	71.81575
647.3856	69.26409
647.5417	71.10532
647.6977	69.06561
647.8537	66.56082
648.0098	73.70107
648.1658	75.44421
648.3218	68.47733
648.4777	70.15848
648.6337	71.72141
648.7897	69.23811
648.9457	69.50414
649.1016	72.83264
649.2576	71.39687
649.4135	68.2487
649.5695	67.57449
649.7254	70.9777
649.8813	70.69773
650.0372	75.00528
650.1932	66.71177
650.3491	70.36871
650.5049	66.0164
650.6608	67.90135
650.8167	68.72652
650.9725	68.19056
651.1284	68.33247
651.2842	62.14685
651.4401	65.26138
651.5959	66.38963
651.7518	71.36892
651.9076	67.57267
652.0634	68.8017
652.2192	70.16521
652.3749	67.82614
652.5308	71.65053
652.6865	71.86773
652.8423	67.41685
652.998	67.62477
653.1538	60.87015
653.3096	66.82756
653.4653	65.58748
653.621	72.25132
653.7767	67.49356
653.9324	66.93957
654.0881	66.60748
654.2438	68.74013
654.3995	71.7057
654.5552	71.51418
654.7109	63.4202
654.8665	67.714
655.0222	63.92934
655.1778	62.96619
655.3334	63.15327
655.4891	62.51865
655.6447	66.41997
655.8003	66.08018
655.9559	61.99503
656.1115	57.04828
656.2671	51.78292
656.4227	57.05138
656.5782	62.33458
656.7338	65.1507
656.8893	56.21737
657.0449	56.34002
657.2004	60.53256
657.356	63.8643
657.5115	68.33588
657.667	60.75741
657.8225	61.88818
657.978	60.73097
658.1335	65.32398
658.289	57.24115
658.4445	62.61896
658.5999	63.53599
658.7554	63.37
658.9108	65.99062
659.0663	61.72382
659.2217	62.87522
659.3771	60.85984
659.5325	62.49841
659.6879	61.26714
659.8433	62.73989
659.9987	66.53807
660.1541	66.17956
660.3095	65.20846
660.4648	58.68597
660.6202	64.14739
660.7756	63.88138
660.9309	64.93571
661.0862	65.98404
661.2416	65.00954
661.3969	65.8943
661.5522	64.43459
661.7075	64.90471
661.8628	65.51205
662.0181	62.48144
662.1733	62.43421
662.3286	62.56835
662.4839	66.87155
662.6391	66.9506
662.7944	62.52082
662.9496	61.54935
663.1048	58.72375
663.26	59.93896
663.4152	60.18367
663.5704	63.44305
663.7256	60.69491
663.8808	59.62006
664.036	63.09268
664.1912	60.5789
664.3463	56.76366
664.5015	60.87689
664.6566	65.22498
664.8118	63.87555
664.9669	55.39906
665.122	60.14858
665.2771	56.99812
665.4322	63.85209
665.5873	63.19799
665.7424	60.43049
665.8975	60.41525
666.0526	59.80519
666.2076	58.26184
666.3627	58.28027
666.5177	55.92194
666.6727	54.86436
666.8278	56.52839
666.9828	61.33289
667.1378	57.84943
667.2928	53.56014
667.4478	54.72503
667.6028	57.86489
667.7578	60.68521
667.9127	64.75908
668.0677	55.86494
668.2226	55.03859
668.3776	59.72415
668.5325	57.58441
668.6874	56.08373
668.8423	59.55193
668.9973	59.03477
669.1522	56.75637
669.3071	57.42675
669.4619	58.01815
669.6168	57.12173
669.7717	57.83326
669.9265	58.72979
670.0814	57.99655
670.2362	59.071
670.3911	55.98803
670.5459	53.66521
670.7007	58.13522
670.8555	54.48566
671.0103	48.7555
671.1651	51.15424
671.3199	52.0463
671.4747	52.74766
671.6295	53.21912
671.7842	51.69756
671.939	54.26239
672.0937	54.71109
672.2484	49.74096
672.4031	55.93034
672.5579	58.62157
672.7126	55.71812
672.8673	51.99855
673.022	53.25814
673.1767	58.0525
673.3314	54.29933
673.486	51.66874
673.6407	50.68501
673.7953	54.34702
673.95	50.48513
674.1046	53.71222
674.2592	48.92577
674.4138	52.45347
674.5684	55.46194
674.723	56.34201
674.8776	49.06218
675.0322	54.19578
675.1868	50.33728
675.3414	56.49774
675.4959	53.19498
675.6505	54.19498
675.805	52.92756
675.9595	51.71688
676.1141	52.0303
676.2686	53.01666
676.4231	49.09576
676.5776	53.08966
676.7321	55.08483
676.8866	54.00815
677.041	51.60081
677.1955	55.07357
677.35	54.0448
677.5044	53.7966
677.6589	59.45019
677.8133	56.96
677.9677	53.8093
678.1221	45.09784
678.2766	51.03917
678.4309	57.45885
678.5853	59.37634
678.7397	54.34579
678.8941	51.30901
679.0485	56.77829
679.2028	55.79072
679.3571	55.80234
679.5115	55.27499
679.6658	50.3102
679.8201	53.28151
679.9744	57.27964
680.1288	55.58668
680.2831	55.19883
680.4373	53.36531
680.5916	54.37358
680.7459	56.53392
680.9001	54.57565
681.0544	49.93864
681.2087	55.92867
681.3629	55.56522
681.5171	54.85871
681.6713	54.21306
681.8256	49.447
681.9797	49.87626
682.134	53.19256
682.2881	57.19717
682.4423	49.96494
682.5965	51.57436
682.7507	54.33667
682.9048	56.4957
683.059	52.34591
683.2131	51.60461
683.3672	50.43002
683.5213	50.8612
683.6754	51.7382
683.8295	49.68455
683.9836	54.23928
684.1377	55.66085
684.2918	49.65751
684.4459	49.64464
684.5999	53.40315
684.754	52.13828
684.908	52.01624
685.062	53.59598
685.2161	53.20945
685.3701	51.40817
685.5241	51.29642
685.6781	53.21634
685.8321	52.78625
685.9861	57.83214
686.14	52.4522
686.294	53.88407
686.4479	45.71906
686.6019	52.19204
686.7559	49.59765
686.9098	48.85212
687.0637	44.12686
687.2176	51.12614
687.3715	52.46859
687.5254	49.02594
687.6793	47.56526
687.8332	47.43028
687.9871	48.89236
688.1409	49.6588
688.2947	50.53341
688.4486	53.03074
688.6024	50.85908
688.7563	50.2701
688.9101	48.86138
689.0639	49.91869
689.2177	46.81585
689.3715	51.29319
689.5253	52.29029
689.6791	51.97408
689.8328	48.90022
689.9866	51.99296
690.1403	55.33298
690.2941	55.23836
690.4478	53.62164
690.6015	55.58902
690.7552	57.98481
690.9089	54.15705
691.0626	57.49382
691.2164	58.22834
691.37	56.67473
691.5237	59.87345
691.6774	57.61657
691.831	61.76679
691.9847	59.86229
692.1383	63.89496
692.2919	59.0181
692.4456	57.93426
692.5992	56.6893
692.7527	56.61863
692.9064	62.18866
693.0599	60.87523
693.2136	56.85093
693.3671	61.58327
693.5207	61.41203
693.6742	61.41111
693.8278	59.01976
693.9813	60.93641
694.1348	62.36313
694.2883	61.96075
694.4418	62.23131
694.5953	67.24651
694.7488	65.52518
694.9023	67.60162
695.0558	60.31144
695.2093	63.41723
695.3627	65.42063
695.5162	64.53522
695.6696	67.76575
695.8231	69.85619
695.9764	69.27002
696.1299	68.06796
696.2833	60.46833
696.4367	64.05302
696.5901	67.49061
696.7435	74.53951
696.8968	73.87168
697.0502	75.05611
697.2036	75.79586
697.3569	70.73738
697.5102	69.9939
697.6635	72.94932
697.8168	69.81786
697.9702	74.28424
698.1235	74.17704
698.2768	76.07914
698.4301	70.7532
698.5833	73.12497
698.7366	79.7816
698.8898	75.77322
699.0431	73.66367
699.1964	77.11636
699.3495	77.27084
699.5028	80.89842
699.656	84.12081
699.8092	82.43753
699.9624	81.4254
700.1156	85.20959
700.2688	77.47407
700.4219	80.64981
700.5751	78.84347
700.7283	83.16814
700.8814	82.78206
701.0345	80.45184
701.1877	89.8216
701.3408	88.03908
701.4939	81.67748
701.647	83.03293
701.8001	84.42746
701.9532	86.28239
702.1063	91.38253
702.2593	90.02258
702.4124	90.55806
702.5654	87.82697
702.7184	85.18368
702.8715	87.26161
703.0245	94.12542
703.1776	93.21445
703.3305	92.93613
703.4835	93.75845
703.6365	95.86001
703.7895	95.17313
703.9424	90.79699
704.0954	92.73005
704.2484	98.62983
704.4013	97.61268
704.5543	96.70261
704.7072	106.2192
704.8601	104.889
705.013	103.0565
705.1659	100.2657
705.3188	100.913
705.4717	102.1429
705.6246	104.9258
705.7774	105.9715
705.9303	100.4785
706.0831	104.5631
706.236	99.07074
706.3888	96.50485
706.5416	100.2799
706.6944	110.696
706.8472	109.7621
707	110.6496
707.1528	113.2601
707.3056	111.0553
707.4583	113.2718
707.6111	115.5446
707.7639	105.8432
707.9166	107.3657
708.0693	111.2628
708.222	112.9246
708.3748	118.4542
708.5275	118.8483
708.6802	114.6534
708.8328	116.5198
708.9855	121.2056
709.1382	111.5992
709.2909	114.0982
709.4435	123.2307
709.5962	118.5717
709.7488	118.1855
709.9014	114.6239
710.054	117.192
710.2067	119.9381
710.3593	124.5429
710.5118	121.3829
710.6644	117.8002
710.817	114.0347
710.9695	124.0849
711.1221	120.6849
711.2747	121.8283
711.4272	122.576
711.5797	116.1641
711.7322	124.252
711.8848	126.1664
712.0373	124.9975
712.1898	120.3931
712.3422	120.5164
712.4948	125.3301
712.6472	128.9455
712.7996	135.6641
712.9521	127.1241
713.1046	129.0419
713.257	132.9198
713.4094	130.9702
713.5618	135.0311
713.7142	135.2866
713.8666	130.7612
714.019	127.5184
714.1714	127.1794
714.3237	131.8022
714.4761	135.4171
714.6285	126.8941
714.7808	134.58
714.9331	138.7355
715.0854	135.5358
715.2378	123.574
715.3901	130.5795
715.5424	140.1252
715.6947	139.4364
715.8469	135.5785
715.9992	133.8415
716.1515	134.0525
716.3037	132.7375
716.456	137.6826
716.6082	130.6854
716.7604	123.8407
716.9127	127.4141
717.0649	125.6728
717.2171	120.4073
717.3693	117.9071
717.5214	118.1141
717.6736	114.585
717.8258	122.5078
717.978	122.0927
718.1301	118.2289
718.2822	121.8002
718.4344	121.0566
718.5865	117.4043
718.7386	115.3745
718.8907	122.8898
719.0428	127.9224
719.1949	118.3095
719.3469	116.2997
719.499	120.1539
719.6511	125.4736
719.8031	125.9434
719.9551	122.9485
720.1072	122.5852
720.2592	124.5947
720.4112	126.5412
720.5632	128.553
720.7152	133.9881
720.8672	140.9236
721.0192	141.9471
721.1711	150.219
721.3231	149.7224
721.475	151.4585
721.627	150.7464
721.7789	152.3128
721.9308	155.0517
722.0828	157.2101
722.2347	154.7965
722.3866	148.8182
722.5385	147.4165
722.6903	156.7716
722.8422	157.1564
722.9941	153.6076
723.1459	155.39
723.2977	143.7213
723.4496	138.4137
723.6014	133.6109
723.7532	137.9163
723.905	140.0445
724.0568	145.2118
724.2086	140.359
724.3604	137.0926
724.5121	143.405
724.6639	146.8546
724.8157	145.3734
724.9674	147.953
725.1191	155.5367
725.2709	141.7946
725.4226	142.3077
725.5743	145.4841
725.726	150.2937
725.8777	158.0801
726.0294	154.893
726.181	150.1487
726.3327	151.7321
726.4844	156.4477
726.636	155.8602
726.7877	159.402
726.9393	169.7832
727.0909	162.0707
727.2425	158.4184
727.3941	157.7168
727.5457	141.0901
727.6973	143.3582
727.8488	142.463
728.0004	151.7705
728.1519	159.5995
728.3035	162.8855
728.455	164.9041
728.6066	172.7631
728.7581	167.2475
728.9095	159.0844
729.0611	154.3273
729.2126	155.2559
729.364	154.1592
729.5155	161.0297
729.667	168.9413
729.8184	165.9847
729.9698	158.7707
730.1213	166.2688
730.2727	167.5757
730.4241	166.1867
730.5756	167.0022
730.7269	173.6894
730.8784	175.1327
731.0297	167.9894
731.1811	169.5771
731.3325	173.4605
731.4838	176.4324
731.6351	173.0184
731.7865	168.09
731.9378	176.4913
732.0891	178.8655
732.2404	188.4343
732.3917	189.7859
732.543	188.7625
732.6943	182.9591
732.8456	188.9716
732.9968	187.1256
733.1481	189.955
733.2993	188.5923
733.4506	187.366
733.6018	195.1335
733.753	189.3638
733.9042	200.7121
734.0554	203.2471
734.2066	199.3737
734.3578	199.664
734.509	195.7422
734.6602	199.203
734.8113	200.0822
734.9624	191.9363
735.1136	191.0864
735.2647	196.7294
735.4158	198.4264
735.5669	194.1975
735.718	191.7717
735.8691	191.9897
736.0201	198.285
736.1713	198.2444
736.3223	189.9992
736.4733	189.9824
736.6244	203.712
736.7755	205.4331
736.9265	200.4414
737.0775	199.5836
737.2285	210.6588
737.3795	217.663
737.5305	207.1602
737.6815	206.7679
737.8324	210.3683
737.9834	208.6138
738.1343	203.4409
738.2853	205.9239
738.4362	194.9313
738.5871	200.9908
738.738	205.0756
738.8889	195.5198
739.0399	197.1984
739.1907	204.1151
739.3416	206.9118
739.4925	206.6498
739.6433	205.5653
739.7942	204.0555
739.945	207.9568
740.0958	201.0067
740.2467	202.4942
740.3975	206.4274
740.5483	214.8181
740.6991	210.3174
740.8499	204.8869
741.0007	207.3339
741.1514	206.2146
741.3022	206.0009
741.4529	207.7754
741.6036	210.6671
741.7544	214.9037
741.9051	211.6682
742.0558	207.0938
742.2065	204.4305
742.3572	203.9609
742.5079	206.386
742.6586	214.5526
742.8093	211.4877
742.9599	209.8336
743.1105	207.0025
743.2612	209.24
743.4118	207.1074
743.5624	202.9532
743.7131	208.8112
743.8636	208.9925
744.0142	214.121
744.1648	211.3415
744.3154	213.2081
744.4659	208.8981
744.6165	210.0598
744.767	205.3933
744.9176	209.0733
745.0681	218.2157
745.2186	211.7599
745.3691	213.7024
745.5197	212.0001
745.6702	213.2678
745.8206	213.9991
745.9711	214.6554
746.1215	211.4126
746.272	210.3421
746.4224	207.7378
746.5729	211.1013
746.7233	211.0959
746.8737	207.5117
747.0241	209.3413
747.1745	211.9881
747.3249	215.3969
747.4753	209.6236
747.6257	195.715
747.776	212.8575
747.9264	203.4716
748.0767	208.2159
748.2271	210.2027
748.3774	207.5005
748.5276	210.8544
748.678	206.2686
748.8282	201.1333
748.9786	205.264
749.1288	203.0845
749.2791	212.7672
749.4294	203.1362
749.5796	206.5501
749.7299	203.1381
749.8801	210.5561
750.0303	210.3651
750.1805	201.1859
750.3307	208.0018
750.4809	199.0715
750.6311	201.2118
750.7813	202.0439
750.9314	197.298
751.0816	198.965
751.2318	193.7512
751.3818	193.3488
751.532	190.2589
751.6821	200.0635
751.8322	205.9111
751.9823	201.4753
752.1324	199.3337
752.2825	201.0332
752.4326	196.8454
752.5826	196.9314
752.7327	203.884
752.8827	204.4151
753.0327	192.0584
753.1827	199.6802
753.3328	199.5843
753.4828	196.5716
753.6328	202.624
753.7828	196.6939
753.9327	190.6682
754.0827	195.7566
754.2327	190.183
754.3826	188.598
754.5325	196.4128
754.6825	186.8296
754.8324	189.4995
754.9823	193.3983
755.1322	195.8384
755.2821	193.7933
755.432	188.3881
755.5818	188.5484
755.7318	188.8376
755.8816	191.2395
756.0314	187.4233
756.1813	188.216
756.3311	188.793
756.4809	185.6852
756.6307	188.5436
756.7805	182.4059
756.9303	183.7166
757.0801	185.2477
757.2299	186.6448
757.3796	183.5334
757.5294	181.6297
757.6791	186.7522
757.8289	181.0558
757.9786	184.2422
758.1283	184.5107
758.278	178.9282
758.4277	175.4289
758.5773	176.7753
758.7271	178.5567
758.8767	179.668
759.0264	177.679
759.176	170.3486
759.3256	152.4613
759.4753	130.6558
759.6249	104.3966
759.7745	83.7244
759.9241	73.00385
760.0737	62.93867
760.2233	59.6166
760.3729	50.24359
760.5224	44.66957
760.6719	47.19485
760.8215	48.40606
760.971	50.76392
761.1205	61.85949
761.2701	75.41154
761.4196	75.91217
761.5691	92.61427
761.7186	112.5312
761.868	125.9336
762.0175	127.0709
762.167	117.5812
762.3164	106.1518
762.4659	91.52238
762.6153	83.93144
762.7647	80.68904
762.9141	82.60844
763.0635	88.30536
763.2129	81.79329
763.3623	82.20805
763.5117	87.02113
763.661	89.34512
763.8104	95.95052
763.9597	94.38677
764.1091	99.31523
764.2584	101.9633
764.4077	100.202
764.557	105.0342
764.7063	103.3082
764.8556	107.1898
765.0049	110.5134
765.1541	113.5642
765.3034	118.769
765.4526	123.6286
765.6019	119.1924
765.7511	122.814
765.9003	121.0236
766.0496	123.4035
766.1987	132.3351
766.348	134.496
766.4971	136.0645
766.6463	137.4552
766.7955	142.3281
766.9446	146.674
767.0938	145.6383
767.2429	142.0191
767.392	153.01
767.5411	155.4759
767.6902	153.3627
767.8394	144.2846
767.9884	146.9272
768.1375	154.1412
768.2866	156.0576
768.4356	149.5172
768.5847	145.8015
768.7337	149.4989
768.8828	153.2699
769.0317	148.6881
769.1808	145.0152
769.3298	153.6812
769.4788	156.6815
769.6277	148.8987
769.7767	152.2524
769.9257	154.3489
770.0746	148.3316
770.2236	148.6576
770.3725	153.8919
770.5214	157.1559
770.6703	150.9698
770.8193	145.8348
770.9681	147.5981
771.1171	147.2643
771.2659	147.9212
771.4148	143.3088
771.5637	144.0033
771.7125	144.6183
771.8613	147.1821
772.0101	154.9948
772.159	151.4388
772.3078	153.2947
772.4566	152.7126
772.6054	152.8496
772.7542	155.1809
772.903	150.9794
773.0517	154.3406
773.2004	145.821
773.3492	143.3721
773.4979	152.6213
773.6467	151.9228
773.7953	148.1969
773.944	143.4973
774.0928	142.9455
774.2415	147.5451
774.3901	145.5955
774.5388	142.8022
774.6874	146.7113
774.8361	143.3326
774.9847	139.0848
775.1334	141.863
775.282	143.5277
775.4305	149.2125
775.5792	150.5562
775.7277	143.9311
775.8763	146.7502
776.0249	144.178
776.1735	150.027
776.322	153.7377
776.4705	148.608
776.6191	146.0466
776.7676	148.3923
776.9161	144.8048
777.0646	150.3541
777.2131	145.3037
777.3616	137.7129
777.5101	146.9057
777.6585	142.971
777.8069	143.3018
777.9554	142.3459
778.1038	139.0111
778.2523	139.0781
778.4007	145.3292
778.5491	143.8181
778.6974	137.9677
778.8459	137.799
778.9942	138.5516
779.1426	136.9073
779.291	142.0747
779.4393	138.4225
779.5876	131.6772
779.736	134.1161
779.8843	136.323
780.0326	140.4838
780.1809	135.1588
780.3292	135.6457
780.4775	134.9871
780.6257	139.36
780.774	138.7684
780.9222	135.243
781.0704	144.2171
781.2187	144.9845
781.3669	136.8001
781.5151	137.7488
781.6633	141.0735
781.8115	140.0417
781.9597	136.7
782.1078	126.9385
782.256	131.4403
782.4042	133.3859
782.5523	133.5535
782.7004	129.9483
782.8486	135.7675
782.9967	132.2561
783.1448	133.7344
783.2929	129.743
783.441	129.7819
783.5891	131.421
783.7371	130.9413
783.8851	133.066
784.0332	131.0419
784.1812	134.3821
784.3293	131.0007
784.4773	128.4991
784.6253	126.3904
784.7733	129.7834
784.9213	133.99
785.0692	135.2137
785.2172	128.1315
785.3652	131.9207
785.5131	131.3703
785.6611	133.2232
785.809	126.3685
785.9569	132.1459
786.1048	133.5151
786.2527	129.7012
786.4006	129.7191
786.5485	128.1147
786.6964	123.0042
786.8442	127.9002
786.9921	130.5572
787.1399	126.6837
787.2877	120.1825
787.4355	122.11
787.5833	125.6236
787.7311	126.1574
787.8789	126.2642
788.0267	127.972
788.1745	128.8456
788.3223	120.8749
788.47	125.2327
788.6177	127.0108
788.7654	118.2366
788.9132	122.442
789.0609	120.7277
789.2086	121.4102
789.3563	125.3725
789.504	124.7156
789.6517	118.2531
789.7993	122.2017
789.947	124.0456
790.0946	126.0768
790.2422	124.5198
790.3898	120.2263
790.5375	116.3715
790.6851	121.987
790.8326	120.5903
790.9802	117.337
791.1278	121.3389
791.2754	121.9816
791.423	122.0012
791.5705	115.7327
791.718	111.7062
791.8655	113.3377
792.0131	113.1685
792.1606	114.7322
792.308	122.0805
792.4556	120.1362
792.603	120.1933
792.7505	115.1209
792.8979	118.7324
793.0454	116.6758
793.1928	112.2142
793.3403	112.6645
793.4877	115.5251
793.6351	122.2537
793.7825	111.7305
793.9299	111.2967
794.0772	120.0116
794.2246	120.7186
794.3719	112.8965
794.5193	112.773
794.6666	113.6202
794.814	116.8701
794.9613	118.9322
795.1086	120.9042
795.2559	115.3541
795.4032	115.1489
795.5505	111.7288
795.6978	115.5157
795.845	119.5511
795.9922	116.9569
796.1395	109.5484
796.2867	110.257
796.4339	116.1938
796.5811	114.7864
796.7283	115.6336
796.8755	114.3253
797.0227	114.4146
797.1699	112.0121
797.317	115.8382
797.4642	114.9202
797.6113	110.4898
797.7584	106.2719
797.9056	114.4673
798.0527	115.8507
798.1998	112.0074
798.3469	111.0113
798.494	110.7706
798.641	108.8994
798.7881	108.1231
798.9351	111.1178
799.0822	109.8986
799.2292	109.5757
799.3762	107.928
799.5232	108.3629
799.6702	110.0929
799.8172	103.7585
799.9642	102.639
800.1111	104.1758
800.2581	102.8996
800.4051	103.6282
800.552	107.9248
800.6989	101.4923
800.8458	108.35
800.9927	107.3779
801.1396	107.9309
801.2866	106.4869
801.4334	107.9578
801.5803	107.5105
801.7272	107.4185
801.874	106.6399
802.0209	106.5714
802.1677	100.7834
802.3145	100.6252
802.4613	100.7654
802.6081	103.1295
802.7549	100.8186
802.9017	100.2259
803.0485	100.1816
803.1952	106.624
803.342	108.4141
803.4887	104.8597
803.6354	100.4637
803.7822	96.83676
803.9289	103.5557
804.0756	99.95667
804.2223	94.55094
804.369	95.25826
804.5156	97.9806
804.6623	98.52017
804.8089	91.7683
804.9556	98.28172
805.1022	99.89583
805.2488	103.9395
805.3954	103.3591
805.542	95.11002
805.6886	100.9375
805.8352	98.72392
805.9818	98.08675
806.1283	103.5963
806.2749	98.54617
806.4214	97.44675
806.5679	98.11413
806.7145	98.58765
806.861	99.83449
807.0074	92.66277
807.154	100.393
807.3004	101.3292
807.4469	90.32323
807.5934	97.84026
807.7398	96.47398
807.8862	95.69525
808.0327	95.59782
808.1791	98.57536
808.3255	96.92414
808.4719	92.95833
808.6183	97.52815
808.7647	94.02492
808.9111	95.83092
809.0574	93.33347
809.2037	94.43037
809.3501	93.80943
809.4965	96.56104
809.6428	93.03548
809.7891	92.52409
809.9354	90.67257
810.0817	88.26984
810.2279	93.98368
810.3742	89.78953
810.5204	90.22234
810.6667	89.57543
810.8129	89.5901
810.9592	93.83471
811.1054	89.68162
811.2516	91.15332
811.3978	85.72338
811.5439	88.56579
811.6901	88.42317
811.8363	88.16616
811.9825	88.17539
812.1286	83.12856
812.2748	84.18834
812.4209	82.85535
812.567	82.03433
812.7131	84.3968
812.8592	85.26639
813.0053	79.5029
813.1514	82.70769
813.2974	80.22237
813.4435	76.63544
813.5895	76.3434
813.7356	74.93436
813.8816	72.78945
814.0276	77.2101
814.1736	78.79544
814.3196	77.17313
814.4656	72.89374
814.6116	71.4229
814.7576	66.96428
814.9035	69.60745
815.0494	74.64915
815.1954	73.83922
815.3413	69.37144
815.4872	69.35516
815.6331	72.9025
815.779	69.95927
815.9249	74.34248
816.0707	66.42701
816.2166	70.63525
816.3625	64.3476
816.5083	64.83167
816.6542	64.97152
816.8	70.70816
816.9458	67.70168
817.0916	69.08038
817.2374	74.54746
817.3832	77.28339
817.5289	71.83945
817.6747	68.51975
817.8204	64.90343
817.9662	62.24273
818.1119	61.03646
818.2576	62.25515
818.4034	68.44616
818.5491	70.7979
818.6948	68.50826
818.8405	67.86043
818.9861	69.05454
819.1318	64.95746
819.2774	66.01173
819.423	62.70004
819.5687	65.08388
819.7143	68.26114
819.8599	64.12102
820.0055	61.0469
820.1511	65.24088
820.2967	68.33904
820.4422	75.29408
820.5878	74.17355
820.7333	74.33082
820.8788	78.31707
821.0244	75.34949
821.1699	77.19579
821.3154	75.13448
821.4609	78.35818
821.6064	76.38802
821.7519	75.28443
821.8973	70.02103
822.0428	62.65968
822.1882	66.11796
822.3337	68.72631
822.4791	66.85874
822.6245	55.49574
822.7699	51.70652
822.9153	50.15511
823.0607	45.98384
823.2061	50.17029
823.3514	60.78667
823.4968	62.30331
823.6422	64.93812
823.7875	71.86532
823.9328	71.8584
824.0781	67.93413
824.2234	62.49276
824.3687	64.15971
824.514	64.61472
824.6592	70.3364
824.8045	70.31087
824.9498	73.21686
825.095	69.69437
825.2402	73.57473
825.3854	75.14594
825.5306	70.18324
825.6758	67.12653
825.821	63.18214
825.9662	63.51295
826.1114	70.74245
826.2565	73.13721
826.4017	65.89841
826.5468	67.84602
826.692	74.0146
826.837	73.52234
826.9822	69.30675
827.1273	65.76496
827.2723	61.52701
827.4174	60.98006
827.5625	61.33924
827.7075	63.60368
827.8526	57.52691
827.9976	58.53642
828.1426	59.69621
828.2877	65.33939
828.4327	64.28637
828.5776	66.63396
828.7227	63.44815
828.8676	65.39541
829.0126	64.85148
829.1575	65.10861
829.3024	56.95993
829.4474	57.4164
829.5923	67.66132
829.7372	68.44678
829.8821	65.45773
830.027	62.33903
830.1719	62.80022
830.3168	63.49869
830.4616	59.91454
830.6064	56.14374
830.7513	63.70499
830.8961	64.14149
831.041	62.07038
831.1857	61.49649
831.3306	65.79107
831.4753	64.61002
831.6201	59.98473
831.7649	56.76107
831.9096	56.80633
832.0544	60.83635
832.1991	60.93592
832.3438	60.7882
832.4885	61.48911
832.6332	61.79824
832.778	60.38607
832.9226	66.12234
833.0673	63.13521
833.2119	60.70353
833.3566	62.74731
833.5012	60.89816
833.6459	55.23892
833.7905	63.02879
833.9351	63.9693
834.0797	59.13084
834.2243	58.3372
834.3688	65.98959
834.5134	65.65961
834.658	67.85764
834.8026	68.032
834.9471	65.19635
835.0916	58.51654
835.2361	61.45992
835.3806	66.68821
835.5251	64.55176
835.6696	64.74027
835.8141	62.62594
835.9586	64.16693
836.103	62.1879
836.2474	60.55338
836.3918	67.78618
836.5363	61.11727
836.6807	61.51947
836.8251	63.41727
836.9695	62.57088
837.1138	63.07273
837.2582	65.16444
837.4026	59.52105
837.5469	62.55762
837.6913	63.06479
837.8356	67.8757
837.9799	62.49741
838.1242	58.57534
838.2686	58.44121
838.4128	60.37002
838.5571	57.733
838.7014	63.859
838.8456	63.81596
838.9899	69.17281
839.1341	65.82227
839.2783	67.13546
839.4225	64.52065
839.5667	58.21053
839.7109	62.87862
839.8551	63.62075
839.9993	57.79365
840.1434	56.1905
840.2876	58.1399
840.4317	64.39118
840.5759	61.1018
840.72	65.12248
840.8641	67.25728
841.0082	61.55257
841.1523	63.63923
841.2963	64.48627
841.4404	62.13129
841.5845	64.3291
841.7285	62.37395
841.8726	62.56913
842.0165	62.57689
842.1606	63.27586
842.3046	60.05866
842.4485	60.95982
842.5925	60.27029
842.7365	57.9364
842.8805	63.22033
843.0244	63.50941
843.1684	62.39223
843.3123	57.13687
843.4562	58.62462
843.6002	56.51215
843.744	60.304
843.8879	58.4479
844.0318	62.58855
844.1757	60.15407
844.3195	54.96557
844.4634	52.50986
844.6072	57.41828
844.751	60.20117
844.8948	59.52245
845.0386	65.17199
845.1824	61.36118
845.3262	63.98783
845.47	61.17879
845.6138	60.68454
845.7575	60.87829
845.9012	57.41925
846.045	57.79164
846.1887	58.60375
846.3324	61.21901
846.4761	58.37026
846.6198	53.04045
846.7635	57.82579
846.9071	60.71827
847.0508	54.9383
847.1944	54.80673
847.3381	56.15624
847.4817	59.23608
847.6253	59.27091
847.7689	57.10463
847.9125	59.25409
848.0561	53.51844
848.1996	57.3498
848.3432	55.67045
848.4868	53.46296
848.6303	59.37097
848.7738	54.32084
848.9174	55.76218
849.0609	55.14679
849.2043	56.40631
849.3478	54.94028
849.4913	52.26975
849.6348	46.53822
849.7782	44.51511
849.9217	44.14185
850.0651	54.30311
850.2086	51.6939
850.3519	54.09123
850.4954	50.92399
850.6387	55.36395
850.7821	58.32643
850.9255	57.85622
851.0688	57.7371
851.2122	54.29118
851.3555	53.6561
851.4988	54.73598
851.6422	54.32278
851.7855	60.30425
851.9288	57.84164
852.0721	53.7139
852.2153	54.60797
852.3586	54.20664
852.5018	53.57169
852.6451	49.17616
852.7883	54.65347
852.9315	58.50804
853.0748	51.18891
853.218	57.70365
853.3611	53.1697
853.5043	54.44075
853.6475	49.80526
853.7906	47.68241
853.9338	44.9425
854.0769	37.7589
854.22	41.06594
854.3632	38.07673
854.5063	44.21
854.6494	44.68919
854.7924	48.21075
854.9355	50.86414
855.0786	51.13447
855.2216	53.15063
855.3647	47.65466
855.5077	48.74937
855.6507	47.85889
855.7937	49.9363
855.9367	50.85315
856.0797	49.7408
856.2227	47.02909
856.3657	54.62486
856.5086	55.28415
856.6516	48.88571
856.7945	50.2858
856.9374	50.54965
857.0803	52.3194
857.2232	55.31236
857.3661	53.96694
857.509	49.54569
857.6519	51.58716
857.7947	53.73682
857.9376	53.94441
858.0804	58.41432
858.2232	48.4341
858.366	49.61721
858.5089	51.1069
858.6516	57.45418
858.7944	49.0852
858.9372	49.92426
859.08	52.23137
859.2227	48.40232
859.3654	51.78606
859.5082	50.75478
859.6509	52.35167
859.7936	46.93277
859.9363	47.51811
860.079	44.7303
860.2217	47.33682
860.3643	42.74321
860.507	54.61632
860.6496	50.5289
860.7922	47.71997
860.9349	45.7956
861.0775	52.00838
861.2201	48.89284
861.3627	46.54599
861.5052	48.031
861.6478	48.30681
861.7904	49.46037
861.9329	49.28954
862.0755	47.45753
862.218	44.56773
862.3605	49.98139
862.503	51.44991
862.6455	52.74416
862.788	54.69727
862.9305	45.49326
863.0729	45.88753
863.2154	47.64558
863.3578	50.42292
863.5002	48.25843
863.6426	45.87464
863.7851	47.29544
863.9275	48.091
864.0698	50.79079
864.2122	46.37874
864.3546	47.67939
864.4969	46.48174
864.6393	50.80131
864.7816	42.27029
864.924	41.26158
865.0662	42.97649
865.2086	44.78409
865.3508	44.22492
865.4931	46.58595
865.6354	42.37009
865.7776	43.52828
865.9199	42.20959
866.0621	33.82007
866.2043	31.65015
866.3466	33.80787
866.4888	35.41394
866.6309	37.25711
866.7731	44.33139
866.9153	43.66734
867.0574	43.7855
867.1996	42.98204
867.3417	39.95544
867.4839	42.89363
867.626	42.13232
867.7681	42.41793
867.9102	45.23596
868.0522	46.63864
868.1943	38.31168
868.3364	42.00356
868.4785	45.37445
868.6205	47.2337
868.7625	44.90853
868.9045	41.83823
869.0465	36.45004
869.1885	39.55597
869.3305	38.97948
869.4725	46.73875
869.6144	42.08373
869.7564	44.7191
869.8983	43.51853
870.0403	40.80549
870.1822	43.98705
870.3241	44.64245
870.466	45.72573
870.6079	40.7268
870.7498	41.22945
870.8916	40.21908
871.0335	42.76863
871.1754	44.12055
871.3171	43.18994
871.459	43.36424
871.6008	43.85502
871.7426	44.14418
871.8844	41.839
872.0262	40.62519
872.1679	39.76089
872.3097	40.88266
872.4514	41.63229
872.5931	41.65844
872.7349	41.19384
872.8766	42.68148
873.0183	40.14846
873.16	40.93586
873.3017	40.41536
873.4434	40.88291
873.585	40.26336
873.7266	35.63081
873.8683	39.72842
874.0099	38.59449
874.1516	44.20914
874.2932	42.61644
874.4348	38.17672
874.5763	42.68321
874.7179	41.27697
874.8594	44.29266
875.001	39.93296
875.1425	41.50302
875.2841	42.7424
875.4256	39.35967
875.5671	36.11248
875.7086	36.78237
875.85	38.61926
875.9915	40.24039
876.133	35.29254
876.2744	37.86422
876.4159	41.25347
876.5573	37.32347
876.6987	41.6956
876.8401	41.34141
876.9815	38.29921
877.1229	40.76129
877.2643	39.63128
877.4056	40.15912
877.547	38.55964
877.6884	37.09387
877.8297	34.23016
877.971	36.78341
878.1123	39.92703
878.2536	38.054
878.3949	39.15633
878.5362	36.86683
878.6774	34.458
878.8187	39.96329
878.9599	42.27777
879.1011	37.70993
879.2424	42.28074
879.3836	35.82511
879.5248	34.07997
879.666	40.81852
879.8071	37.88822
879.9483	39.73148
880.0895	35.99215
880.2306	31.54479
880.3718	33.95811
880.5129	40.32654
880.654	34.30342
880.7951	34.07728
880.9362	36.16102
881.0773	37.47786
881.2183	38.00626
881.3594	36.30582
881.5004	34.8328
881.6414	39.62507
881.7825	41.74025
881.9235	33.40644
882.0645	39.05416
882.2054	34.07833
882.3464	37.39425
882.4874	34.1316
882.6284	36.40663
882.7693	35.75327
882.9103	34.83017
883.0512	38.9652
883.1921	40.45227
883.333	35.01745
883.4739	36.20729
883.6147	40.29211
883.7556	37.39907
883.8965	35.52185
884.0374	33.78844
884.1782	34.5481
884.319	33.73367
884.4598	35.31464
884.6006	34.24855
884.7414	35.96227
884.8822	33.58829
885.0229	35.89846
885.1637	38.99171
885.3044	33.78334
885.4452	34.11898
885.5859	32.368
885.7266	35.59038
885.8673	36.57876
886.008	34.90974
886.1487	35.04387
886.2894	30.7768
886.43	32.03432
886.5707	32.05003
886.7113	35.54516
886.8519	35.92575
886.9926	32.26253
887.1331	33.65993
887.2737	37.79116
887.4143	38.22365
887.5549	36.30066
887.6954	36.41075
887.836	34.23843
887.9765	35.79216
888.1171	32.55653
888.2576	37.45314
888.3981	36.53016
888.5386	35.37952
888.679	37.53413
888.8195	37.70438
888.96	30.99797
889.1004	38.33924
889.2408	31.16439
889.3813	32.64428
889.5217	35.49061
889.6621	34.04573
889.8025	33.63985
889.9429	30.08414
890.0833	30.35837
890.2236	35.87819
890.364	34.31035
890.5043	31.07148
890.6446	30.51359
890.7849	34.12318
890.9252	34.72655
891.0655	41.74981
891.2058	38.48166
891.3461	31.23449
891.4863	32.88987
891.6266	32.3311
891.7668	33.50474
891.907	33.10419
892.0472	31.21517
892.1874	31.79058
892.3276	33.14177
892.4678	32.06878
892.608	30.71037
892.7481	28.60812
892.8883	30.8419
893.0284	35.03335
893.1685	33.14901
893.3087	34.08868
893.4487	31.11527
893.5889	31.36617
893.7289	32.25144
893.869	31.94942
894.009	35.15993
894.1491	33.5483
894.2891	32.65538
894.4291	29.03539
894.5692	31.75748
894.7092	30.38069
894.8491	29.92366
894.9891	27.19419
895.1291	27.62383
895.269	22.78067
895.409	18.03527
895.549	24.91121
895.6888	26.15196
895.8288	23.08105
895.9687	25.94454
896.1086	30.68444
896.2484	24.53211
896.3883	23.84938
896.5281	29.24104
896.668	22.77551
896.8079	23.21976
896.9476	26.9144
897.0875	21.89105
897.2272	18.34648
897.3671	21.81361
897.5068	18.19497
897.6466	20.51862
897.7864	27.44844
897.9261	29.43558
898.0658	25.02685
898.2056	21.56406
898.3453	27.98524
898.4849	24.29827
898.6246	23.879
898.7643	22.56274
898.904	20.2079
899.0436	19.66248
899.1833	19.35636
899.3229	18.85383
899.4625	26.99999
899.6021	28.73866
899.7417	26.40187
899.8813	27.08953
900.0209	20.24475
900.1605	22.93069
900.3	20.01503
900.4395	20.9928
900.579	18.76917
900.7186	19.02933
900.8581	22.33308
900.9976	24.39598
901.1371	24.35072
901.2766	26.45547
901.416	25.19476
901.5555	22.17933
901.6949	17.18715
901.8344	23.36817
901.9738	26.39738
902.1132	26.70103
902.2526	22.87797
902.3919	26.09431
902.5313	22.51082
902.6707	22.04505
