SPECTRUM DATA FILE
SpectrumCount:	1
PixelCount:	3648
UserName:	ToughBook User
SampleName:	
LightSource:	
Comments:	
DeviceName:	Qwave
DeviceManufacturer:	Broadcom
DeviceSerialNo:	11311

Name:	last spectrum
Date:	2024-05-02T14:41:40.1429371+02:00
ExposureTime:	0.02
TemporalAvg:	1
IntensityUnit:	normalizedCounts
CCDLoadLevel:	0.05395729
Temperature:	30.95038
DiagramColor:	200
ProcessingSteps:	335

Wavelength [nm]	Intensity1
334.421	11.19169
334.5891	8.311473
334.7573	6.766514
334.9254	3.02257
335.0935	7.325859
335.2616	5.447427
335.4297	2.091877
335.5978	8.514024
335.7659	7.990616
335.934	4.062511
336.1021	5.171422
336.2701	8.500695
336.4382	7.469909
336.6063	7.367488
336.7744	7.642413
336.9424	7.407477
337.1105	1.944611
337.2785	6.640396
337.4466	6.058731
337.6146	4.408103
337.7827	6.212487
337.9507	6.21382
338.1187	4.046673
338.2867	3.154323
338.4548	5.039358
338.6228	3.217532
338.7908	5.390408
338.9588	6.519285
339.1268	2.000722
339.2948	6.528798
339.4628	9.254889
339.6308	3.7971
339.7988	4.55673
339.9667	4.702771
340.1347	4.474465
340.3027	9.167622
340.4707	6.324768
340.6386	7.645149
340.8066	5.775003
340.9745	2.952936
341.1425	4.535236
341.3104	5.743217
341.4784	4.573531
341.6463	2.297435
341.8142	6.871433
341.9821	3.808686
342.1501	4.894479
342.318	6.20227
342.4859	7.677354
342.6538	7.948265
342.8217	7.733799
342.9896	8.234632
343.1575	7.223402
343.3254	2.620339
343.4933	4.063947
343.6612	7.848839
343.829	7.320955
343.9969	6.828478
344.1648	11.14408
344.3326	17.51287
344.5005	8.194358
344.6683	9.249328
344.8362	3.503058
345.004	7.158379
345.1719	9.657454
345.3397	5.384596
345.5075	9.610837
345.6754	12.01119
345.8432	2.984702
346.011	6.11456
346.1788	8.320036
346.3466	7.587907
346.5144	0.5409299
346.6822	2.83644
346.85	3.902344
347.0178	8.298463
347.1856	8.873022
347.3534	4.149444
347.5211	5.572536
347.6889	4.130772
347.8567	6.070782
348.0244	10.4203
348.1922	8.809896
348.3599	6.04615
348.5277	3.089715
348.6954	1.035466
348.8632	6.641647
349.0309	6.653551
349.1986	6.995707
349.3663	8.679636
349.5341	4.151573
349.7018	8.039356
349.8695	8.158461
350.0372	6.548738
350.2049	7.11783
350.3726	7.80106
350.5403	9.21173
350.7079	7.16913
350.8756	6.165092
351.0433	11.00624
351.211	5.852271
351.3786	6.190991
351.5463	2.993117
351.714	3.918505
351.8816	6.760816
352.0493	7.214935
352.2169	7.380017
352.3846	6.269344
352.5522	10.37382
352.7198	3.560271
352.8875	5.309439
353.0551	5.998524
353.2227	7.250282
353.3903	13.16925
353.5579	5.867683
353.7255	3.273073
353.8931	3.154022
354.0607	9.903915
354.2283	6.310825
354.3958	9.099861
354.5634	6.412072
354.731	9.676643
354.8986	6.689051
355.0661	5.994995
355.2337	7.584449
355.4012	9.563101
355.5688	6.956212
355.7363	2.604101
355.9039	5.077886
356.0714	6.871111
356.239	7.673421
356.4065	8.766568
356.574	4.116399
356.7415	6.499767
356.909	7.410717
357.0765	5.576423
357.244	3.000735
357.4115	6.694889
357.579	8.808999
357.7465	5.670778
357.914	3.690058
358.0815	9.605693
358.249	11.24783
358.4164	3.337957
358.5839	5.313594
358.7513	3.397939
358.9188	3.893291
359.0862	4.40337
359.2537	1.48552
359.4211	5.08055
359.5886	4.132938
359.756	8.41837
359.9234	8.969816
360.0909	9.99946
360.2583	5.34586
360.4257	5.470179
360.5931	3.853256
360.7605	8.55301
360.9279	9.949224
361.0953	7.191266
361.2627	7.968431
361.4301	6.722193
361.5974	8.283953
361.7648	4.29137
361.9322	8.873384
362.0995	6.302968
362.2669	8.100015
362.4343	15.15079
362.6016	2.012185
362.769	7.053727
362.9363	10.07214
363.1036	9.638434
363.271	5.901635
363.4383	6.824929
363.6056	9.982189
363.7729	7.297593
363.9402	7.367498
364.1075	5.991601
364.2748	5.172559
364.4421	7.876362
364.6094	7.196192
364.7767	3.99233
364.944	5.172608
365.1113	10.44152
365.2786	11.40037
365.4458	8.661103
365.6131	5.435762
365.7803	8.828197
365.9476	8.550942
366.1148	8.158301
366.2821	11.78085
366.4493	4.296084
366.6166	5.497625
366.7838	7.185143
366.951	6.197001
367.1182	2.906533
367.2855	3.733943
367.4527	11.24833
367.6199	9.808462
367.7871	13.93996
367.9543	7.775491
368.1215	6.512282
368.2886	9.136822
368.4558	7.528085
368.623	8.151126
368.7902	9.334173
368.9573	8.244985
369.1245	11.88948
369.2917	8.131398
369.4588	6.674829
369.6259	7.351468
369.7931	8.740891
369.9602	9.816721
370.1274	13.08951
370.2945	10.17352
370.4616	9.135829
370.6287	5.512211
370.7958	12.28915
370.963	9.629574
371.1301	10.445
371.2971	10.73934
371.4643	10.25449
371.6313	10.68558
371.7984	9.71976
371.9655	8.638807
372.1326	3.436311
372.2997	6.552234
372.4667	7.358573
372.6338	10.98502
372.8008	10.22729
372.9679	10.86471
373.1349	7.443798
373.3019	4.392941
373.469	10.01817
373.636	13.37127
373.803	12.71951
373.9701	10.67702
374.1371	7.170415
374.3041	8.09724
374.4711	9.860914
374.6381	11.20674
374.8051	13.18802
374.9721	11.24762
375.1391	8.511326
375.3061	11.81511
375.473	14.00781
375.64	14.91813
375.8069	10.20339
375.9739	11.96284
376.1409	5.648981
376.3078	5.309394
376.4748	6.548728
376.6417	10.8583
376.8087	13.14805
376.9756	11.30003
377.1425	8.741368
377.3094	12.32706
377.4763	7.937783
377.6432	14.3258
377.8102	14.50387
377.9771	9.610308
378.144	10.05272
378.3109	13.79624
378.4777	13.87822
378.6446	11.37455
378.8115	12.55681
378.9784	12.19219
379.1452	9.215601
379.3121	10.0113
379.4789	7.966682
379.6458	9.853798
379.8127	10.70279
379.9795	6.497196
380.1463	7.41469
380.3131	9.387066
380.48	9.182994
380.6468	11.20683
380.8136	8.766067
380.9804	6.960959
381.1472	8.041348
381.314	8.981533
381.4808	7.868969
381.6476	10.50363
381.8144	6.610987
381.9812	8.634998
382.148	13.14828
382.3147	10.86385
382.4815	8.968276
382.6483	7.706193
382.815	8.288931
382.9818	9.688842
383.1485	11.3588
383.3153	7.843859
383.482	8.049591
383.6487	6.421707
383.8155	10.78128
383.9822	12.00467
384.1489	15.2752
384.3156	13.54728
384.4823	9.606291
384.649	15.47247
384.8157	5.924679
384.9824	8.132735
385.1491	12.57985
385.3158	13.34241
385.4825	12.04189
385.6491	11.23833
385.8158	17.43767
385.9825	15.54879
386.1491	8.089178
386.3157	11.07119
386.4824	14.65057
386.649	13.91795
386.8157	9.306251
386.9823	10.01965
387.1489	13.42828
387.3156	9.274572
387.4821	11.02916
387.6488	15.25891
387.8154	14.31818
387.982	9.914403
388.1486	14.42096
388.3152	12.1031
388.4818	8.668991
388.6483	10.43976
388.8149	13.50127
388.9815	9.2718
389.148	12.11627
389.3146	15.16529
389.4811	13.18357
389.6477	16.41411
389.8142	12.86446
389.9808	10.87868
390.1473	14.08885
390.3138	13.88288
390.4804	12.62801
390.6469	9.940406
390.8134	12.7053
390.9799	10.14529
391.1464	16.11256
391.3129	12.6168
391.4794	16.18438
391.6459	12.94702
391.8124	12.87538
391.9789	12.30766
392.1453	13.59817
392.3118	13.65375
392.4782	12.02416
392.6447	13.02464
392.8112	13.36108
392.9776	9.097352
393.144	4.993918
393.3105	8.599985
393.4769	9.15773
393.6433	2.848701
393.8098	6.620376
393.9762	8.82838
394.1426	11.74587
394.309	15.60038
394.4754	16.69854
394.6418	18.29729
394.8082	15.04738
394.9746	13.80819
395.141	15.79977
395.3073	16.7057
395.4737	14.983
395.64	11.21143
395.8064	13.39289
395.9728	13.66413
396.1391	11.77345
396.3055	15.05079
396.4718	14.06211
396.6381	12.82849
396.8045	14.73973
396.9708	14.89612
397.1371	10.28155
397.3034	14.02102
397.4697	16.03851
397.636	12.87702
397.8023	16.5199
397.9686	16.51578
398.1349	20.91078
398.3012	19.44641
398.4675	20.1728
398.6337	11.84368
398.8	19.11828
398.9662	20.88749
399.1325	15.62409
399.2988	21.46079
399.465	21.21949
399.6313	23.22073
399.7975	19.29453
399.9637	19.52015
400.1299	18.08033
400.2961	16.44787
400.4624	19.10176
400.6286	22.54814
400.7948	17.37889
400.961	16.95115
401.1272	16.12801
401.2934	21.0399
401.4595	21.47015
401.6257	19.77657
401.7919	18.50475
401.9581	17.58682
402.1242	16.66784
402.2904	19.55353
402.4565	18.83646
402.6227	18.65554
402.7888	16.43313
402.955	16.22934
403.1211	16.72487
403.2872	18.30221
403.4533	19.22952
403.6194	21.50203
403.7856	17.72963
403.9517	18.02976
404.1177	23.3732
404.2838	20.90542
404.4499	18.61337
404.616	19.73553
404.7821	18.5231
404.9482	21.95033
405.1142	21.44884
405.2803	19.2339
405.4464	19.84733
405.6124	18.14627
405.7784	22.87383
405.9445	25.43877
406.1105	16.46048
406.2766	17.91062
406.4426	17.08598
406.6086	21.15245
406.7746	21.00215
406.9406	21.80042
407.1066	22.98007
407.2726	20.5001
407.4386	18.55759
407.6046	20.38729
407.7706	21.72072
407.9366	22.02789
408.1025	25.29215
408.2685	23.68827
408.4344	22.03443
408.6004	22.5742
408.7664	24.18104
408.9323	23.93047
409.0983	28.64198
409.2642	23.43821
409.4301	24.12803
409.596	21.6401
409.762	20.24006
409.9279	20.30137
410.0938	25.28816
410.2597	23.523
410.4256	24.7966
410.5915	25.16344
410.7574	27.34283
410.9232	21.61948
411.0891	20.47367
411.255	24.33934
411.4209	23.73108
411.5867	29.78876
411.7526	29.25043
411.9184	24.68747
412.0843	26.94616
412.2501	27.23646
412.4159	25.34097
412.5818	28.52079
412.7476	26.8408
412.9134	28.41218
413.0792	31.21361
413.245	25.65917
413.4108	28.55093
413.5766	26.68064
413.7424	29.63682
413.9082	27.20933
414.074	27.33666
414.2397	24.91326
414.4055	25.48825
414.5713	25.71795
414.737	29.32747
414.9028	28.43704
415.0685	24.47281
415.2343	27.07214
415.4	26.45952
415.5658	23.44502
415.7315	23.24717
415.8972	24.73649
416.0629	25.79675
416.2286	30.19221
416.3943	33.80968
416.56	31.99896
416.7257	30.43707
416.8914	29.43536
417.0571	26.69898
417.2228	26.18077
417.3884	28.6207
417.5541	30.45533
417.7198	26.15426
417.8854	28.57107
418.0511	31.903
418.2167	30.30592
418.3824	28.76055
418.548	26.15223
418.7136	24.43873
418.8792	26.94022
419.0449	31.22331
419.2105	33.16348
419.3761	31.7874
419.5417	28.23074
419.7073	31.22787
419.8729	29.76197
420.0385	29.76121
420.204	31.54323
420.3696	29.36121
420.5352	34.35858
420.7007	32.71362
420.8663	37.60815
421.0319	36.05341
421.1974	34.62685
421.3629	35.26672
421.5285	32.90044
421.694	31.08543
421.8595	28.20726
422.0251	31.1629
422.1906	31.02733
422.3561	32.76169
422.5216	31.59508
422.6871	29.01593
422.8526	28.53584
423.0181	30.34036
423.1835	33.35928
423.349	37.65276
423.5145	40.69205
423.68	32.28077
423.8454	32.73768
424.0109	32.22086
424.1763	32.8614
424.3418	36.27899
424.5072	39.89123
424.6726	36.27858
424.838	35.46526
425.0035	37.04409
425.1689	36.87517
425.3343	34.40071
425.4997	36.44687
425.6651	36.36834
425.8305	37.43314
425.9959	35.55938
426.1613	32.70171
426.3267	40.39329
426.492	44.176
426.6574	38.23571
426.8228	34.99579
426.9881	36.03042
427.1534	28.52849
427.3188	34.45939
427.4841	35.06361
427.6495	40.25149
427.8148	36.98296
427.9801	35.0175
428.1454	43.77477
428.3107	38.4753
428.476	37.83207
428.6414	41.59249
428.8066	36.37352
428.9719	33.87053
429.1372	29.65263
429.3025	35.04987
429.4678	32.80474
429.633	32.32057
429.7983	33.43278
429.9636	31.88706
430.1288	29.92905
430.294	30.73185
430.4593	28.86507
430.6245	31.09645
430.7897	28.89485
430.955	27.07672
431.1202	29.48693
431.2854	28.96471
431.4506	34.06994
431.6158	42.45032
431.781	43.09135
431.9462	44.39444
432.1114	41.48161
432.2766	38.65284
432.4417	31.83502
432.6069	34.70585
432.772	37.63683
432.9372	42.76285
433.1024	41.81954
433.2675	44.84813
433.4326	48.14749
433.5977	44.83588
433.7629	37.96265
433.928	40.40311
434.0931	33.84681
434.2582	32.73059
434.4233	34.66335
434.5884	42.03352
434.7535	42.84914
434.9186	45.23199
435.0837	43.56971
435.2488	45.23329
435.4138	42.37079
435.5789	40.15793
435.744	40.79184
435.909	45.24125
436.0741	47.62463
436.2391	44.4758
436.4042	44.8763
436.5692	48.47806
436.7342	48.1769
436.8992	41.15249
437.0643	50.62273
437.2293	51.1715
437.3943	41.83484
437.5593	42.26768
437.7243	40.92449
437.8893	45.42312
438.0542	48.55716
438.2192	44.0503
438.3842	36.84207
438.5491	41.00856
438.7141	45.06548
438.8791	45.82927
439.044	44.96935
439.209	45.41686
439.3739	50.52822
439.5388	48.09315
439.7037	49.45602
439.8687	48.71597
440.0336	52.57141
440.1985	50.32146
440.3634	48.70086
440.5283	47.08585
440.6932	43.22136
440.8581	51.18173
441.0229	48.27138
441.1878	49.70364
441.3527	53.0252
441.5175	53.64394
441.6824	51.78001
441.8472	48.77343
442.0121	49.91556
442.1769	53.2808
442.3418	46.36617
442.5066	49.32151
442.6714	53.90445
442.8362	61.30808
443.001	59.56709
443.1659	53.07273
443.3307	55.33022
443.4955	54.65744
443.6602	52.54752
443.825	57.33871
443.9898	53.10417
444.1546	53.47942
444.3193	56.35894
444.4841	54.26375
444.6488	60.62742
444.8136	57.15397
444.9783	54.05516
445.1431	55.3706
445.3078	56.54485
445.4725	49.64443
445.6372	49.85019
445.802	53.98005
445.9667	52.78254
446.1314	52.1183
446.2961	50.78072
446.4608	53.60786
446.6255	51.61269
446.7901	55.23881
446.9548	54.71294
447.1195	52.76345
447.2841	61.10452
447.4488	62.4225
447.6134	61.23521
447.7781	59.34345
447.9427	53.5146
448.1074	53.96043
448.272	59.22638
448.4366	58.11627
448.6012	63.39963
448.7658	57.58675
448.9305	55.01554
449.095	60.03195
449.2596	58.8593
449.4242	60.83457
449.5888	60.90367
449.7534	56.47713
449.9179	62.679
450.0825	59.91001
450.2471	60.30091
450.4116	61.07354
450.5762	60.96494
450.7407	66.61098
450.9052	70.15392
451.0698	67.60141
451.2343	67.48731
451.3988	67.70457
451.5633	64.03856
451.7278	67.78342
451.8923	66.45281
452.0568	63.83989
452.2213	64.71229
452.3858	66.67387
452.5503	60.70731
452.7148	58.70177
452.8792	64.11092
453.0437	63.55692
453.2081	59.64487
453.3726	65.53457
453.537	63.43021
453.7015	65.68069
453.8659	69.10019
454.0303	67.47954
454.1947	69.81727
454.3592	68.82342
454.5236	68.58871
454.688	66.98438
454.8524	68.57581
455.0168	68.5544
455.1811	64.94929
455.3455	68.32534
455.5099	66.55684
455.6743	71.20734
455.8386	67.56388
456.003	65.76551
456.1673	66.01616
456.3317	69.06161
456.496	66.09341
456.6603	66.41785
456.8246	74.91472
456.989	68.39788
457.1533	60.65928
457.3176	69.42019
457.4819	69.03764
457.6462	70.20218
457.8105	68.95706
457.9748	66.62153
458.1391	67.13441
458.3033	64.27644
458.4676	64.52549
458.6319	64.35685
458.7961	74.03743
458.9604	73.78999
459.1246	68.0649
459.2888	68.28822
459.4531	66.87822
459.6173	63.45045
459.7815	66.27467
459.9457	66.97865
460.11	68.18337
460.2741	70.62868
460.4384	68.09675
460.6025	70.82024
460.7667	70.18174
460.9309	68.15046
461.0951	70.44865
461.2592	73.15784
461.4234	73.21954
461.5876	71.86724
461.7517	71.84019
461.9159	74.07207
462.08	72.73602
462.2441	68.86103
462.4082	69.51907
462.5724	73.12429
462.7365	72.07136
462.9006	71.42584
463.0647	70.16854
463.2288	74.91191
463.3929	75.14005
463.557	78.98536
463.721	72.23771
463.8851	71.02361
464.0492	71.54308
464.2132	67.81794
464.3773	77.07726
464.5414	72.4996
464.7054	72.46344
464.8694	69.6619
465.0334	67.42625
465.1975	73.24367
465.3615	75.84506
465.5255	69.69536
465.6895	74.98181
465.8535	76.61442
466.0175	70.17887
466.1815	71.03127
466.3455	74.05715
466.5095	70.59483
466.6734	68.04825
466.8374	70.69083
467.0014	68.68631
467.1653	74.05192
467.3293	73.15952
467.4932	73.64734
467.6571	73.26453
467.8211	75.0317
467.985	70.89218
468.1489	76.43488
468.3128	71.11829
468.4767	78.53651
468.6406	77.90038
468.8045	79.0526
468.9684	72.61246
469.1323	71.79019
469.2962	72.05207
469.46	72.23509
469.6239	73.5468
469.7878	75.811
469.9516	71.31029
470.1154	72.24464
470.2793	71.65897
470.4431	73.38739
470.607	70.08118
470.7708	67.59026
470.9346	71.95718
471.0984	74.27695
471.2622	73.00029
471.426	73.2774
471.5898	74.99057
471.7536	76.75273
471.9174	82.91111
472.0811	88.12579
472.2449	82.07256
472.4087	81.34627
472.5724	83.71203
472.7362	77.87709
472.8999	76.25408
473.0637	72.72881
473.2274	73.78239
473.3911	73.92205
473.5548	73.95438
473.7185	78.86183
473.8822	79.77977
474.0459	76.72772
474.2096	80.22887
474.3733	82.48878
474.537	81.34109
474.7007	79.49686
474.8643	76.2996
475.028	77.76917
475.1917	78.15884
475.3553	75.76951
475.519	74.94695
475.6826	77.08558
475.8463	73.46976
476.0099	80.72181
476.1735	76.14172
476.3371	75.12627
476.5007	76.52274
476.6643	78.42458
476.8279	79.11158
476.9915	83.54186
477.1551	78.49041
477.3187	75.53242
477.4823	83.51012
477.6458	83.02412
477.8094	73.73653
477.9729	75.72858
478.1365	81.76367
478.3	80.82364
478.4636	83.71879
478.6271	78.86334
478.7906	78.24267
478.9541	82.21381
479.1176	78.03274
479.2812	87.03075
479.4447	86.58784
479.6082	84.79252
479.7716	82.28201
479.9351	79.70605
480.0986	79.27554
480.2621	79.56683
480.4255	78.15688
480.589	80.74183
480.7524	74.58809
480.9159	73.04305
481.0793	76.458
481.2428	79.27847
481.4062	78.51397
481.5696	81.53385
481.733	79.11776
481.8964	81.40808
482.0598	82.17484
482.2232	73.72119
482.3866	77.85511
482.55	78.20811
482.7134	82.85326
482.8768	81.86466
483.0401	80.48354
483.2035	76.80652
483.3668	79.59503
483.5302	85.18636
483.6935	80.53909
483.8568	79.72589
484.0202	74.90058
484.1835	75.9007
484.3468	78.85861
484.5101	79.38903
484.6734	76.77177
484.8367	82.25008
485	83.3562
485.1633	84.55798
485.3266	86.89647
485.4899	77.30789
485.6531	73.45711
485.8164	72.7892
485.9796	68.70154
486.1429	64.32817
486.3061	68.73196
486.4694	69.80412
486.6326	74.14189
486.7958	77.44189
486.959	78.91776
487.1223	77.84689
487.2855	78.55959
487.4486	71.80112
487.6118	80.54193
487.775	84.40095
487.9382	87.62124
488.1014	85.95311
488.2646	78.19121
488.4277	81.66341
488.5909	81.8913
488.754	79.99655
488.9171	80.8209
489.0803	78.44018
489.2434	79.14117
489.4066	83.62802
489.5697	84.33288
489.7328	90.10125
489.8959	87.07431
490.059	81.49329
490.2221	82.29046
490.3852	85.61667
490.5482	93.02254
490.7113	88.25223
490.8744	84.67659
491.0374	84.63824
491.2005	84.85498
491.3636	82.35984
491.5266	81.52537
491.6896	80.08372
491.8527	79.13567
492.0157	79.10001
492.1787	76.16399
492.3417	80.87144
492.5047	82.13142
492.6677	82.11304
492.8307	79.99107
492.9937	82.86232
493.1567	82.75734
493.3196	83.81949
493.4826	84.60365
493.6456	81.35173
493.8085	86.57587
493.9715	81.51639
494.1344	85.25329
494.2974	89.71619
494.4603	86.6455
494.6232	88.04594
494.7861	84.44681
494.949	89.08576
495.1119	85.19717
495.2748	89.63701
495.4377	91.14722
495.6006	88.72587
495.7635	86.55544
495.9264	84.24542
496.0892	81.88867
496.2521	84.4062
496.4149	91.74864
496.5778	90.51414
496.7407	89.71432
496.9035	87.25124
497.0663	84.85772
497.2291	90.98734
497.3919	96.71503
497.5547	91.84871
497.7176	92.6897
497.8804	92.05905
498.0432	86.76986
498.2059	92.38284
498.3687	83.84203
498.5315	87.44593
498.6942	89.67082
498.857	87.36745
499.0198	95.79235
499.1825	94.66772
499.3452	97.73577
499.508	91.99387
499.6707	91.94529
499.8334	95.64543
499.9962	90.80516
500.1589	86.32643
500.3216	90.88747
500.4843	93.71707
500.6469	94.01824
500.8096	89.64191
500.9723	96.26046
501.135	95.83359
501.2976	97.08871
501.4603	84.83997
501.623	88.51519
501.7856	97.98087
501.9482	101.0751
502.1109	93.77866
502.2735	92.49973
502.4361	92.29936
502.5987	93.94397
502.7614	94.00188
502.924	95.25585
503.0865	100.1745
503.2491	102.939
503.4117	98.19666
503.5743	94.02837
503.7368	94.64288
503.8994	95.56266
504.062	95.73655
504.2245	89.28174
504.3871	101.1322
504.5496	95.49266
504.7121	97.39624
504.8746	95.72031
505.0372	97.65832
505.1997	104.7488
505.3622	100.692
505.5247	107.9006
505.6872	107.7888
505.8497	109.8585
506.0121	108.4771
506.1746	113.184
506.3371	113.6939
506.4995	110.0271
506.662	107.6071
506.8244	109.2806
506.9869	107.1648
507.1493	116.4455
507.3117	116.7279
507.4742	111.5609
507.6366	107.3948
507.799	103.0666
507.9614	100.366
508.1238	105.9054
508.2862	103.288
508.4485	107.8575
508.6109	117.0696
508.7733	114.1081
508.9357	113.4553
509.098	117.3095
509.2604	120.0646
509.4227	117.131
509.5851	117.9948
509.7474	120.6128
509.9097	115.9838
510.072	113.062
510.2343	113.7076
510.3966	121.3513
510.5589	120.3272
510.7212	118.2942
510.8835	116.0107
511.0458	115.9122
511.2081	121.7938
511.3703	129.4469
511.5326	124.6558
511.6949	129.3182
511.8571	133.939
512.0193	132.2556
512.1816	129.3281
512.3438	127.1654
512.506	124.9669
512.6682	124.5609
512.8304	124.3667
512.9926	123.9996
513.1548	128.9622
513.317	134.9393
513.4792	130.5862
513.6414	127.87
513.8035	120.1219
513.9657	127.5026
514.1279	130.9384
514.29	131.2014
514.4521	130.567
514.6143	124.6216
514.7764	125.8525
514.9385	133.6973
515.1006	138.727
515.2628	132.1246
515.4249	129.7438
515.587	132.7789
515.7491	130.8237
515.9111	132.4245
516.0732	135.0678
516.2353	139.91
516.3973	134.0032
516.5594	125.4165
516.7214	119.5243
516.8835	117.7015
517.0455	113.7552
517.2076	120.5686
517.3696	117.542
517.5316	123.6666
517.6937	143.5007
517.8557	149.5307
518.0176	140.0913
518.1796	142.2654
518.3416	123.6348
518.5036	124.1665
518.6656	129.0437
518.8275	144.6368
518.9895	144.1051
519.1514	148.3127
519.3134	143.6034
519.4753	154.368
519.6373	156.3551
519.7992	157.793
519.9611	162.9872
520.123	161.9845
520.2849	158.1692
520.4468	156.0063
520.6087	155.6075
520.7706	153.3885
520.9325	156.6152
521.0944	168.5849
521.2562	173.0809
521.4181	173.324
521.58	169.492
521.7418	163.4699
521.9036	166.8351
522.0655	178.0448
522.2273	179.9096
522.3891	178.1469
522.551	167.2807
522.7128	156.262
522.8746	167.4469
523.0363	179.0193
523.1981	176.6819
523.3599	168.631
523.5217	172.0418
523.6835	191.7882
523.8452	190.1316
524.007	191.7676
524.1687	187.4626
524.3304	188.4123
524.4922	194.6789
524.6539	192.1776
524.8157	195.922
524.9774	192.5709
525.1391	187.823
525.3008	194.0531
525.4625	192.9623
525.6241	198.3634
525.7858	202.8693
525.9475	205.2641
526.1092	201.837
526.2709	187.7555
526.4325	185.8776
526.5942	179.5394
526.7558	175.8871
526.9174	180.3402
527.079	182.8564
527.2407	187.0458
527.4023	191.2544
527.5639	206.8493
527.7255	202.3834
527.8871	206.2104
528.0487	208.0699
528.2103	207.8079
528.3718	209.3455
528.5334	213.7746
528.695	221.1459
528.8565	220.7225
529.0181	227.9187
529.1796	228.9957
529.3412	229.3531
529.5027	224.1937
529.6642	219.8421
529.8257	210.8923
529.9872	208.7585
530.1487	219.3096
530.3102	223.2428
530.4717	231.6902
530.6332	227.4061
530.7947	228.5054
530.9562	228.0834
531.1176	234.4889
531.2791	236.9076
531.4405	238.2808
531.6019	232.9208
531.7634	227.3188
531.9248	235.2449
532.0862	232.2677
532.2477	230.322
532.4091	226.7766
532.5704	216.8528
532.7319	203.4881
532.8932	207.4155
533.0546	209.2725
533.216	219.7459
533.3774	234.1741
533.5388	231.404
533.7001	233.3691
533.8615	229.4586
534.0228	217.9792
534.1841	216.1913
534.3455	224.3966
534.5068	228.6528
534.6681	229.4018
534.8293	228.4011
534.9907	224.379
535.152	232.3099
535.3132	236.9641
535.4745	238.359
535.6358	249.9899
535.7971	251.2921
535.9583	248.3261
536.1196	242.3761
536.2808	234.1102
536.4421	233.0815
536.6033	231.1241
536.7645	229.3294
536.9258	224.9201
537.087	225.262
537.2482	223.8357
537.4094	223.9139
537.5706	231.535
537.7318	237.2774
537.8929	240.4668
538.0541	235.1532
538.2153	234.7952
538.3764	235.8796
538.5376	238.5369
538.6987	240.0678
538.8599	241.3208
539.021	239.1192
539.1821	231.3517
539.3432	224.3943
539.5043	222.0588
539.6655	222.2123
539.8265	222.1471
539.9876	230.3958
540.1487	233.4418
540.3098	222.1688
540.4708	225.3817
540.6319	221.9111
540.793	220.4363
540.954	222.5553
541.1151	219.8194
541.2761	225.3561
541.4371	230.1958
541.5981	234.1684
541.7592	240.3305
541.9202	240.3147
542.0812	234.8262
542.2422	239.3964
542.4031	233.7982
542.5641	235.7066
542.7251	234.3879
542.886	238.1334
543.0471	230.4036
543.208	228.2006
543.369	228.4637
543.5298	229.812
543.6908	223.8881
543.8517	240.3711
544.0126	252.5819
544.1736	245.3989
544.3345	243.5533
544.4954	239.2592
544.6563	237.5156
544.8171	236.2824
544.978	239.9089
545.1389	245.7622
545.2997	242.0219
545.4606	230.4016
545.6215	226.1668
545.7823	233.2117
545.9432	237.4503
546.104	247.1732
546.2648	241.822
546.4256	235.8218
546.5864	237.7038
546.7473	246.3793
546.908	248.9844
547.0688	246.0571
547.2296	249.7858
547.3904	243.601
547.5511	232.8669
547.7119	232.5135
547.8727	232.013
548.0334	229.0176
548.1942	236.1837
548.3549	238.6383
548.5156	243.2429
548.6763	248.3461
548.837	249.11
548.9977	243.8088
549.1584	246.6404
549.3192	241.8057
549.4798	247.2198
549.6405	248.6939
549.8011	248.283
549.9619	249.821
550.1225	250.8479
550.2831	247.9704
550.4438	242.8368
550.6044	237.7569
550.765	250.3406
550.9257	244.4794
551.0863	234.3924
551.2469	238.0752
551.4075	234.1062
551.5681	233.973
551.7287	238.4567
551.8893	251.5621
552.0498	249.2161
552.2104	251.9068
552.371	255.8948
552.5315	250.8658
552.6921	235.6418
552.8526	237.5956
553.0131	239.4337
553.1736	244.6131
553.3342	251.1575
553.4947	245.1631
553.6552	248.8627
553.8157	248.9456
553.9762	242.0274
554.1367	245.0532
554.2971	249.44
554.4576	238.4382
554.618	239.7743
554.7785	244.4099
554.939	247.7435
555.0994	244.5691
555.2598	246.593
555.4203	248.6419
555.5807	234.8414
555.7411	235.511
555.9015	236.7371
556.0619	235.2241
556.2223	238.9402
556.3827	234.6586
556.5431	224.7439
556.7034	227.0322
556.8638	232.259
557.0242	231.312
557.1845	230.0769
557.3448	230.2476
557.5052	233.4727
557.6655	242.401
557.8259	228.6494
557.9861	231.3549
558.1465	234.3494
558.3068	232.6619
558.467	225.8008
558.6274	218.3788
558.7877	214.4576
558.9479	214.8363
559.1082	220.1432
559.2684	216.8941
559.4287	223.9369
559.5889	229.5826
559.7491	225.6375
559.9094	215.6598
560.0696	216.4948
560.2299	212.2009
560.3901	211.9678
560.5502	219.5204
560.7104	231.4319
560.8707	237.2408
561.0308	225.9897
561.191	224.9417
561.3511	227.9481
561.5114	215.1882
561.6714	217.0237
561.8316	213.38
561.9918	215.5409
562.1519	219.5138
562.312	218.9654
562.4722	210.9175
562.6323	216.0359
562.7924	220.616
562.9525	226.9327
563.1125	219.8989
563.2726	222.9276
563.4327	219.9581
563.5928	213.818
563.7528	217.068
563.9129	212.1972
564.0729	210.4286
564.233	213.4949
564.393	208.2759
564.553	211.3535
564.7131	215.8404
564.873	216.5509
565.0331	207.7768
565.1931	218.2435
565.353	206.5232
565.5131	197.0854
565.673	193.3121
565.833	192.6649
565.9929	193.298
566.1529	196.9422
566.3129	197.6418
566.4728	206.9888
566.6328	211.9591
566.7927	205.3026
566.9526	203.4218
567.1125	207.0302
567.2724	215.1844
567.4323	208.3519
567.5922	203.4083
567.7521	211.2238
567.9119	201.1223
568.0718	198.5107
568.2317	193.4245
568.3915	189.7795
568.5514	194.4298
568.7112	192.2386
568.871	194.896
569.0309	194.3363
569.1907	194.3129
569.3505	196.6208
569.5103	198.3618
569.6701	191.1086
569.8299	191.5914
569.9897	190.3049
570.1495	190.2499
570.3092	191.3179
570.469	181.3926
570.6287	183.3412
570.7885	182.0615
570.9482	176.5108
571.108	176.7486
571.2677	182.929
571.4274	181.8504
571.5871	183.2396
571.7468	186.8386
571.9066	188.0935
572.0662	181.612
572.2259	188.0529
572.3856	186.7726
572.5452	189.8011
572.7049	189.0582
572.8646	196.477
573.0242	186.5048
573.1838	179.8126
573.3435	181.9445
573.5031	188.5137
573.6627	192.0748
573.8223	190.9514
573.9819	181.9728
574.1415	180.4884
574.3011	182.0334
574.4607	182.7095
574.6203	177.1453
574.7798	173.2513
574.9394	181.0504
575.099	184.8776
575.2585	180.177
575.418	176.4983
575.5776	171.6869
575.7371	171.7254
575.8966	174.4049
576.0562	172.5236
576.2156	177.5296
576.3751	173.6748
576.5346	173.7648
576.6941	173.8823
576.8536	175.8559
577.0131	168.2218
577.1725	177.8507
577.332	176.0245
577.4914	174.7314
577.6508	170.1811
577.8103	161.9782
577.9697	168.7765
578.1291	164.1136
578.2885	165.9851
578.4479	165.9591
578.6073	161.1494
578.7667	166.215
578.9261	164.0303
579.0854	163.6516
579.2448	162.4927
579.4042	165.6697
579.5635	163.0457
579.7229	157.5843
579.8822	159.6522
580.0416	166.7728
580.2009	160.6126
580.3602	160.0536
580.5195	160.6747
580.6788	156.661
580.8381	154.9762
580.9974	156.2973
581.1566	164.6931
581.3159	159.9108
581.4752	155.8996
581.6345	150.5305
581.7937	164.6983
581.9529	159.76
582.1122	158.075
582.2714	153.7423
582.4306	154.9218
582.5898	161.5755
582.749	159.0468
582.9082	158.8851
583.0674	156.235
583.2266	152.3983
583.3857	149.6757
583.5449	156.9708
583.7041	151.5464
583.8633	154.0872
584.0224	155.5527
584.1815	150.3113
584.3407	154.2807
584.4998	155.2664
584.6589	150.6071
584.818	150.5501
584.9771	151.8867
585.1362	146.2544
585.2953	149.0358
585.4544	142.8476
585.6135	141.4845
585.7725	142.1602
585.9316	141.1914
586.0906	148.8118
586.2497	148.5018
586.4087	148.1932
586.5677	149.7821
586.7267	149.067
586.8858	148.0013
587.0448	146.8593
587.2038	150.4234
587.3628	148.6781
587.5218	141.267
587.6807	139.0952
587.8397	143.101
587.9987	144.4141
588.1577	140.5758
588.3166	143.6785
588.4755	140.0245
588.6345	137.1703
588.7934	131.8426
588.9523	126.6774
589.1112	125.5677
589.2701	124.4861
589.429	130.4585
589.5879	123.2301
589.7468	127.2392
589.9056	127.4675
590.0645	133.2187
590.2234	138.1691
590.3822	129.2021
590.5411	131.9381
590.6999	136.9678
590.8588	134.2019
591.0176	133.8912
591.1764	133.4399
591.3352	129.3788
591.494	137.6777
591.6528	136.8452
591.8116	133.549
591.9703	134.2022
592.1291	132.0249
592.2878	129.293
592.4467	136.6602
592.6053	131.1395
592.7641	137.7172
592.9229	136.5007
593.0816	127.6283
593.2403	128.5432
593.399	132.7846
593.5577	130.721
593.7164	133.3486
593.8751	134.0593
594.0338	132.6116
594.1924	126.2053
594.3511	127.8954
594.5098	132.7417
594.6684	125.5227
594.8271	129.2258
594.9857	134.7048
595.1443	131.2715
595.303	125.3978
595.4615	135.3274
595.6202	133.6855
595.7787	128.9319
595.9374	132.6185
596.0959	136.5992
596.2545	127.726
596.4131	132.1317
596.5717	131.6493
596.7302	134.0867
596.8887	134.2391
597.0473	132.07
597.2058	133.1316
597.3644	133.2597
597.5229	131.0862
597.6814	132.7359
597.8399	135.4233
597.9984	135.4528
598.1569	129.1086
598.3154	122.8615
598.4738	132.0812
598.6323	127.9538
598.7908	130.8064
598.9492	127.1893
599.1076	128.7847
599.2661	126.0635
599.4245	126.6684
599.5829	131.0524
599.7413	130.271
599.8997	134.3678
600.0581	124.9195
600.2165	128.1489
600.3749	129.5367
600.5333	127.9002
600.6917	127.859
600.85	129.0385
601.0084	125.7879
601.1667	128.2746
601.325	126.8774
601.4833	133.1788
601.6417	136.8045
601.8	128.8463
601.9583	125.8296
602.1166	127.9764
602.2749	127.5618
602.4332	125.7081
602.5914	129.3819
602.7498	134.6071
602.908	130.0274
603.0662	125.4552
603.2245	129.1644
603.3828	130.128
603.541	128.4297
603.6992	127.3587
603.8574	129.4138
604.0156	128.7903
604.1738	132.5439
604.332	123.8315
604.4902	126.4388
604.6484	119.581
604.8065	124.6608
604.9647	131.9796
605.1229	124.0089
605.281	122.8635
605.4391	124.183
605.5973	122.1976
605.7554	122.9968
605.9135	126.9406
606.0717	126.2971
606.2297	122.7692
606.3878	121.132
606.5459	119.0639
606.704	116.6884
606.8621	119.704
607.0201	122.7506
607.1782	122.1756
607.3362	125.3132
607.4943	129.9834
607.6523	124.9179
607.8104	124.7824
607.9684	118.8869
608.1264	121.8311
608.2844	122.5924
608.4424	115.1502
608.6003	116.0555
608.7584	118.7632
608.9163	119.8343
609.0743	116.1043
609.2322	117.2505
609.3902	122.684
609.5482	115.3202
609.7061	115.5742
609.864	116.5772
610.0219	115.4986
610.1798	115.5023
610.3377	113.5971
610.4956	112.0219
610.6535	116.2293
610.8114	118.988
610.9693	120.6488
611.1271	115.5422
611.285	117.7848
611.4429	119.4693
611.6007	115.0271
611.7585	110.8123
611.9164	110.9858
612.0742	110.8696
612.232	116.8277
612.3898	111.9644
612.5476	108.4891
612.7054	109.8096
612.8632	111.4995
613.0209	114.5225
613.1787	110.0148
613.3365	110.8431
613.4942	113.5153
613.652	113.3413
613.8097	107.4782
613.9674	103.1687
614.1252	104.3264
614.2829	110.114
614.4406	104.677
614.5983	107.1064
614.756	104.5303
614.9136	106.5451
615.0714	101.1599
615.229	102.6095
615.3867	110.8037
615.5443	106.2659
615.702	106.534
615.8596	105.7683
616.0172	105.4166
616.1748	101.3164
616.3325	98.56889
616.4901	92.09727
616.6476	104.2397
616.8052	105.1133
616.9628	101.5188
617.1204	101.4023
617.278	101.9949
617.4355	101.0304
617.5931	106.5176
617.7506	105.0473
617.9081	100.3487
618.0657	103.0744
618.2232	104.5348
618.3807	102.3002
618.5382	100.3331
618.6957	105.3796
618.8532	106.6759
619.0107	104.7047
619.1682	102.3012
619.3256	99.92587
619.4831	105.5976
619.6406	105.4273
619.798	104.7021
619.9554	101.5548
620.1129	99.30965
620.2703	101.7897
620.4277	104.5303
620.5851	100.3387
620.7425	100.8874
620.8998	110.6768
621.0573	99.62793
621.2146	98.5564
621.372	96.33317
621.5294	98.48231
621.6867	96.5421
621.8441	98.82816
622.0013	101.2808
622.1587	97.10891
622.316	97.89956
622.4733	106.3083
622.6306	100.8673
622.7879	94.68671
622.9452	98.91592
623.1025	95.02908
623.2598	97.82677
623.4171	95.94254
623.5743	95.72039
623.7316	102.5169
623.8888	99.39778
624.046	97.64291
624.2032	94.44859
624.3605	95.5416
624.5176	93.9308
624.6749	97.46999
624.8321	93.50459
624.9893	93.96883
625.1464	103.481
625.3036	102.5323
625.4608	99.91535
625.6179	92.99961
625.7751	96.86931
625.9322	92.40255
626.0894	94.0264
626.2465	97.67569
626.4036	98.93854
626.5607	95.83622
626.7178	93.5144
626.8749	91.00851
627.032	93.71877
627.189	98.70368
627.3461	95.70693
627.5032	96.10652
627.6602	90.24915
627.8173	92.49745
627.9743	91.59726
628.1313	87.48563
628.2884	90.74566
628.4454	90.67267
628.6024	94.82504
628.7594	97.91326
628.9164	96.36233
629.0734	93.08472
629.2303	91.61069
629.3873	89.99892
629.5443	93.52065
629.7012	95.47156
629.8582	92.8605
630.0151	89.55694
630.172	86.41164
630.3289	87.58704
630.4858	91.93089
630.6428	91.47449
630.7996	93.00168
630.9565	96.06631
631.1134	90.06763
631.2703	93.83037
631.4272	94.0201
631.584	88.68457
631.7408	90.37666
631.8977	91.88109
632.0546	90.42464
632.2114	92.14558
632.3682	95.534
632.525	92.97742
632.6818	92.28076
632.8386	93.44157
632.9954	95.69387
633.1522	95.43234
633.3089	95.75394
633.4657	90.66144
633.6224	94.16689
633.7792	93.4094
633.9359	92.81734
634.0927	89.30367
634.2494	88.8525
634.4061	92.5172
634.5628	89.6454
634.7195	93.3656
634.8762	93.09502
635.0329	94.22766
635.1895	92.18743
635.3462	88.01331
635.5029	86.24147
635.6595	88.1353
635.8162	88.22998
635.9728	85.96612
636.1295	93.29912
636.2861	88.39954
636.4427	83.65532
636.5992	90.24493
636.7559	94.07446
636.9124	87.14683
637.069	83.94241
637.2256	90.87208
637.3821	88.46397
637.5387	83.69468
637.6953	88.13627
637.8518	91.60376
638.0084	92.84502
638.1649	88.01223
638.3214	87.68268
638.4779	89.4826
638.6344	93.27927
638.7909	85.23067
638.9474	87.20052
639.1038	82.65044
639.2603	85.17982
639.4167	89.08703
639.5732	82.72699
639.7297	78.106
639.8861	80.39967
640.0425	78.42805
640.199	83.13751
640.3553	84.88599
640.5118	79.35387
640.6682	86.13153
640.8245	82.53287
640.981	81.10134
641.1373	81.71324
641.2936	79.90966
641.45	82.69972
641.6064	85.20374
641.7627	82.48815
641.9191	81.50668
642.0754	82.88919
642.2317	81.66966
642.388	79.6927
642.5443	75.90171
642.7006	82.08406
642.8569	81.29342
643.0131	77.38474
643.1694	75.36037
643.3257	81.23976
643.4819	81.49477
643.6382	76.92108
643.7944	81.32382
643.9506	78.93577
644.1069	80.34509
644.2631	77.64056
644.4193	78.23172
644.5754	76.82097
644.7316	75.9381
644.8878	75.48024
645.044	74.41024
645.2002	76.31712
645.3563	75.75463
645.5125	80.78704
645.6686	69.35712
645.8248	72.14645
645.9809	72.36565
646.137	75.16246
646.2931	69.36979
646.4492	68.98932
646.6053	71.65331
646.7614	73.789
646.9174	73.31576
647.0735	71.89567
647.2296	73.81168
647.3856	72.72793
647.5417	74.19012
647.6977	74.4428
647.8537	73.82182
648.0098	74.79244
648.1658	75.94603
648.3218	74.27643
648.4777	71.26643
648.6337	69.54372
648.7897	72.53378
648.9457	71.82294
649.1016	70.78321
649.2576	68.81483
649.4135	67.25549
649.5695	71.25964
649.7254	72.67425
649.8813	67.33501
650.0372	70.62919
650.1932	70.58424
650.3491	73.37537
650.5049	65.53915
650.6608	66.04691
650.8167	70.05482
650.9725	73.29871
651.1284	72.31086
651.2842	67.62564
651.4401	69.3766
651.5959	68.29588
651.7518	67.71914
651.9076	61.51341
652.0634	65.44684
652.2192	71.55482
652.3749	69.40848
652.5308	71.25008
652.6865	66.74261
652.8423	65.64689
652.998	64.48643
653.1538	65.98148
653.3096	64.75275
653.4653	65.8759
653.621	64.9052
653.7767	64.49876
653.9324	63.39252
654.0881	70.00001
654.2438	67.96343
654.3995	67.04475
654.5552	67.00428
654.7109	65.60242
654.8665	64.92106
655.0222	68.87387
655.1778	68.99374
655.3334	67.03546
655.4891	62.25441
655.6447	59.8095
655.8003	60.63437
655.9559	60.34061
656.1115	60.04568
656.2671	54.1653
656.4227	48.67109
656.5782	55.6249
656.7338	57.87047
656.8893	59.98061
657.0449	63.65918
657.2004	67.48537
657.356	62.69625
657.5115	64.39957
657.667	64.40202
657.8225	63.10441
657.978	62.46991
658.1335	65.85292
658.289	66.03362
658.4445	64.10812
658.5999	56.75298
658.7554	59.24358
658.9108	62.44923
659.0663	64.49837
659.2217	64.28767
659.3771	57.33652
659.5325	63.01827
659.6879	59.43652
659.8433	57.67199
659.9987	64.56298
660.1541	64.89884
660.3095	62.72411
660.4648	62.70338
660.6202	63.17828
660.7756	64.98329
660.9309	63.67636
661.0862	62.06223
661.2416	58.83895
661.3969	63.55815
661.5522	65.25685
661.7075	55.58662
661.8628	62.06219
662.0181	65.35641
662.1733	61.28629
662.3286	61.91216
662.4839	63.44979
662.6391	61.30427
662.7944	59.02253
662.9496	61.17953
663.1048	60.99446
663.26	58.29808
663.4152	61.86128
663.5704	59.24108
663.7256	63.54605
663.8808	61.58719
664.036	60.94233
664.1912	61.77689
664.3463	58.83324
664.5015	62.02944
664.6566	62.44024
664.8118	57.77166
664.9669	59.82516
665.122	60.136
665.2771	61.48057
665.4322	58.50254
665.5873	57.87137
665.7424	60.5688
665.8975	61.57912
666.0526	62.04739
666.2076	55.63923
666.3627	59.86443
666.5177	60.08824
666.6727	62.17962
666.8278	57.69864
666.9828	54.44555
667.1378	58.56072
667.2928	59.80428
667.4478	58.65434
667.6028	61.48431
667.7578	58.72441
667.9127	54.46181
668.0677	53.4656
668.2226	57.81759
668.3776	57.34314
668.5325	55.16173
668.6874	52.26835
668.8423	53.37111
668.9973	56.04078
669.1522	57.07902
669.3071	56.21039
669.4619	53.45762
669.6168	50.82028
669.7717	60.86587
669.9265	57.59214
670.0814	64.379
670.2362	62.94127
670.3911	58.52514
670.5459	53.47748
670.7007	60.58025
670.8555	60.20801
671.0103	56.10474
671.1651	52.43408
671.3199	61.65834
671.4747	55.70123
671.6295	51.48883
671.7842	57.68308
671.939	52.84375
672.0937	51.83871
672.2484	58.88584
672.4031	54.20205
672.5579	55.52493
672.7126	52.25043
672.8673	54.75047
673.022	56.49212
673.1767	58.34272
673.3314	52.85586
673.486	59.37816
673.6407	57.03438
673.7953	58.51716
673.95	54.44518
674.1046	57.91801
674.2592	55.13614
674.4138	55.96899
674.5684	57.791
674.723	56.23785
674.8776	54.51108
675.0322	50.3312
675.1868	52.43272
675.3414	49.58887
675.4959	51.35491
675.6505	52.4333
675.805	48.25513
675.9595	54.0772
676.1141	55.44503
676.2686	53.96964
676.4231	50.76726
676.5776	52.11334
676.7321	52.43481
676.8866	50.57321
677.041	51.92905
677.1955	53.11948
677.35	52.19522
677.5044	51.27494
677.6589	51.72094
677.8133	52.76518
677.9677	47.16927
678.1221	56.41683
678.2766	51.23986
678.4309	50.98925
678.5853	52.11334
678.7397	52.31796
678.8941	52.08955
679.0485	49.92484
679.2028	50.77925
679.3571	57.19251
679.5115	54.87989
679.6658	55.1572
679.8201	50.81404
679.9744	54.03162
680.1288	54.04723
680.2831	51.68294
680.4373	54.20173
680.5916	53.02529
680.7459	51.80944
680.9001	49.61834
681.0544	50.77551
681.2087	56.48035
681.3629	56.28971
681.5171	51.41049
681.6713	54.222
681.8256	52.70926
681.9797	53.81493
682.134	49.10875
682.2881	51.46543
682.4423	50.79742
682.5965	50.51694
682.7507	53.65398
682.9048	49.92257
683.059	50.35029
683.2131	54.26831
683.3672	51.82943
683.5213	47.91947
683.6754	52.748
683.8295	50.09604
683.9836	52.75415
684.1377	51.29523
684.2918	56.42523
684.4459	49.78506
684.5999	51.3221
684.754	54.16245
684.908	53.73746
685.062	50.03188
685.2161	48.31956
685.3701	55.4797
685.5241	54.78589
685.6781	53.50584
685.8321	52.09803
685.9861	48.95184
686.14	54.1702
686.294	53.48683
686.4479	49.64744
686.6019	48.7851
686.7559	49.0703
686.9098	45.23618
687.0637	43.94328
687.2176	41.9097
687.3715	42.93003
687.5254	41.8165
687.6793	42.13871
687.8332	46.11121
687.9871	49.91632
688.1409	48.83629
688.2947	49.22963
688.4486	53.1459
688.6024	49.48323
688.7563	45.45201
688.9101	46.87214
689.0639	51.44869
689.2177	46.23772
689.3715	54.19231
689.5253	52.68278
689.6791	51.57428
689.8328	51.7332
689.9866	48.37579
690.1403	56.42288
690.2941	53.93174
690.4478	48.33271
690.6015	54.19669
690.7552	55.39892
690.9089	54.2956
691.0626	58.10924
691.2164	53.68766
691.37	54.28076
691.5237	54.28055
691.6774	53.32016
691.831	57.17285
691.9847	52.65862
692.1383	57.59853
692.2919	57.53931
692.4456	57.68183
692.5992	60.81931
692.7527	60.02092
692.9064	54.41116
693.0599	57.98699
693.2136	57.46163
693.3671	57.4957
693.5207	63.73975
693.6742	62.51209
693.8278	56.62778
693.9813	60.65609
694.1348	61.79417
694.2883	59.0316
694.4418	62.64016
694.5953	67.54005
694.7488	69.30811
694.9023	72.47118
695.0558	67.15803
695.2093	67.28922
695.3627	63.34879
695.5162	61.88951
695.6696	70.43394
695.8231	66.83025
695.9764	65.5415
696.1299	62.45877
696.2833	71.05355
696.4367	72.34933
696.5901	78.06159
696.7435	78.88548
696.8968	74.30045
697.0502	74.76401
697.2036	74.31709
697.3569	72.92521
697.5102	74.1832
697.6635	74.93858
697.8168	76.10653
697.9702	74.87026
698.1235	71.80308
698.2768	73.04232
698.4301	74.68836
698.5833	82.05346
698.7366	77.91602
698.8898	78.33958
699.0431	76.70636
699.1964	79.07116
699.3495	77.7919
699.5028	79.138
699.656	83.07307
699.8092	84.62501
699.9624	86.36962
700.1156	85.82013
700.2688	82.19993
700.4219	79.85853
700.5751	81.30632
700.7283	82.58733
700.8814	86.63741
701.0345	85.17222
701.1877	90.20837
701.3408	94.13426
701.4939	87.49307
701.647	86.88112
701.8001	89.92116
701.9532	93.42921
702.1063	96.49799
702.2593	94.453
702.4124	95.77345
702.5654	92.88603
702.7184	89.77221
702.8715	87.93896
703.0245	95.31844
703.1776	98.07838
703.3305	100.2526
703.4835	101.5595
703.6365	100.7638
703.7895	97.54398
703.9424	96.95959
704.0954	95.19687
704.2484	102.3704
704.4013	102.5744
704.5543	100.3247
704.7072	101.5368
704.8601	100.9946
705.013	103.0696
705.1659	107.1197
705.3188	112.2605
705.4717	104.9018
705.6246	105.1332
705.7774	110.6586
705.9303	108.2902
706.0831	109.9183
706.236	108.9641
706.3888	109.8928
706.5416	103.6864
706.6944	110.2024
706.8472	113.9803
707	116.3001
707.1528	115.3081
707.3056	112.8084
707.4583	111.8378
707.6111	116.4514
707.7639	124.5673
707.9166	120.4603
708.0693	116.1316
708.222	111.373
708.3748	117.9656
708.5275	121.3915
708.6802	118.3372
708.8328	118.6597
708.9855	119.7227
709.1382	125.4527
709.2909	125.0561
709.4435	126.1
709.5962	133.1846
709.7488	126.2273
709.9014	129.5267
710.054	130.3267
710.2067	129.2208
710.3593	130.5013
710.5118	134.4691
710.6644	132.2392
710.817	130.7279
710.9695	133.6567
711.1221	134.3772
711.2747	130.5587
711.4272	132.4604
711.5797	133.7648
711.7322	130.0194
711.8848	133.9181
712.0373	132.8535
712.1898	135.5177
712.3422	134.0552
712.4948	132.4143
712.6472	130.6129
712.7996	137.3443
712.9521	135.1398
713.1046	138.9512
713.257	143.0543
713.4094	134.9544
713.5618	141.9272
713.7142	140.4197
713.8666	133.4092
714.019	147.1433
714.1714	143.8019
714.3237	143.843
714.4761	141.1611
714.6285	149.1892
714.7808	145.6467
714.9331	143.0091
715.0854	149.1767
715.2378	146.0829
715.3901	142.3557
715.5424	146.9634
715.6947	152.6028
715.8469	148.5702
715.9992	145.6514
716.1515	142.7836
716.3037	144.5016
716.456	137.3945
716.6082	134.4485
716.7604	138.7687
716.9127	138.886
717.0649	137.6952
717.2171	136.9151
717.3693	135.408
717.5214	128.2716
717.6736	127.7197
717.8258	132.1719
717.978	127.7895
718.1301	132.4433
718.2822	130.2934
718.4344	127.0183
718.5865	124.3921
718.7386	127.6903
718.8907	125.8169
719.0428	133.6014
719.1949	136.2374
719.3469	129.8837
719.499	127.9786
719.6511	138.9671
719.8031	137.2923
719.9551	132.3769
720.1072	130.8775
720.2592	133.5409
720.4112	136.0483
720.5632	135.9362
720.7152	141.8425
720.8672	154.9482
721.0192	149.6772
721.1711	151.1408
721.3231	158.1176
721.475	160.4454
721.627	159.7654
721.7789	162.7237
721.9308	168.355
722.0828	167.1958
722.2347	172.9563
722.3866	171.1665
722.5385	167.0366
722.6903	164.44
722.8422	165.9204
722.9941	167.713
723.1459	161.0608
723.2977	155.0148
723.4496	153.5066
723.6014	151.4056
723.7532	154.3167
723.905	159.7503
724.0568	154.9992
724.2086	149.3344
724.3604	156.4482
724.5121	159.1886
724.6639	160.1353
724.8157	161.4816
724.9674	160.1007
725.1191	154.1594
725.2709	159.3039
725.4226	155.566
725.5743	157.1666
725.726	166.6086
725.8777	170.8639
726.0294	167.2706
726.181	167.5615
726.3327	171.7161
726.4844	162.9631
726.636	163.6635
726.7877	171.5914
726.9393	185.4159
727.0909	181.0365
727.2425	170.7846
727.3941	169.086
727.5457	165.5926
727.6973	159.6255
727.8488	160.1457
728.0004	166.0525
728.1519	171.0453
728.3035	182.6678
728.455	189.5336
728.6066	190.6774
728.7581	184.2064
728.9095	169.7631
729.0611	158.3232
729.2126	161.8339
729.364	167.7864
729.5155	178.9729
729.667	187.6241
729.8184	194.8869
729.9698	189.3182
730.1213	183.6023
730.2727	181.8443
730.4241	181.24
730.5756	181.8875
730.7269	189.6335
730.8784	193.1979
731.0297	183.4326
731.1811	180.7556
731.3325	187.6386
731.4838	193.273
731.6351	188.1146
731.7865	187.2136
731.9378	191.0947
732.0891	199.7322
732.2404	199.083
732.3917	206.8998
732.543	209.3546
732.6943	205.6988
732.8456	199.2566
732.9968	203.6753
733.1481	207.3934
733.2993	209.1584
733.4506	204.6806
733.6018	212.062
733.753	216.3727
733.9042	215.4883
734.0554	217.8725
734.2066	227.5427
734.3578	225.6305
734.509	221.4262
734.6602	209.9171
734.8113	213.0958
734.9624	207.3612
735.1136	211.6115
735.2647	214.2032
735.4158	209.9792
735.5669	207.1083
735.718	219.3417
735.8691	222.5138
736.0201	217.4845
736.1713	216.1933
736.3223	222.549
736.4733	222.4561
736.6244	218.3359
736.7755	219.9526
736.9265	220.3822
737.0775	219.7401
737.2285	218.8224
737.3795	224.9608
737.5305	227.8541
737.6815	225.4873
737.8324	226.0622
737.9834	227.2724
738.1343	226.957
738.2853	227.6442
738.4362	221.1983
738.5871	224.8295
738.738	226.9025
738.8889	215.6319
739.0399	216.5542
739.1907	215.6718
739.3416	217.0623
739.4925	230.7456
739.6433	222.4469
739.7942	223.2903
739.945	226.425
740.0958	226.4014
740.2467	232.9788
740.3975	227.7896
740.5483	228.0814
740.6991	231.7321
740.8499	229.9172
741.0007	227.6522
741.1514	226.0757
741.3022	226.9676
741.4529	226.6824
741.6036	227.5187
741.7544	222.5789
741.9051	228.8374
742.0558	235.1915
742.2065	222.55
742.3572	227.1873
742.5079	223.667
742.6586	227.3869
742.8093	232.5471
742.9599	234.8762
743.1105	229.6903
743.2612	226.5486
743.4118	232.2691
743.5624	231.2098
743.7131	238.438
743.8636	233.3482
744.0142	241.1538
744.1648	226.5571
744.3154	228.336
744.4659	231.455
744.6165	225.4272
744.767	228.0363
744.9176	232.289
745.0681	224.4941
745.2186	227.9673
745.3691	225.5797
745.5197	227.8738
745.6702	237.7519
745.8206	232.0847
745.9711	228.9665
746.1215	232.1116
746.272	225.9534
746.4224	227.4643
746.5729	226.2276
746.7233	225.7169
746.8737	226.4997
747.0241	234.9225
747.1745	230.8178
747.3249	226.1659
747.4753	230.5876
747.6257	230.1419
747.776	229.011
747.9264	235.7065
748.0767	228.8655
748.2271	231.9398
748.3774	237.7532
748.5276	233.2993
748.678	227.5405
748.8282	228.5901
748.9786	222.8735
749.1288	222.5382
749.2791	223.6164
749.4294	228.3176
749.5796	228.7052
749.7299	216.7728
749.8801	218.0903
750.0303	217.2946
750.1805	219.8257
750.3307	220.3622
750.4809	220.8077
750.6311	221.4942
750.7813	216.5786
750.9314	213.7074
751.0816	215.3634
751.2318	216.0627
751.3818	211.248
751.532	217.7237
751.6821	224.778
751.8322	224.0191
751.9823	221.8237
752.1324	219.3344
752.2825	216.45
752.4326	213.8416
752.5826	214.1232
752.7327	215.8437
752.8827	217.9381
753.0327	216.8018
753.1827	215.8505
753.3328	214.5042
753.4828	218.3511
753.6328	212.9292
753.7828	208.8733
753.9327	210.8018
754.0827	206.8461
754.2327	213.1223
754.3826	215.7731
754.5325	210.5849
754.6825	212.9541
754.8324	216.1425
754.9823	219.5734
755.1322	212.3492
755.2821	206.2273
755.432	204.4773
755.5818	202.2736
755.7318	208.2388
755.8816	201.9232
756.0314	206.4587
756.1813	203.728
756.3311	209.0164
756.4809	205.3315
756.6307	210.3292
756.7805	207.5049
756.9303	205.5338
757.0801	205.4804
757.2299	198.9495
757.3796	197.2843
757.5294	195.3377
757.6791	199.3715
757.8289	204.901
757.9786	198.2228
758.1283	195.7726
758.278	196.1338
758.4277	201.8769
758.5773	201.6641
758.7271	197.058
758.8767	191.0836
759.0264	187.1387
759.176	191.6198
759.3256	171.8031
759.4753	146.5462
759.6249	116.1982
759.7745	90.23402
759.9241	82.11287
760.0737	66.61539
760.2233	55.05422
760.3729	49.46367
760.5224	47.93279
760.6719	45.80486
760.8215	46.1466
760.971	44.95223
761.1205	55.45369
761.2701	61.01855
761.4196	75.30522
761.5691	89.94126
761.7186	120.8569
761.868	134.0858
762.0175	138.389
762.167	130.7308
762.3164	113.0027
762.4659	98.30205
762.6153	90.77132
762.7647	91.17914
762.9141	88.35937
763.0635	85.8509
763.2129	88.33449
763.3623	87.56905
763.5117	87.45219
763.661	92.16963
763.8104	97.87708
763.9597	95.19895
764.1091	102.1746
764.2584	105.7515
764.4077	108.5182
764.557	111.4809
764.7063	114.3986
764.8556	113.7321
765.0049	116.086
765.1541	119.4219
765.3034	129.5841
765.4526	128.1069
765.6019	132.4497
765.7511	136.7877
765.9003	131.0576
766.0496	137.0605
766.1987	145.5714
766.348	146.8174
766.4971	146.2253
766.6463	145.2041
766.7955	146.3076
766.9446	155.7709
767.0938	153.6427
767.2429	157.9229
767.392	158.5636
767.5411	167.3371
767.6902	163.2135
767.8394	163.2254
767.9884	166.2958
768.1375	169.2969
768.2866	163.6469
768.4356	161.122
768.5847	160.6469
768.7337	167.5676
768.8828	165.8855
769.0317	165.8173
769.1808	162.8305
769.3298	160.9229
769.4788	169.2601
769.6277	162.9046
769.7767	167.754
769.9257	160.1352
770.0746	160.3788
770.2236	167.0792
770.3725	169.3046
770.5214	166.5174
770.6703	159.5816
770.8193	165.8171
770.9681	161.8954
771.1171	158.7289
771.2659	153.447
771.4148	161.59
771.5637	160.7309
771.7125	167.3449
771.8613	162.9616
772.0101	163.9827
772.159	160.6149
772.3078	161.5751
772.4566	161.3752
772.6054	159.3175
772.7542	158.8725
772.903	162.1973
773.0517	162.3832
773.2004	166.4906
773.3492	166.3558
773.4979	155.5191
773.6467	159.2653
773.7953	156.9179
773.944	164.2133
774.0928	157.7358
774.2415	157.013
774.3901	156.2766
774.5388	153.9482
774.6874	152.6175
774.8361	151.9194
774.9847	149.9347
775.1334	152.7989
775.282	149.459
775.4305	155.3017
775.5792	158.4538
775.7277	158.0207
775.8763	159.2476
776.0249	158.5985
776.1735	158.1184
776.322	150.8054
776.4705	150.8069
776.6191	159.9342
776.7676	157.5182
776.9161	152.0341
777.0646	151.7751
777.2131	158.4378
777.3616	151.1567
777.5101	151.9802
777.6585	149.7303
777.8069	149.6554
777.9554	151.3816
778.1038	148.2047
778.2523	150.4563
778.4007	148.6173
778.5491	148.4963
778.6974	154.1973
778.8459	152.2337
778.9942	148.1307
779.1426	152.5253
779.291	153.3605
779.4393	151.2894
779.5876	152.8253
779.736	145.8702
779.8843	150.1593
780.0326	151.9295
780.1809	143.2736
780.3292	145.8543
780.4775	150.7231
780.6257	147.6982
780.774	147.9067
780.9222	150.8055
781.0704	146.7225
781.2187	149.0862
781.3669	145.2196
781.5151	146.5591
781.6633	146.5222
781.8115	148.3675
781.9597	148.412
782.1078	148.2668
782.256	152.9062
782.4042	142.0289
782.5523	145.5305
782.7004	143.2376
782.8486	148.8361
782.9967	149.6593
783.1448	142.449
783.2929	140.7372
783.441	138.5981
783.5891	142.1102
783.7371	145.6035
783.8851	143.6536
784.0332	140.2299
784.1812	142.7638
784.3293	146.9694
784.4773	140.8441
784.6253	141.4212
784.7733	147.1021
784.9213	138.8064
785.0692	146.2203
785.2172	142.7515
785.3652	144.6845
785.5131	138.6464
785.6611	137.2581
785.809	136.9396
785.9569	143.6866
786.1048	142.9427
786.2527	138.4372
786.4006	136.7081
786.5485	135.2263
786.6964	141.888
786.8442	134.1004
786.9921	134.5993
787.1399	136.5127
787.2877	139.702
787.4355	130.9416
787.5833	134.3642
787.7311	133.4266
787.8789	136.985
788.0267	141.9701
788.1745	140.629
788.3223	133.7612
788.47	130.9487
788.6177	132.1152
788.7654	133.6788
788.9132	134.9489
789.0609	128.2429
789.2086	132.3635
789.3563	135.4383
789.504	134.5674
789.6517	133.6734
789.7993	130.8293
789.947	134.2539
790.0946	134.3407
790.2422	128.7475
790.3898	134.2203
790.5375	131.2894
790.6851	129.6589
790.8326	127.0303
790.9802	130.0095
791.1278	127.8264
791.2754	127.6756
791.423	127.5157
791.5705	121.8333
791.718	126.3059
791.8655	121.6081
792.0131	124.8904
792.1606	127.804
792.308	128.8555
792.4556	129.7745
792.603	126.5623
792.7505	132.479
792.8979	122.6873
793.0454	124.6679
793.1928	119.4141
793.3403	117.7804
793.4877	127.5104
793.6351	128.7541
793.7825	125.9088
793.9299	127.7461
794.0772	122.5741
794.2246	125.4529
794.3719	123.2333
794.5193	121.2607
794.6666	119.7459
794.814	119.5434
794.9613	121.2127
795.1086	128.3038
795.2559	122.0477
795.4032	125.6853
795.5505	128.3403
795.6978	122.6846
795.845	123.4813
795.9922	123.2497
796.1395	112.1859
796.2867	111.0618
796.4339	116.3948
796.5811	118.2338
796.7283	117.884
796.8755	119.1426
797.0227	116.0922
797.1699	122.8906
797.317	121.4027
797.4642	121.0095
797.6113	119.9336
797.7584	120.8591
797.9056	120.248
798.0527	123.4184
798.1998	124.9414
798.3469	122.7609
798.494	122.7033
798.641	111.2953
798.7881	116.2616
798.9351	120.5987
799.0822	125.574
799.2292	118.897
799.3762	116.8889
799.5232	111.8273
799.6702	112.5665
799.8172	113.3293
799.9642	104.044
800.1111	108.9707
800.2581	110.6564
800.4051	115.4603
800.552	111.375
800.6989	109.2646
800.8458	116.5857
800.9927	115.1946
801.1396	117.7123
801.2866	115.5051
801.4334	110.5043
801.5803	117.0243
801.7272	119.5006
801.874	112.3537
802.0209	110.9807
802.1677	111.8509
802.3145	112.977
802.4613	110.6915
802.6081	113.4521
802.7549	107.2156
802.9017	109.9937
803.0485	109.6246
803.1952	112.4419
803.342	111.7551
803.4887	103.9612
803.6354	107.0934
803.7822	114.612
803.9289	111.8264
804.0756	107.156
804.2223	108.9222
804.369	107.9261
804.5156	104.1835
804.6623	103.7371
804.8089	105.5585
804.9556	103.1959
805.1022	109.7944
805.2488	109.8252
805.3954	105.8044
805.542	105.8603
805.6886	109.2415
805.8352	106.7225
805.9818	108.0618
806.1283	105.1934
806.2749	115.3176
806.4214	112.8266
806.5679	106.9964
806.7145	103.6482
806.861	102.3362
807.0074	102.7903
807.154	103.969
807.3004	102.9129
807.4469	106.3172
807.5934	103.6912
807.7398	98.76469
807.8862	100.6313
808.0327	103.9685
808.1791	105.2654
808.3255	103.3576
808.4719	103.1638
808.6183	98.35236
808.7647	97.59175
808.9111	94.65401
809.0574	91.1001
809.2037	94.07542
809.3501	96.69494
809.4965	102.4059
809.6428	102.5211
809.7891	94.52392
809.9354	95.67884
810.0817	99.75365
810.2279	99.50773
810.3742	98.8628
810.5204	102.5243
810.6667	98.22422
810.8129	102.6936
810.9592	107.0585
811.1054	96.94735
811.2516	90.83678
811.3978	93.34285
811.5439	92.13806
811.6901	97.48819
811.8363	97.50394
811.9825	96.45335
812.1286	89.28894
812.2748	83.48874
812.4209	93.1756
812.567	93.26247
812.7131	99.06526
812.8592	91.06592
813.0053	86.73286
813.1514	81.74867
813.2974	83.88383
813.4435	78.6157
813.5895	79.45154
813.7356	87.01132
813.8816	85.62763
814.0276	85.79811
814.1736	84.62261
814.3196	77.16139
814.4656	76.3107
814.6116	80.64631
814.7576	79.74275
814.9035	76.9334
815.0494	77.29459
815.1954	72.96243
815.3413	80.78399
815.4872	78.466
815.6331	76.76979
815.779	79.99512
815.9249	77.90663
816.0707	74.32584
816.2166	72.83215
816.3625	72.71192
816.5083	69.11172
816.6542	72.39894
816.8	75.34371
816.9458	76.52177
817.0916	72.05555
817.2374	71.81645
817.3832	81.63541
817.5289	79.17508
817.6747	73.51347
817.8204	63.63057
817.9662	70.47189
818.1119	69.25894
818.2576	68.01688
818.4034	71.35137
818.5491	79.1617
818.6948	76.8914
818.8405	67.88903
818.9861	71.89295
819.1318	70.42818
819.2774	70.21072
819.423	73.91127
819.5687	72.24014
819.7143	70.63222
819.8599	70.96747
820.0055	66.98586
820.1511	69.4972
820.2967	74.36896
820.4422	78.47601
820.5878	77.38371
820.7333	78.90439
820.8788	79.99467
821.0244	73.90318
821.1699	76.33916
821.3154	80.64244
821.4609	79.68884
821.6064	79.98631
821.7519	79.05314
821.8973	79.112
822.0428	71.20968
822.1882	69.98184
822.3337	77.20129
822.4791	73.27612
822.6245	65.70116
822.7699	57.74589
822.9153	49.38441
823.0607	50.04658
823.2061	53.8402
823.3514	57.25254
823.4968	63.10892
823.6422	68.39994
823.7875	73.43092
823.9328	78.16928
824.0781	73.84406
824.2234	74.06895
824.3687	70.43522
824.514	72.4435
824.6592	80.74181
824.8045	76.18685
824.9498	76.58832
825.095	78.92404
825.2402	74.05826
825.3854	71.79204
825.5306	67.99219
825.6758	72.1745
825.821	68.52269
825.9662	68.63546
826.1114	67.68967
826.2565	72.87178
826.4017	75.38475
826.5468	73.34755
826.692	78.85802
826.837	79.57281
826.9822	71.66999
827.1273	69.84367
827.2723	66.80239
827.4174	62.19183
827.5625	69.28819
827.7075	61.63401
827.8526	65.00473
827.9976	68.6173
828.1426	67.22031
828.2877	70.91632
828.4327	73.04026
828.5776	68.03436
828.7227	66.10645
828.8676	64.59462
829.0126	63.07251
829.1575	65.11531
829.3024	64.78662
829.4474	65.61922
829.5923	69.95022
829.7372	64.70341
829.8821	67.54768
830.027	72.83804
830.1719	71.12359
830.3168	69.61458
830.4616	63.67678
830.6064	67.1741
830.7513	64.78623
830.8961	68.20292
831.041	67.7002
831.1857	64.56652
831.3306	63.83793
831.4753	64.79823
831.6201	65.2463
831.7649	67.28848
831.9096	64.6366
832.0544	63.40598
832.1991	65.58699
832.3438	66.22495
832.4885	65.93698
832.6332	70.28989
832.778	59.59769
832.9226	60.60958
833.0673	66.51171
833.2119	63.16907
833.3566	67.38208
833.5012	66.03296
833.6459	64.00515
833.7905	65.49299
833.9351	63.08343
834.0797	62.20102
834.2243	64.15346
834.3688	69.75856
834.5134	66.07204
834.658	66.36678
834.8026	61.54089
834.9471	68.98666
835.0916	68.56926
835.2361	66.87978
835.3806	62.08715
835.5251	69.33224
835.6696	67.03022
835.8141	67.86038
835.9586	65.46439
836.103	68.8059
836.2474	62.72508
836.3918	65.13789
836.5363	60.59855
836.6807	67.06749
836.8251	62.93764
836.9695	65.45067
837.1138	66.05476
837.2582	67.26574
837.4026	66.14159
837.5469	65.73499
837.6913	61.50003
837.8356	66.897
837.9799	67.08588
838.1242	69.80234
838.2686	69.48527
838.4128	71.72761
838.5571	66.70164
838.7014	68.06619
838.8456	68.19656
838.9899	62.65912
839.1341	61.45395
839.2783	74.14838
839.4225	74.61798
839.5667	62.99482
839.7109	66.18716
839.8551	71.57751
839.9993	67.9997
840.1434	67.25733
840.2876	67.40751
840.4317	70.18842
840.5759	65.54446
840.72	62.25855
840.8641	61.34254
841.0082	61.38776
841.1523	61.40649
841.2963	66.46257
841.4404	66.95028
841.5845	65.19679
841.7285	64.74811
841.8726	63.38249
842.0165	62.5817
842.1606	67.11526
842.3046	68.4037
842.4485	68.73272
842.5925	60.01639
842.7365	60.70551
842.8805	68.23527
843.0244	68.00648
843.1684	66.65928
843.3123	63.50363
843.4562	66.20702
843.6002	60.26941
843.744	62.16106
843.8879	67.06356
844.0318	59.75915
844.1757	62.85023
844.3195	66.70792
844.4634	63.55241
844.6072	65.7457
844.751	68.24938
844.8948	62.1743
845.0386	59.97406
845.1824	60.31701
845.3262	66.75531
845.47	69.02609
845.6138	66.59013
845.7575	66.48215
845.9012	67.65485
846.045	59.49286
846.1887	62.16101
846.3324	59.77358
846.4761	61.52872
846.6198	62.22103
846.7635	63.11922
846.9071	61.71165
847.0508	57.27303
847.1944	58.72756
847.3381	60.55697
847.4817	67.54297
847.6253	65.53873
847.7689	64.2973
847.9125	56.9892
848.0561	63.07753
848.1996	60.34887
848.3432	61.23099
848.4868	63.42232
848.6303	55.4647
848.7738	59.19006
848.9174	62.95693
849.0609	59.27242
849.2043	62.06459
849.3478	57.94595
849.4913	56.25627
849.6348	54.0458
849.7782	51.79082
849.9217	47.29871
850.0651	50.55135
850.2086	55.42716
850.3519	55.68915
850.4954	56.72554
850.6387	63.02392
850.7821	64.80526
850.9255	62.11754
851.0688	63.53745
851.2122	54.19029
851.3555	59.61636
851.4988	56.98047
851.6422	54.73682
851.7855	58.95555
851.9288	60.29332
852.0721	59.86641
852.2153	57.07394
852.3586	57.95033
852.5018	56.71219
852.6451	57.24723
852.7883	51.53364
852.9315	56.86444
853.0748	56.62095
853.218	59.78424
853.3611	59.75265
853.5043	54.16044
853.6475	56.40302
853.7906	48.57286
853.9338	44.0518
854.0769	41.02511
854.22	35.86975
854.3632	38.18155
854.5063	44.22696
854.6494	39.57633
854.7924	52.34695
854.9355	59.0222
855.0786	63.01144
855.2216	59.65132
855.3647	55.1695
855.5077	52.37421
855.6507	53.77362
855.7937	54.67257
855.9367	53.52142
856.0797	52.70606
856.2227	54.03426
856.3657	56.22234
856.5086	53.41359
856.6516	53.32436
856.7945	55.98465
856.9374	56.38881
857.0803	54.50095
857.2232	57.49726
857.3661	52.1272
857.509	54.3406
857.6519	45.16496
857.7947	50.51677
857.9376	54.08046
858.0804	54.77388
858.2232	56.42837
858.366	56.05896
858.5089	52.13114
858.6516	54.3354
858.7944	57.35812
858.9372	57.16922
859.08	56.34405
859.2227	53.89758
859.3654	46.40006
859.5082	45.95174
859.6509	53.86995
859.7936	48.72462
859.9363	51.6783
860.079	54.56799
860.2217	55.77484
860.3643	51.5739
860.507	54.90324
860.6496	55.12276
860.7922	52.64141
860.9349	48.74442
861.0775	49.54404
861.2201	51.06877
861.3627	54.75456
861.5052	52.00402
861.6478	55.92244
861.7904	52.03716
861.9329	45.56117
862.0755	53.0908
862.218	54.98677
862.3605	50.86553
862.503	54.60262
862.6455	51.47614
862.788	52.73341
862.9305	57.64513
863.0729	54.83131
863.2154	56.60411
863.3578	48.97934
863.5002	53.02243
863.6426	51.72422
863.7851	49.29908
863.9275	48.90234
864.0698	49.1467
864.2122	46.12079
864.3546	52.11158
864.4969	49.32581
864.6393	54.2346
864.7816	46.40488
864.924	46.88563
865.0662	46.01702
865.2086	47.16833
865.3508	48.30426
865.4931	49.06308
865.6354	47.00954
865.7776	52.28508
865.9199	44.7841
866.0621	43.06852
866.2043	40.42945
866.3466	34.52316
866.4888	33.68231
866.6309	38.73235
866.7731	44.44384
866.9153	45.55158
867.0574	43.49028
867.1996	46.10421
867.3417	44.90081
867.4839	45.11388
867.626	51.38069
867.7681	52.72539
867.9102	47.52088
868.0522	49.30499
868.1943	50.49589
868.3364	51.91673
868.4785	46.46919
868.6205	44.84638
868.7625	40.36979
868.9045	48.65243
869.0465	47.04884
869.1885	45.86651
869.3305	47.65619
869.4725	48.51305
869.6144	46.08602
869.7564	46.54786
869.8983	47.12569
870.0403	45.97239
870.1822	44.19048
870.3241	47.04212
870.466	47.52843
870.6079	48.86629
870.7498	46.77641
870.8916	46.05221
871.0335	44.35169
871.1754	44.73191
871.3171	42.59021
871.459	46.93483
871.6008	44.56269
871.7426	43.45289
871.8844	44.41679
872.0262	41.04727
872.1679	45.12931
872.3097	49.21227
872.4514	51.37454
872.5931	46.37299
872.7349	41.36265
872.8766	38.33968
873.0183	44.96321
873.16	42.90715
873.3017	39.74799
873.4434	46.62385
873.585	42.72812
873.7266	41.94216
873.8683	42.40271
874.0099	46.31904
874.1516	48.99158
874.2932	44.69047
874.4348	44.8735
874.5763	41.70569
874.7179	42.17401
874.8594	41.35639
875.001	41.0304
875.1425	40.62145
875.2841	41.00347
875.4256	38.73285
875.5671	41.05947
875.7086	40.34752
875.85	40.22887
875.9915	42.53273
876.133	45.2784
876.2744	41.69185
876.4159	38.98836
876.5573	37.13498
876.6987	36.4799
876.8401	35.24794
876.9815	37.51382
877.1229	40.96347
877.2643	45.70402
877.4056	47.32026
877.547	44.6972
877.6884	38.40572
877.8297	36.32788
877.971	38.4839
878.1123	39.6286
878.2536	46.35672
878.3949	42.32217
878.5362	45.94766
878.6774	42.96557
878.8187	38.43436
878.9599	42.12957
879.1011	40.08068
879.2424	34.12698
879.3836	36.81973
879.5248	39.31101
879.666	40.30161
879.8071	37.89322
879.9483	37.67496
880.0895	39.08056
880.2306	36.96353
880.3718	39.61835
880.5129	36.30222
880.654	40.50098
880.7951	39.84594
880.9362	32.14801
881.0773	37.77932
881.2183	41.75854
881.3594	44.7809
881.5004	38.33306
881.6414	38.31794
881.7825	37.41235
881.9235	36.97186
882.0645	37.1924
882.2054	39.13164
882.3464	38.7743
882.4874	30.98511
882.6284	36.00357
882.7693	38.52516
882.9103	39.68345
883.0512	40.46717
883.1921	36.93198
883.333	36.88556
883.4739	36.31202
883.6147	38.61157
883.7556	33.08163
883.8965	31.11894
884.0374	36.46105
884.1782	38.22569
884.319	38.69479
884.4598	38.09621
884.6006	39.45929
884.7414	39.97712
884.8822	34.77975
885.0229	35.24432
885.1637	39.51456
885.3044	39.41261
885.4452	42.3967
885.5859	40.06231
885.7266	31.7364
885.8673	38.06572
886.008	39.24693
886.1487	38.43147
886.2894	39.98677
886.43	35.42238
886.5707	37.33411
886.7113	37.07813
886.8519	35.95681
886.9926	37.69026
887.1331	36.91322
887.2737	35.5368
887.4143	37.70957
887.5549	35.02271
887.6954	33.16492
887.836	35.53961
887.9765	36.70082
888.1171	34.24353
888.2576	35.19354
888.3981	36.25669
888.5386	36.40215
888.679	36.35838
888.8195	35.57421
888.96	40.05981
889.1004	35.40998
889.2408	34.02006
889.3813	35.22025
889.5217	32.26588
889.6621	38.12224
889.8025	33.85625
889.9429	37.3574
890.0833	40.41366
890.2236	37.56557
890.364	33.55106
890.5043	33.85066
890.6446	39.50808
890.7849	38.9496
890.9252	38.97035
891.0655	36.14663
891.2058	33.73798
891.3461	36.17995
891.4863	38.32928
891.6266	32.11354
891.7668	31.02397
891.907	36.07031
892.0472	38.39338
892.1874	32.10989
892.3276	33.52141
892.4678	35.23808
892.608	31.82922
892.7481	31.66068
892.8883	37.36603
893.0284	29.92398
893.1685	31.2606
893.3087	30.85761
893.4487	33.71407
893.5889	32.36344
893.7289	32.92371
893.869	34.11011
894.009	33.78119
894.1491	33.16396
894.2891	31.08061
894.4291	33.35104
894.5692	34.75199
894.7092	32.8824
894.8491	29.15811
894.9891	32.35227
895.1291	30.55448
895.269	27.99826
895.409	28.11871
895.549	31.90858
895.6888	30.02727
895.8288	28.40392
895.9687	31.37668
896.1086	29.42192
896.2484	27.40621
896.3883	20.71694
896.5281	20.31191
896.668	26.17963
896.8079	28.09539
896.9476	28.71866
897.0875	30.11472
897.2272	30.28305
897.3671	22.97674
897.5068	25.28444
897.6466	24.96356
897.7864	22.56717
897.9261	23.96121
898.0658	22.82343
898.2056	27.69147
898.3453	30.44868
898.4849	24.99139
898.6246	30.85946
898.7643	24.33409
898.904	21.10858
899.0436	16.49197
899.1833	18.25711
899.3229	21.5287
899.4625	27.32156
899.6021	28.2678
899.7417	26.42948
899.8813	28.37411
900.0209	27.90179
900.1605	20.44563
900.3	23.2361
900.4395	22.70426
900.579	21.65067
900.7186	22.10968
900.8581	18.58394
900.9976	22.63766
901.1371	26.55181
901.2766	23.19714
901.416	23.13938
901.5555	27.48579
901.6949	26.64268
901.8344	24.47655
901.9738	26.33436
902.1132	29.91883
902.2526	26.58294
902.3919	27.23034
902.5313	28.66721
902.6707	21.79583
