SPECTRUM DATA FILE
SpectrumCount:	1
PixelCount:	3648
UserName:	ToughBook User
SampleName:	
LightSource:	
Comments:	
DeviceName:	Qwave
DeviceManufacturer:	Broadcom
DeviceSerialNo:	11311

Name:	last spectrum
Date:	2024-05-02T14:41:03.5061486+02:00
ExposureTime:	0.02
TemporalAvg:	1
IntensityUnit:	normalizedCounts
CCDLoadLevel:	0.919889
Temperature:	30.95038
DiagramColor:	200
ProcessingSteps:	335

Wavelength [nm]	Intensity1
334.421	171.7345
334.5891	167.2978
334.7573	166.1225
334.9254	167.3976
335.0935	174.7014
335.2616	175.3969
335.4297	178.0592
335.5978	171.2087
335.7659	157.9926
335.934	142.8135
336.1021	141.0732
336.2701	145.225
336.4382	144.3037
336.6063	154.6644
336.7744	152.4783
336.9424	142.6746
337.1105	136.9611
337.2785	142.7733
337.4466	159.3537
337.6146	170.4604
337.7827	167.5676
337.9507	167.733
338.1187	165.8596
338.2867	174.8272
338.4548	169.9695
338.6228	180.9763
338.7908	185.1462
338.9588	174.6922
339.1268	171.5083
339.2948	176.3331
339.4628	170.7841
339.6308	185.4666
339.7988	206.1003
339.9667	210.4958
340.1347	210.645
340.3027	209.2426
340.4707	195.5473
340.6386	189.8969
340.8066	189.8016
340.9745	191.743
341.1425	187.7805
341.3104	186.5754
341.4784	188.8317
341.6463	196.7336
341.8142	200.1748
341.9821	217.6243
342.1501	218.478
342.318	206.2138
342.4859	198.6792
342.6538	215.8639
342.8217	222.2242
342.9896	221.2805
343.1575	227.83
343.3254	221.6622
343.4933	207.7321
343.6612	201.143
343.829	190.4996
343.9969	173.4818
344.1648	156.7812
344.3326	155.4041
344.5005	168.1134
344.6683	195.9749
344.8362	214.2053
345.004	227.1152
345.1719	224.1815
345.3397	222.622
345.5075	223.419
345.6754	213.8921
345.8432	207.8947
346.011	205.5203
346.1788	202.2514
346.3466	211.7553
346.5144	218.5032
346.6822	225.5196
346.85	227.2002
347.0178	228.6025
347.1856	223.2755
347.3534	211.2862
347.5211	197.8859
347.6889	201.9896
347.8567	208.4786
348.0244	215.8496
348.1922	229.2683
348.3599	228.1951
348.5277	220.9451
348.6954	219.4594
348.8632	221.9486
349.0309	214.0038
349.1986	202.1795
349.3663	211.4628
349.5341	221.936
349.7018	236.0197
349.8695	247.9681
350.0372	263.8405
350.2049	279.4837
350.3726	292.018
350.5403	284.5621
350.7079	273.8304
350.8756	275.4145
351.0433	263.4343
351.211	254.0703
351.3786	254.2789
351.5463	265.8748
351.714	278.7783
351.8816	284.8202
352.0493	283.0457
352.2169	241.0594
352.3846	231.5536
352.5522	229.6435
352.7198	247.6422
352.8875	270.2408
353.0551	284.4264
353.2227	295.3686
353.3903	302.34
353.5579	306.2604
353.7255	308.9313
353.8931	318.8637
354.0607	329.843
354.2283	325.0271
354.3958	313.8613
354.5634	323.5204
354.731	330.5485
354.8986	332.5987
355.0661	319.1523
355.2337	308.6196
355.4012	299.6605
355.5688	289.9918
355.7363	299.2769
355.9039	295.412
356.0714	301.236
356.239	307.7363
356.4065	299.3434
356.574	265.7429
356.7415	240.0753
356.909	235.159
357.0765	239.7274
357.244	246.7141
357.4115	272.2203
357.579	279.9754
357.7465	263.6475
357.914	237.6326
358.0815	211.8669
358.249	199.9102
358.4164	203.6457
358.5839	206.0462
358.7513	220.146
358.9188	256.8857
359.0862	294.7328
359.2537	323.3274
359.4211	350.4256
359.5886	362.5525
359.756	371.1167
359.9234	370.8612
360.0909	363.9084
360.2583	346.244
360.4257	326.4612
360.5931	301.8753
360.7605	292.0872
360.9279	288.7318
361.0953	303.5372
361.2627	307.6036
361.4301	324.554
361.5974	317.6584
361.7648	302.3224
361.9322	290.993
362.0995	302.9886
362.2669	335.8254
362.4343	383.7184
362.6016	409.4291
362.769	402.2498
362.9363	378.5158
363.1036	341.0742
363.271	319.3351
363.4383	326.5104
363.6056	359.8857
363.7729	383.4435
363.9402	401.1961
364.1075	404.4659
364.2748	395.9497
364.4421	377.48
364.6094	347.4509
364.7767	344.7944
364.944	359.3023
365.1113	392.1419
365.2786	423.4558
365.4458	456.3237
365.6131	466.0574
365.7803	470.3934
365.9476	486.3583
366.1148	488.233
366.2821	476.1482
366.4493	466.8767
366.6166	450.8338
366.7838	450.6491
366.951	460.1996
367.1182	467.4398
367.2855	468.2776
367.4527	474.0889
367.6199	464.4094
367.7871	439.2725
367.9543	428.3559
368.1215	426.5222
368.2886	428.9667
368.4558	430.0428
368.623	433.9811
368.7902	437.3117
368.9573	466.3903
369.1245	497.7287
369.2917	513.7283
369.4588	520.7392
369.6259	518.4547
369.7931	523.351
369.9602	544.4374
370.1274	541.4752
370.2945	510.4642
370.4616	464.9243
370.6287	430.7042
370.7958	433.2319
370.963	468.19
371.1301	519.8115
371.2971	571.4582
371.4643	599.7327
371.6313	584.2902
371.7984	525.4244
371.9655	447.9791
372.1326	404.8217
372.2997	416.0862
372.4667	483.0789
372.6338	527.8079
372.8008	521.1526
372.9679	515.3981
373.1349	476.0429
373.3019	415.285
373.469	363.2357
373.636	348.7664
373.803	392.3075
373.9701	454.5337
374.1371	494.9274
374.3041	476.2079
374.4711	446.4919
374.6381	389.3452
374.8051	370.0276
374.9721	389.7516
375.1391	458.9828
375.3061	532.5731
375.473	587.5716
375.64	585.5874
375.8069	534.3651
375.9739	503.5047
376.1409	515.1121
376.3078	527.5512
376.4748	529.9437
376.6417	535.8739
376.8087	540.4272
376.9756	553.7107
377.1425	585.4984
377.3094	630.0287
377.4763	655.0525
377.6432	677.9833
377.8102	691.0153
377.9771	706.2861
378.144	734.9185
378.3109	737.6378
378.4777	719.6473
378.6446	662.3082
378.8115	614.118
378.9784	580.8723
379.1452	578.8169
379.3121	571.1701
379.4789	557.6391
379.6458	539.8239
379.8127	540.3821
379.9795	554.1875
380.1463	621.1304
380.3131	684.8217
380.48	711.7921
380.6468	707.1874
380.8136	695.4178
380.9804	698.8382
381.1472	703.2019
381.314	661.7086
381.4808	597.6418
381.6476	551.3369
381.8144	549.5455
381.9812	530.696
382.148	521.2971
382.3147	504.7462
382.4815	480.975
382.6483	439.6709
382.815	420.6084
382.9818	422.0213
383.1485	419.0475
383.3153	409.1017
383.482	412.5324
383.6487	420.8062
383.8155	427.05
383.9822	444.7021
384.1489	498.2381
384.3156	590.9224
384.4823	656.5819
384.649	680.7264
384.8157	684.1644
384.9824	683.8107
385.1491	674.696
385.3158	664.8416
385.4825	646.3431
385.6491	599.5875
385.8158	558.4904
385.9825	536.705
386.1491	589.3325
386.3157	671.1725
386.4824	715.5224
386.649	714.0331
386.8157	667.6216
386.9823	615.9513
387.1489	589.8809
387.3156	609.9468
387.4821	662.5887
387.6488	698.9989
387.8154	670.0751
387.982	632.0406
388.1486	611.9749
388.3152	618.2332
388.4818	628.2432
388.6483	625.8484
388.8149	628.4587
388.9815	653.7981
389.148	730.4825
389.3146	793.1816
389.4811	809.2667
389.6477	829.0486
389.8142	841.4656
389.9808	840.8989
390.1473	833.379
390.3138	804.0121
390.4804	782.002
390.6469	796.8463
390.8134	844.3063
390.9799	911.1403
391.1464	971.7839
391.3129	976.6974
391.4794	969.2757
391.6459	935.0682
391.8124	894.9419
391.9789	846.37
392.1453	808.4478
392.3118	788.7069
392.4782	763.2142
392.6447	701.0481
392.8112	585.8301
392.9776	472.8859
393.144	373.8725
393.3105	308.2108
393.4769	300.5917
393.6433	368.3582
393.8098	489.394
393.9762	605.6487
394.1426	691.7877
394.309	740.8183
394.4754	794.9111
394.6418	866.6654
394.8082	946.5096
394.9746	994.8923
395.141	1013.884
395.3073	1031.083
395.4737	1030.21
395.64	1025.753
395.8064	1024.778
395.9728	962.9888
396.1391	848.9457
396.3055	723.895
396.4718	601.191
396.6381	497.3794
396.8045	403.9477
396.9708	381.1216
397.1371	468.854
397.3034	611.3519
397.4697	759.5533
397.636	900.7536
397.8023	1030.548
397.9686	1124.103
398.1349	1197.038
398.3012	1204.287
398.4675	1195.799
398.6337	1222.598
398.8	1262.142
398.9662	1304.708
399.1325	1321.333
399.2988	1328.548
399.465	1332.546
399.6313	1312.962
399.7975	1306.611
399.9637	1357.188
400.1299	1403.884
400.2961	1400.085
400.4624	1350.639
400.6286	1314.476
400.7948	1331.219
400.961	1392.662
401.1272	1453.957
401.2934	1467.443
401.4595	1476.085
401.6257	1469.221
401.7919	1469.913
401.9581	1484.822
402.1242	1505.474
402.2904	1521.816
402.4565	1515.847
402.6227	1530.698
402.7888	1520.991
402.955	1480.367
403.1211	1405.528
403.2872	1334.935
403.4533	1359.672
403.6194	1463.149
403.7856	1565.978
403.9517	1607.594
404.1177	1592.739
404.2838	1516.693
404.4499	1402.664
404.616	1328.291
404.7821	1381.251
404.9482	1528.051
405.1142	1613.112
405.2803	1592.818
405.4464	1552.14
405.6124	1504.086
405.7784	1497.201
405.9445	1506.733
406.1105	1492.962
406.2766	1463.652
406.4426	1430.812
406.6086	1432.432
406.7746	1521.861
406.9406	1589.392
407.1066	1573.169
407.2726	1573.003
407.4386	1580.059
407.6046	1557.127
407.7706	1518.371
407.9366	1551.402
408.1025	1672.904
408.2685	1738.759
408.4344	1730.288
408.6004	1725.943
408.7664	1794.307
408.9323	1853.155
409.0983	1872.798
409.2642	1823.561
409.4301	1766.32
409.596	1697.793
409.762	1641.152
409.9279	1539.885
410.0938	1433.443
410.2597	1377.709
410.4256	1461.628
410.5915	1610.894
410.7574	1726.244
410.9232	1757.565
411.0891	1787.062
411.255	1825.675
411.4209	1885.945
411.5867	1927.443
411.7526	1920.824
411.9184	1869.391
412.0843	1857.274
412.2501	1866.766
412.4159	1881.75
412.5818	1876.182
412.7476	1858.105
412.9134	1833.766
413.0792	1799.504
413.245	1727.502
413.4108	1739.771
413.5766	1823.726
413.7424	1928.795
413.9082	1995.43
414.074	1977.092
414.2397	1871.799
414.4055	1786.923
414.5713	1796.683
414.737	1878.349
414.9028	1905.831
415.0685	1912.092
415.2343	1878.078
415.4	1841.22
415.5658	1822.309
415.7315	1833.929
415.8972	1893.534
416.0629	1974.583
416.2286	2059.378
416.3943	2078.125
416.56	2054.548
416.7257	2013.572
416.8914	1970.898
417.0571	1931.165
417.2228	1866.132
417.3884	1829.189
417.5541	1840.841
417.7198	1885.911
417.8854	1940.049
418.0511	1956.178
418.2167	1947.825
418.3824	1942.479
418.548	1924.971
418.7136	1927.625
418.8792	1928.746
419.0449	1981.513
419.2105	2077.88
419.3761	2125.398
419.5417	2080.116
419.7073	1966.827
419.8729	1884.424
420.0385	1888.977
420.204	1922.588
420.3696	2009.287
420.5352	2100.139
420.7007	2206.921
420.8663	2250.259
421.0319	2269.007
421.1974	2279.705
421.3629	2264.597
421.5285	2214.724
421.694	2170.921
421.8595	2201.552
422.0251	2286.168
422.1906	2265.658
422.3561	2145.867
422.5216	1924.304
422.6871	1760.528
422.8526	1833.574
423.0181	2071.41
423.1835	2238.878
423.349	2233.343
423.5145	2141.384
423.68	2084.282
423.8454	2077.669
424.0109	2127.944
424.1763	2218.297
424.3418	2263.473
424.5072	2289.807
424.6726	2252.394
424.838	2151.807
425.0035	2075.899
425.1689	2102.307
425.3343	2165.672
425.4997	2193.762
425.6651	2201.929
425.8305	2168.619
425.9959	2095.116
426.1613	2059.963
426.3267	2181.087
426.492	2322.924
426.6574	2358.946
426.8228	2296.548
426.9881	2102.248
427.1534	1898.185
427.3188	1856.937
427.4841	1925.905
427.6495	2101.189
427.8148	2223.577
427.9801	2240.156
428.1454	2213.268
428.3107	2201.81
428.476	2186.306
428.6414	2132.579
428.8066	2047.442
428.9719	1996.022
429.1372	1998.307
429.3025	2056.288
429.4678	2100.832
429.633	2039.65
429.7983	1864.856
429.9636	1655.019
430.1288	1551.353
430.294	1549.737
430.4593	1607.984
430.6245	1597.812
430.7897	1527.818
430.955	1497.715
431.1202	1563.143
431.2854	1779.557
431.4506	2061.703
431.6158	2394.587
431.781	2626.621
431.9462	2714.517
432.1114	2617.287
432.2766	2383.253
432.4417	2110.973
432.6069	1989.952
432.772	2155.787
432.9372	2447.435
433.1024	2617.101
433.2675	2651.517
433.4326	2623.822
433.5977	2552.094
433.7629	2314.013
433.928	2036.83
434.0931	1895.753
434.2582	2006.289
434.4233	2252.234
434.5884	2491.573
434.7535	2609.345
434.9186	2674.55
435.0837	2590.626
435.2488	2468.066
435.4138	2440.234
435.5789	2529.635
435.744	2642.186
435.909	2698.616
436.0741	2743.257
436.2391	2800.854
436.4042	2875.395
436.5692	2874.773
436.7342	2850.713
436.8992	2788.313
437.0643	2728.182
437.2293	2696.837
437.3943	2610.53
437.5593	2572.763
437.7243	2606.543
437.8893	2715.96
438.0542	2708.157
438.2192	2495.246
438.3842	2223.559
438.5491	2170.785
438.7141	2328.796
438.8791	2545.305
439.044	2616.595
439.209	2624.207
439.3739	2667.105
439.5388	2751.405
439.7037	2799.485
439.8687	2813.021
440.0336	2797.835
440.1985	2709.653
440.3634	2602.244
440.5283	2535.603
440.6932	2570.65
440.8581	2712.356
441.0229	2886.309
441.1878	3012.287
441.3527	3010.064
441.5175	2887.892
441.6824	2814.031
441.8472	2927.397
442.0121	3071.927
442.1769	3096.019
442.3418	3034.945
442.5066	3009.489
442.6714	3030.147
442.8362	3068.103
443.001	3052.25
443.1659	3046.333
443.3307	2976.778
443.4955	2916.489
443.6602	2938.465
443.825	3070.18
443.9898	3148.781
444.1546	3097.072
444.3193	3019.231
444.4841	3054.695
444.6488	3178.479
444.8136	3228.503
444.9783	3195.95
445.1431	3187.924
445.3078	3113.347
445.4725	2974.052
445.6372	2846.939
445.802	2807.857
445.9667	2847.296
446.1314	2872.861
446.2961	2953.725
446.4608	3073.778
446.6255	3184.387
446.7901	3187.155
446.9548	3157.387
447.1195	3187.694
447.2841	3303.015
447.4488	3409.795
447.6134	3441.3
447.7781	3450.118
447.9427	3356.483
448.1074	3223.831
448.272	3188.032
448.4366	3303.611
448.6012	3449.636
448.7658	3485.381
448.9305	3379.613
449.095	3315.023
449.2596	3326.64
449.4242	3369.328
449.5888	3382.976
449.7534	3423.433
449.9179	3484.982
450.0825	3522.523
450.2471	3576.495
450.4116	3668.546
450.5762	3740.414
450.7407	3773.819
450.9052	3767
451.0698	3744.22
451.2343	3667.611
451.3988	3626.095
451.5633	3584.594
451.7278	3577.249
451.8923	3577.251
452.0568	3638.246
452.2213	3638.933
452.3858	3562.003
452.5503	3456.857
452.7148	3330.827
452.8792	3213.613
453.0437	3209.18
453.2081	3267.83
453.3726	3293.873
453.537	3329.64
453.7015	3431.009
453.8659	3586.567
454.0303	3664.88
454.1947	3634.561
454.3592	3612.264
454.5236	3602.911
454.688	3551.547
454.8524	3446.122
455.0168	3420.586
455.1811	3439.002
455.3455	3456.319
455.5099	3474.114
455.6743	3514.385
455.8386	3609.888
456.003	3723.385
456.1673	3752.481
456.3317	3693.072
456.496	3607.774
456.6603	3598.61
456.8246	3661.219
456.989	3710.236
457.1533	3669.754
457.3176	3648.626
457.4819	3709.642
457.6462	3759.818
457.8105	3717.438
457.9748	3615.833
458.1391	3505.225
458.3033	3451.528
458.4676	3453.174
458.6319	3495.842
458.7961	3576.639
458.9604	3646.461
459.1246	3661.917
459.2888	3604.79
459.4531	3536.731
459.6173	3546.386
459.7815	3565.487
459.9457	3567.676
460.11	3588.294
460.2741	3587.119
460.4384	3599.746
460.6025	3667.843
460.7667	3732.993
460.9309	3794.518
461.0951	3806.475
461.2592	3758.819
461.4234	3749.059
461.5876	3772.526
461.7517	3765.592
461.9159	3753.052
462.08	3792.876
462.2441	3827.826
462.4082	3851.193
462.5724	3830.497
462.7365	3822.245
462.9006	3834.155
463.0647	3865.065
463.2288	3844.628
463.3929	3840.298
463.557	3815.869
463.721	3747.917
463.8851	3728.045
464.0492	3744.841
464.2132	3802.509
464.3773	3807.085
464.5414	3726.276
464.7054	3630.063
464.8694	3598.669
465.0334	3672.014
465.1975	3791.415
465.3615	3849.533
465.5255	3814.625
465.6895	3783.806
465.8535	3909.718
466.0175	4004.354
466.1815	3987.51
466.3455	3906.896
466.5095	3768.943
466.6734	3601.509
466.8374	3532.921
467.0014	3605.663
467.1653	3760.189
467.3293	3873.847
467.4932	3919.417
467.6571	3967.26
467.8211	3940.271
467.985	3868.451
468.1489	3823.298
468.3128	3865.095
468.4767	3936.034
468.6406	3984.038
468.8045	3980.624
468.9684	3980.427
469.1323	3947.804
469.2962	3942.213
469.46	3984.57
469.6239	4016.542
469.7878	3977.229
469.9516	3864.801
470.1154	3765.17
470.2793	3696.647
470.4431	3708.215
470.607	3766.425
470.7708	3792.216
470.9346	3784.302
471.0984	3831.618
471.2622	3908.756
471.426	3916.869
471.5898	3929.889
471.7536	4014.401
471.9174	4123.088
472.0811	4162.449
472.2449	4160.606
472.4087	4158.683
472.5724	4124.337
472.7362	4011.576
472.8999	3870.306
473.0637	3806.637
473.2274	3839.512
473.3911	3912.052
473.5548	3930.296
473.7185	3946.354
473.8822	3973.413
474.0459	4017.368
474.2096	4056.211
474.3733	4069.014
474.537	4092.766
474.7007	4113.478
474.8643	4112.785
475.028	4085.847
475.1917	4019.197
475.3553	3971.421
475.519	3921.467
475.6826	3920.548
475.8463	3978.015
476.0099	4024.591
476.1735	3967.206
476.3371	3880.751
476.5007	3775.669
476.6643	3784.174
476.8279	3863.165
476.9915	3956.573
477.1551	3995.06
477.3187	4024.241
477.4823	4084.055
477.6458	4128.801
477.8094	4156.336
477.9729	4127.409
478.1365	4116.155
478.3	4087.08
478.4636	3989.848
478.6271	3909.818
478.7906	3912.516
478.9541	3917.851
479.1176	3935.294
479.2812	4027.484
479.4447	4129.11
479.6082	4192.489
479.7716	4172.513
479.9351	4070.364
480.0986	4015.341
480.2621	4050.135
480.4255	4081.471
480.589	4061.07
480.7524	4000.675
480.9159	3981.214
481.0793	3999.843
481.2428	4028.071
481.4062	4081.385
481.5696	4141.329
481.733	4186.619
481.8964	4209.398
482.0598	4176.777
482.2232	4104.617
482.3866	4040.722
482.55	4029.366
482.7134	4054.798
482.8768	4122.711
483.0401	4094.484
483.2035	4060.329
483.3668	4051.586
483.5302	4104.206
483.6935	4104.647
483.8568	4040.319
484.0202	3959.975
484.1835	3944.732
484.3468	3975.976
484.5101	4012.488
484.6734	4059.571
484.8367	4076.827
485	4052.588
485.1633	4029.156
485.3266	3975.627
485.4899	3850.723
485.6531	3720.785
485.8164	3507.53
485.9796	3224.032
486.1429	2949.186
486.3061	2907.665
486.4694	3179.564
486.6326	3533.205
486.7958	3712.43
486.959	3733.582
487.1223	3649.536
487.2855	3593.068
487.4486	3679.346
487.6118	3808.158
487.775	3918.032
487.9382	3997.402
488.1014	4033.375
488.2646	4036.94
488.4277	3994.687
488.5909	3915.448
488.754	3834.077
488.9171	3746.289
489.0803	3666.702
489.2434	3710.921
489.4066	3903.296
489.5697	4133.989
489.7328	4246.37
489.8959	4233.562
490.059	4174.508
490.2221	4138.863
490.3852	4102.544
490.5482	4090.71
490.7113	4086.549
490.8744	4057.413
491.0374	3960.264
491.2005	3896.63
491.3636	3959.841
491.5266	4072.027
491.6896	4033.512
491.8527	3805
492.0157	3572.808
492.1787	3516.659
492.3417	3648.112
492.5047	3816.615
492.6677	3963.533
492.8307	4059.867
492.9937	4110.965
493.1567	4120.023
493.3196	4030.91
493.4826	3948.537
493.6456	3893.895
493.8085	3826.263
493.9715	3797.659
494.1344	3883.998
494.2974	4046.656
494.4603	4162.706
494.6232	4144.693
494.7861	4148.774
494.949	4150.396
495.1119	4186.734
495.2748	4181.757
495.4377	4091.348
495.6006	3950.912
495.7635	3799.523
495.9264	3811.628
496.0892	4002.182
496.2521	4199.767
496.4149	4208.003
496.5778	4134.577
496.7407	4075.749
496.9035	4026.052
497.0663	4043.6
497.2291	4116.55
497.3919	4175.268
497.5547	4192.329
497.7176	4168.203
497.8804	4114.577
498.0432	3999.123
498.2059	3848.538
498.3687	3693.361
498.5315	3695.531
498.6942	3872.082
498.857	4054.895
499.0198	4120.911
499.1825	4088.501
499.3452	4101.464
499.508	4130.968
499.6707	4167.083
499.8334	4138.088
499.9962	4063.494
500.1589	3961.059
500.3216	3903.448
500.4843	3865.752
500.6469	3837.227
500.8096	3874.772
500.9723	3971.369
501.135	4014.259
501.2976	3923.087
501.4603	3810.269
501.623	3786.967
501.7856	3812.081
501.9482	3846.272
502.1109	3903.507
502.2735	3991.854
502.4361	4022.03
502.5987	4015.052
502.7614	4035.793
502.924	4065.632
503.0865	4136.889
503.2491	4235.596
503.4117	4217.412
503.5743	4137.08
503.7368	4028.251
503.8994	3895.523
504.062	3796.85
504.2245	3770.187
504.3871	3911.589
504.5496	4135.671
504.7121	4242.46
504.8746	4170.639
505.0372	4078.711
505.1997	4047.184
505.3622	4120.234
505.5247	4225.188
505.6872	4291.446
505.8497	4326.899
506.0121	4364.658
506.1746	4366.509
506.3371	4326.465
506.4995	4219.732
506.662	4141.797
506.8244	4101.659
506.9869	4135.672
507.1493	4136.233
507.3117	4141.973
507.4742	4113.248
507.6366	4115.937
507.799	4093.263
507.9614	3966.946
508.1238	3882.103
508.2862	3914.047
508.4485	4013.252
508.6109	4120.349
508.7733	4185.524
508.9357	4212.397
509.098	4235.12
509.2604	4270.214
509.4227	4252.812
509.5851	4204.176
509.7474	4070.912
509.9097	3939.935
510.072	3908.716
510.2343	4012.632
510.3966	4108.581
510.5589	4112.386
510.7212	4040.936
510.8835	3976.454
511.0458	3961.367
511.2081	4030.154
511.3703	4089.574
511.5326	4152.111
511.6949	4154.734
511.8571	4184.894
512.0193	4164.378
512.1816	4087.944
512.3438	3950.277
512.506	3848.059
512.6682	3804.806
512.8304	3830.254
512.9926	3866.489
513.1548	3888.875
513.317	3889.807
513.4792	3897.33
513.6414	3890.998
513.8035	3828.994
513.9657	3737.249
514.1279	3698.166
514.29	3726.111
514.4521	3760.261
514.6143	3780.108
514.7764	3795.003
514.9385	3791.443
515.1006	3810.612
515.2628	3813.551
515.4249	3829.902
515.587	3870.391
515.7491	3917.72
515.9111	3944.43
516.0732	3921.498
516.2353	3845.231
516.3973	3707.374
516.5594	3469.04
516.7214	3210.63
516.8835	3073.609
517.0455	3072.073
517.2076	3049.736
517.3696	3050.712
517.5316	3275.077
517.6937	3664.052
517.8557	3876.968
518.0176	3831.952
518.1796	3562.187
518.3416	3176.911
518.5036	3028.187
518.6656	3229.584
518.8275	3551.764
518.9895	3727.218
519.1514	3705.331
519.3134	3636.998
519.4753	3633.618
519.6373	3681.052
519.7992	3753.656
519.9611	3840.535
520.123	3900.601
520.2849	3920.346
520.4468	3804.041
520.6087	3695.002
520.7706	3646.842
520.9325	3666.007
521.0944	3782.937
521.2562	3901.667
521.4181	3945.73
521.58	3868.895
521.7418	3809.848
521.9036	3840.29
522.0655	3951.519
522.2273	4022.036
522.3891	3950.992
522.551	3766.667
522.7128	3602.379
522.8746	3614.649
523.0363	3737.445
523.1981	3828.893
523.3599	3810.872
523.5217	3811.977
523.6835	3912.696
523.8452	4029.104
524.007	4086.225
524.1687	4107.996
524.3304	4077.569
524.4922	4066.699
524.6539	4060.197
524.8157	4008.117
524.9774	3955.447
525.1391	3957.226
525.3008	3970.54
525.4625	3967.616
525.6241	3999.062
525.7858	4080.47
525.9475	4102.918
526.1092	4037.216
526.2709	3845.05
526.4325	3629.026
526.5942	3483.364
526.7558	3419.526
526.9174	3404.483
527.079	3449.576
527.2407	3543.848
527.4023	3678.999
527.5639	3786.569
527.7255	3865.367
527.8871	3977.29
528.0487	4013.215
528.2103	3916.686
528.3718	3862.27
528.5334	3936.181
528.695	4056.93
528.8565	4170.48
529.0181	4210.23
529.1796	4187.679
529.3412	4182.93
529.5027	4102.352
529.6642	3984.772
529.8257	3874.055
529.9872	3805.994
530.1487	3851.382
530.3102	3953.43
530.4717	4038.342
530.6332	4080.721
530.7947	4088.251
530.9562	4116.541
531.1176	4139.887
531.2791	4126.722
531.4405	4077.063
531.6019	4022.916
531.7634	3972.272
531.9248	3979.365
532.0862	3978.272
532.2477	3926.961
532.4091	3824.483
532.5704	3690.691
532.7319	3551.084
532.8932	3498.249
533.0546	3553.914
533.216	3703.933
533.3774	3864.551
533.5388	3913.677
533.7001	3889.409
533.8615	3842.825
534.0228	3755.601
534.1841	3697.067
534.3455	3738.225
534.5068	3802.218
534.6681	3813.83
534.8293	3784.986
534.9907	3753.342
535.152	3789.019
535.3132	3827.043
535.4745	3883.57
535.6358	3938.903
535.7971	3970.263
535.9583	3956.108
536.1196	3933.988
536.2808	3862.865
536.4421	3747.124
536.6033	3690.235
536.7645	3669.733
536.9258	3572.6
537.087	3494.922
537.2482	3526.376
537.4094	3597.826
537.5706	3747.369
537.7318	3801.582
537.8929	3794.209
538.0541	3767.042
538.2153	3717.895
538.3764	3677.886
538.5376	3686.426
538.6987	3729.147
538.8599	3726.594
539.021	3694.027
539.1821	3621.277
539.3432	3576.479
539.5043	3570.215
539.6655	3539.143
539.8265	3514.023
539.9876	3531.181
540.1487	3559.561
540.3098	3540.552
540.4708	3429.345
540.6319	3356.839
540.793	3366.359
540.954	3416.59
541.1151	3480.26
541.2761	3521.692
541.4371	3544.186
541.5981	3559.029
541.7592	3608.146
541.9202	3628.253
542.0812	3617.178
542.2422	3590.336
542.4031	3536.723
542.5641	3541.037
542.7251	3570.353
542.886	3564.005
543.0471	3534.299
543.208	3482.45
543.369	3479.214
543.5298	3485.87
543.6908	3515.22
543.8517	3605.852
544.0126	3662.507
544.1736	3730.672
544.3345	3715.573
544.4954	3594.33
544.6563	3492.031
544.8171	3467.403
544.978	3560.429
545.1389	3672.579
545.2997	3673.041
545.4606	3592.465
545.6215	3515.105
545.7823	3536.271
545.9432	3636.386
546.104	3644.287
546.2648	3579.242
546.4256	3527.06
546.5864	3521.191
546.7473	3568.557
546.908	3632.873
547.0688	3646.045
547.2296	3641.614
547.3904	3563.892
547.5511	3503.33
547.7119	3455.69
547.8727	3422.285
548.0334	3456.086
548.1942	3486.308
548.3549	3530.354
548.5156	3603.786
548.6763	3604.863
548.837	3596.379
548.9977	3599.517
549.1584	3587.979
549.3192	3593.866
549.4798	3576.268
549.6405	3564.68
549.8011	3573.348
549.9619	3599.885
550.1225	3573.188
550.2831	3551.82
550.4438	3543.623
550.6044	3546.553
550.765	3533.515
550.9257	3550.7
551.0863	3545.213
551.2469	3525.411
551.4075	3501.127
551.5681	3541.851
551.7287	3583.48
551.8893	3578.903
552.0498	3603.623
552.2104	3607.629
552.371	3605.901
552.5315	3588.159
552.6921	3487.717
552.8526	3409.186
553.0131	3391.58
553.1736	3425.44
553.3342	3477.433
553.4947	3485.095
553.6552	3487.761
553.8157	3497.641
553.9762	3507.278
554.1367	3508.949
554.2971	3513.491
554.4576	3481.805
554.618	3463.531
554.7785	3495.135
554.939	3535.185
555.0994	3536.75
555.2598	3526.108
555.4203	3500.433
555.5807	3444.313
555.7411	3432.394
555.9015	3433.147
556.0619	3434.582
556.2223	3403.374
556.3827	3368.857
556.5431	3328.589
556.7034	3330.831
556.8638	3313.134
557.0242	3293.623
557.1845	3271.097
557.3448	3257.865
557.5052	3273.737
557.6655	3276.432
557.8259	3303.736
557.9861	3328.407
558.1465	3334.352
558.3068	3310.518
558.467	3262.772
558.6274	3165.559
558.7877	3063.152
558.9479	3035.806
559.1082	3088.939
559.2684	3129.939
559.4287	3134.072
559.5889	3173.656
559.7491	3165.537
559.9094	3149.732
560.0696	3104.516
560.2299	3091.92
560.3901	3124.229
560.5502	3185.651
560.7104	3287.704
560.8707	3335.883
561.0308	3333.067
561.191	3316.223
561.3511	3241.006
561.5114	3134.252
561.6714	3063.439
561.8316	3054.664
561.9918	3129.292
562.1519	3176.667
562.312	3160.764
562.4722	3126.007
562.6323	3107.791
562.7924	3146.657
562.9525	3208.345
563.1125	3250.547
563.2726	3227.021
563.4327	3201.778
563.5928	3143.733
563.7528	3124.103
563.9129	3123.257
564.0729	3095.785
564.233	3092.95
564.393	3126.447
564.553	3152.169
564.7131	3172.047
564.873	3194.61
565.0331	3167.397
565.1931	3119.061
565.353	3100.959
565.5131	3105.25
565.673	3051.457
565.833	2988.731
565.9929	2952.146
566.1529	2973.193
566.3129	3000.883
566.4728	3025.393
566.6328	3042.228
566.7927	3051.446
566.9526	3087.228
567.1125	3092.28
567.2724	3120.533
567.4323	3139.324
567.5922	3119.988
567.7521	3109.346
567.9119	3109.975
568.0718	3070.55
568.2317	3030.347
568.3915	3007.44
568.5514	2968.043
568.7112	2939.768
568.871	2963.578
569.0309	2981.71
569.1907	3037.642
569.3505	3078.828
569.5103	3060.17
569.6701	3045.913
569.8299	3018.438
569.9897	3004.235
570.1495	2979.626
570.3092	2976.788
570.469	2972.649
570.6287	2947.976
570.7885	2895.629
570.9482	2841.949
571.108	2801.408
571.2677	2823.408
571.4274	2918.732
571.5871	2963.701
571.7468	2993.152
571.9066	3015.808
572.0662	3022.711
572.2259	3041.236
572.3856	3068.204
572.5452	3055.939
572.7049	3042.32
572.8646	3037.338
573.0242	3034.395
573.1838	3010.034
573.3435	3010.214
573.5031	3014.499
573.6627	3040.13
573.8223	3025.447
573.9819	3019.376
574.1415	2998.295
574.3011	3006.943
574.4607	3003.303
574.6203	3004.661
574.7798	2977.986
574.9394	2961.581
575.099	2919.091
575.2585	2879.309
575.418	2835.032
575.5776	2848.436
575.7371	2874.548
575.8966	2925.893
576.0562	2932.213
576.2156	2897.93
576.3751	2895.804
576.5346	2911.755
576.6941	2949.45
576.8536	2960.066
577.0131	2944.44
577.1725	2932.987
577.332	2915.979
577.4914	2905.651
577.6508	2903.964
577.8103	2907.735
577.9697	2886.816
578.1291	2815.617
578.2885	2766.119
578.4479	2758.495
578.6073	2786.345
578.7667	2816.806
578.9261	2809.614
579.0854	2815.587
579.2448	2818.086
579.4042	2820.537
579.5635	2834.128
579.7229	2831.763
579.8822	2805.37
580.0416	2814.544
580.2009	2834.884
580.3602	2823.428
580.5195	2792.987
580.6788	2794.237
580.8381	2776.395
580.9974	2786.188
581.1566	2806.847
581.3159	2799.669
581.4752	2784.68
581.6345	2771.189
581.7937	2761.471
581.9529	2750.484
582.1122	2768.294
582.2714	2785.97
582.4306	2782.07
582.5898	2776.22
582.749	2764.815
582.9082	2763.446
583.0674	2756.898
583.2266	2755.252
583.3857	2741.682
583.5449	2725.492
583.7041	2713.785
583.8633	2720.777
584.0224	2743.826
584.1815	2731.64
584.3407	2744.56
584.4998	2739.715
584.6589	2711.189
584.818	2685.254
584.9771	2673.059
585.1362	2672.879
585.2953	2651.661
585.4544	2632.352
585.6135	2579.539
585.7725	2559.69
585.9316	2553.045
586.0906	2570.106
586.2497	2577.331
586.4087	2608.044
586.5677	2602.635
586.7267	2601.569
586.8858	2594.938
587.0448	2597.192
587.2038	2608.644
587.3628	2620.97
587.5218	2590.001
587.6807	2582.195
587.8397	2573.788
587.9987	2563.45
588.1577	2541.455
588.3166	2513.044
588.4755	2477.403
588.6345	2441.309
588.7934	2378.548
588.9523	2274.151
589.1112	2197.609
589.2701	2177.42
589.429	2213.562
589.5879	2228.562
589.7468	2230.126
589.9056	2260.4
590.0645	2327.615
590.2234	2386.294
590.3822	2408.982
590.5411	2417.413
590.6999	2430.791
590.8588	2440.904
591.0176	2422.046
591.1764	2431.948
591.3352	2411.382
591.494	2379.949
591.6528	2370.278
591.8116	2371.131
591.9703	2384.91
592.1291	2381.306
592.2878	2374.744
592.4467	2390.946
592.6053	2394.899
592.7641	2404.552
592.9229	2402.249
593.0816	2385.156
593.2403	2387.973
593.399	2392.017
593.5577	2401.074
593.7164	2408.435
593.8751	2405.176
594.0338	2378.081
594.1924	2376.476
594.3511	2363.732
594.5098	2334.114
594.6684	2346.431
594.8271	2330.753
594.9857	2324.491
595.1443	2343.01
595.303	2340.661
595.4615	2356.787
595.6202	2371.21
595.7787	2350.131
595.9374	2343.372
596.0959	2351.443
596.2545	2358.731
596.4131	2376.533
596.5717	2392.893
596.7302	2392.988
596.8887	2380.223
597.0473	2359.404
597.2058	2365.013
597.3644	2378.776
597.5229	2371.534
597.6814	2327
597.8399	2322.321
597.9984	2330.533
598.1569	2340.391
598.3154	2343.352
598.4738	2338.775
598.6323	2318.404
598.7908	2339.481
598.9492	2359.244
599.1076	2355.907
599.2661	2348.438
599.4245	2356.249
599.5829	2368.335
599.7413	2376.931
599.8997	2358.976
600.0581	2327.79
600.2165	2321.244
600.3749	2343.371
600.5333	2328.843
600.6917	2326.851
600.85	2292.18
601.0084	2310.073
601.1667	2318.203
601.325	2306.361
601.4833	2314.049
601.6417	2297.099
601.8	2288.542
601.9583	2274.026
602.1166	2265.874
602.2749	2258.998
602.4332	2279.187
602.5914	2293.922
602.7498	2305.078
602.908	2304.56
603.0662	2327.798
603.2245	2323.98
603.3828	2333.194
603.541	2346.061
603.6992	2345.72
603.8574	2337.312
604.0156	2338.282
604.1738	2324.01
604.332	2334.24
604.4902	2328.975
604.6484	2329.132
604.8065	2330.701
604.9647	2313.635
605.1229	2319.845
605.281	2292.667
605.4391	2286.792
605.5973	2283.521
605.7554	2286.979
605.9135	2299.094
606.0717	2308.636
606.2297	2304.793
606.3878	2295.029
606.5459	2275.226
606.704	2266.22
606.8621	2309.041
607.0201	2332.798
607.1782	2324.219
607.3362	2339.636
607.4943	2330.278
607.6523	2320.758
607.8104	2297.045
607.9684	2262.68
608.1264	2238.118
608.2844	2226.303
608.4424	2237.374
608.6003	2203.627
608.7584	2187.396
608.9163	2184.453
609.0743	2199.142
609.2322	2198.664
609.3902	2199.101
609.5482	2195.018
609.7061	2192.837
609.864	2206.964
610.0219	2188.009
610.1798	2137.071
610.3377	2104.161
610.4956	2102.024
610.6535	2136.718
610.8114	2164.622
610.9693	2181.381
611.1271	2190.053
611.285	2191.72
611.4429	2175.543
611.6007	2172.294
611.7585	2166.876
611.9164	2153.175
612.0742	2131.577
612.232	2112.16
612.3898	2091.721
612.5476	2102.662
612.7054	2131.582
612.8632	2127.06
613.0209	2120.333
613.1787	2125.446
613.3365	2116.397
613.4942	2083.549
613.652	2047.736
613.8097	2011.103
613.9674	1998.999
614.1252	2025.325
614.2829	2057.287
614.4406	2074.922
614.5983	2084.536
614.756	2070.553
614.9136	2059.968
615.0714	2071.964
615.229	2071.779
615.3867	2059.581
615.5443	2048.611
615.702	2022.738
615.8596	2022.681
616.0172	1987.837
616.1748	1941.586
616.3325	1903.305
616.4901	1911.907
616.6476	1951.174
616.8052	1960.997
616.9628	1933.197
617.1204	1943.043
617.278	1956.729
617.4355	1978.142
617.5931	2004.32
617.7506	1995.101
617.9081	1992.244
618.0657	2012.742
618.2232	2022.193
618.3807	2027.932
618.5382	2025.998
618.6957	2013.056
618.8532	1985.439
619.0107	1957.281
619.1682	1958.234
619.3256	1958.448
619.4831	1975.479
619.6406	1993.791
619.798	1994.026
619.9554	1992.357
620.1129	1988.698
620.2703	1980.521
620.4277	1986.36
620.5851	1987.007
620.7425	1988.009
620.8998	1990.913
621.0573	1991.905
621.2146	1964.171
621.372	1941.829
621.5294	1926.759
621.6867	1909.728
621.8441	1883.556
622.0013	1923.559
622.1587	1935.956
622.316	1932.75
622.4733	1940.456
622.6306	1934.739
622.7879	1929.216
622.9452	1912.065
623.1025	1876.186
623.2598	1874.346
623.4171	1884.522
623.5743	1926.86
623.7316	1920.833
623.8888	1895.141
624.046	1885.765
624.2032	1889.477
624.3605	1877.112
624.5176	1844.01
624.6749	1833.104
624.8321	1843.783
624.9893	1869.501
625.1464	1871.479
625.3036	1839.617
625.4608	1802.073
625.6179	1804.078
625.7751	1814.437
625.9322	1821.469
626.0894	1831.409
626.2465	1851.762
626.4036	1868.992
626.5607	1870.106
626.7178	1862.33
626.8749	1873.72
627.032	1866.229
627.189	1876.294
627.3461	1875.221
627.5032	1847.085
627.6602	1794.034
627.8173	1744.427
627.9743	1725.476
628.1313	1743.062
628.2884	1765.056
628.4454	1781.262
628.6024	1790.289
628.7594	1836.901
628.9164	1841.918
629.0734	1823.277
629.2303	1802.059
629.3873	1808.221
629.5443	1795.13
629.7012	1771.407
629.8582	1765.8
630.0151	1738.991
630.172	1729.529
630.3289	1717.285
630.4858	1749.422
630.6428	1791.86
630.7996	1812.588
630.9565	1811.371
631.1134	1798.505
631.2703	1785.032
631.4272	1778.041
631.584	1749.317
631.7408	1719.495
631.8977	1716.529
632.0546	1724.244
632.2114	1744.724
632.3682	1777.036
632.525	1791.51
632.6818	1792.843
632.8386	1805.503
632.9954	1783.541
633.1522	1777.739
633.3089	1782.511
633.4657	1763.443
633.6224	1737.197
633.7792	1723.255
633.9359	1728.234
634.0927	1739.94
634.2494	1747.213
634.4061	1745.531
634.5628	1745.988
634.7195	1757.845
634.8762	1763.732
635.0329	1781.876
635.1895	1770.708
635.3462	1758.317
635.5029	1741.447
635.6595	1737.139
635.8162	1736.445
635.9728	1715.134
636.1295	1696.781
636.2861	1680.009
636.4427	1706.427
636.5992	1713.148
636.7559	1721.893
636.9124	1735.328
637.069	1736.07
637.2256	1742.089
637.3821	1756.228
637.5387	1750.305
637.6953	1741.615
637.8518	1728.542
638.0084	1714.019
638.1649	1711.312
638.3214	1715.587
638.4779	1715.412
638.6344	1708.992
638.7909	1724.011
638.9474	1717.005
639.1038	1702.95
639.2603	1681.269
639.4167	1674.858
639.5732	1671.722
639.7297	1664.865
639.8861	1651.963
640.0425	1634.457
640.199	1631.341
640.3553	1653.52
640.5118	1667.536
640.6682	1660.294
640.8245	1638.083
640.981	1624.114
641.1373	1623.752
641.2936	1635.685
641.45	1619.577
641.6064	1618.683
641.7627	1616.18
641.9191	1606.885
642.0754	1592.662
642.2317	1590.678
642.388	1612.055
642.5443	1624.204
642.7006	1634.811
642.8569	1629.489
643.0131	1615.84
643.1694	1595.942
643.3257	1594.828
643.4819	1588.541
643.6382	1593.98
643.7944	1575.942
643.9506	1567.051
644.1069	1569.706
644.2631	1583.777
644.4193	1587.546
644.5754	1585.379
644.7316	1582.527
644.8878	1574.78
645.044	1549.851
645.2002	1549.13
645.3563	1555.355
645.5125	1548.54
645.6686	1539.994
645.8248	1537.211
645.9809	1526.167
646.137	1514.853
646.2931	1496.688
646.4492	1495.008
646.6053	1491.077
646.7614	1507.446
646.9174	1523.481
647.0735	1514.46
647.2296	1496.452
647.3856	1490.791
647.5417	1472.491
647.6977	1464.368
647.8537	1472.395
648.0098	1480.008
648.1658	1458.019
648.3218	1446.156
648.4777	1453.793
648.6337	1464.967
648.7897	1482.212
648.9457	1491.369
649.1016	1476.501
649.2576	1439.798
649.4135	1383.251
649.5695	1347.012
649.7254	1353.273
649.8813	1392.465
650.0372	1419.26
650.1932	1439.628
650.3491	1462.449
650.5049	1471.32
650.6608	1478.428
650.8167	1483.334
650.9725	1488.847
651.1284	1479.894
651.2842	1463.232
651.4401	1439.525
651.5959	1415.265
651.7518	1390.352
651.9076	1389.26
652.0634	1398.18
652.2192	1431.743
652.3749	1449.458
652.5308	1435.024
652.6865	1427.535
652.8423	1440.621
652.998	1441.83
653.1538	1444.1
653.3096	1437.5
653.4653	1427.577
653.621	1416.995
653.7767	1418.463
653.9324	1442.898
654.0881	1437.913
654.2438	1426.217
654.3995	1420.818
654.5552	1395.468
654.7109	1383.107
654.8665	1377.234
655.0222	1370.173
655.1778	1367.055
655.3334	1373.418
655.4891	1353.969
655.6447	1329.682
655.8003	1295.792
655.9559	1255.111
656.1115	1179.56
656.2671	1054.963
656.4227	1012.991
656.5782	1059.481
656.7338	1170.987
656.8893	1248.36
657.0449	1292.785
657.2004	1304.298
657.356	1308.635
657.5115	1327.068
657.667	1352.454
657.8225	1366.02
657.978	1378.956
658.1335	1387.705
658.289	1377.885
658.4445	1383.266
658.5999	1389.357
658.7554	1391.184
658.9108	1391.617
659.0663	1404.392
659.2217	1383.404
659.3771	1362.393
659.5325	1350.909
659.6879	1365.071
659.8433	1401.678
659.9987	1394.741
660.1541	1393.488
660.3095	1395.875
660.4648	1394.635
660.6202	1392.888
660.7756	1395.384
660.9309	1382.977
661.0862	1380.035
661.2416	1398.534
661.3969	1395.222
661.5522	1389.555
661.7075	1399.553
661.8628	1406.414
662.0181	1395.842
662.1733	1401.522
662.3286	1393.448
662.4839	1387.773
662.6391	1386.767
662.7944	1398.254
662.9496	1399.35
663.1048	1381.881
663.26	1369.315
663.4152	1356.221
663.5704	1361.738
663.7256	1374.855
663.8808	1390.324
664.036	1385.616
664.1912	1374.03
664.3463	1361.098
664.5015	1365.257
664.6566	1377.931
664.8118	1383.866
664.9669	1403.196
665.122	1390.776
665.2771	1379.402
665.4322	1403.157
665.5873	1388.104
665.7424	1392.299
665.8975	1387.038
666.0526	1376.202
666.2076	1373.757
666.3627	1363.054
666.5177	1357.419
666.6727	1351.622
666.8278	1363.808
666.9828	1360.317
667.1378	1370.6
667.2928	1377.287
667.4478	1364.788
667.6028	1348.181
667.7578	1340.996
667.9127	1337.694
668.0677	1337.216
668.2226	1354.901
668.3776	1360.854
668.5325	1361.417
668.6874	1355.36
668.8423	1362.775
668.9973	1358.887
669.1522	1351.237
669.3071	1349.019
669.4619	1357.023
669.6168	1341.084
669.7717	1318.41
669.9265	1332.313
670.0814	1335.437
670.2362	1328.471
670.3911	1317.668
670.5459	1314.258
670.7007	1323.026
670.8555	1312.303
671.0103	1330.546
671.1651	1322.938
671.3199	1322.496
671.4747	1320.367
671.6295	1299.735
671.7842	1288.883
671.939	1286.426
672.0937	1285.144
672.2484	1289.855
672.4031	1285.322
672.5579	1288.356
672.7126	1307.074
672.8673	1314.753
673.022	1306.31
673.1767	1294.807
673.3314	1303.257
673.486	1288.974
673.6407	1282.8
673.7953	1273.39
673.95	1272.005
674.1046	1287.039
674.2592	1268.59
674.4138	1277.947
674.5684	1263.722
674.723	1258.145
674.8776	1259.259
675.0322	1250.553
675.1868	1234.21
675.3414	1241.499
675.4959	1264.404
675.6505	1256.938
675.805	1246.21
675.9595	1241.519
676.1141	1253.233
676.2686	1245.616
676.4231	1232.975
676.5776	1227.683
676.7321	1214.284
676.8866	1218.067
677.041	1212.362
677.1955	1201.891
677.35	1212.987
677.5044	1204.611
677.6589	1215.08
677.8133	1208.787
677.9677	1200.153
678.1221	1186.602
678.2766	1184.795
678.4309	1192.938
678.5853	1178.534
678.7397	1171.626
678.8941	1185.097
679.0485	1200.004
679.2028	1189.007
679.3571	1172.67
679.5115	1160.884
679.6658	1157.637
679.8201	1160.912
679.9744	1161.266
680.1288	1166.341
680.2831	1160.609
680.4373	1145.846
680.5916	1146.626
680.7459	1147.037
680.9001	1138.551
681.0544	1140.978
681.2087	1143.358
681.3629	1124.866
681.5171	1129.091
681.6713	1128.005
681.8256	1124.239
681.9797	1131.062
682.134	1125.464
682.2881	1115.384
682.4423	1130.31
682.5965	1112.635
682.7507	1095.192
682.9048	1088.132
683.059	1091.761
683.2131	1107.221
683.3672	1104.276
683.5213	1087.829
683.6754	1075.159
683.8295	1058.479
683.9836	1058.479
684.1377	1068.814
684.2918	1052.298
684.4459	1034.199
684.5999	1042.127
684.754	1039.513
684.908	1045.057
685.062	1053.785
685.2161	1058.967
685.3701	1048.25
685.5241	1035.937
685.6781	1028.988
685.8321	1013.455
685.9861	1020.389
686.14	1017.875
686.294	1012.77
686.4479	1003.483
686.6019	958.3363
686.7559	867.8261
686.9098	761.0256
687.0637	689.7397
687.2176	679.5228
687.3715	697.0458
687.5254	731.3594
687.6793	765.1268
687.8332	808.8611
687.9871	850.2296
688.1409	874.2675
688.2947	893.712
688.4486	899.0058
688.6024	871.6362
688.7563	856.7189
688.9101	852.1375
689.0639	850.6329
689.2177	839.9272
689.3715	837.1656
689.5253	845.1165
689.6791	857.9141
689.8328	845.9705
689.9866	845.5738
690.1403	855.8261
690.2941	862.1274
690.4478	859.5115
690.6015	867.5625
690.7552	870.3507
690.9089	877.8175
691.0626	877.0546
691.2164	876.5237
691.37	881.6347
691.5237	884.9155
691.6774	883.4124
691.831	884.3766
691.9847	904.486
692.1383	913.6444
692.2919	910.0463
692.4456	901.3745
692.5992	870.827
692.7527	868.3259
692.9064	876.5139
693.0599	864.966
693.2136	862.6786
693.3671	866.7356
693.5207	872.03
693.6742	884.0126
693.8278	879.397
693.9813	855.0571
694.1348	836.6397
694.2883	823.8308
694.4418	844.275
694.5953	852.6213
694.7488	854.0939
694.9023	856.5468
695.0558	853.1676
695.2093	869.1822
695.3627	862.1266
695.5162	857.2018
695.6696	860.1386
695.8231	859.7478
695.9764	862.7787
696.1299	863.0835
696.2833	865.921
696.4367	881.8079
696.5901	899.7296
696.7435	893.5355
696.8968	905.1145
697.0502	904.6774
697.2036	907.7446
697.3569	900.9306
697.5102	892.1691
697.6635	872.239
697.8168	857.0615
697.9702	856.0767
698.1235	862.2585
698.2768	861.9495
698.4301	876.4293
698.5833	873.2386
698.7366	850.8176
698.8898	838.5023
699.0431	834.7081
699.1964	835.6752
699.3495	853.2285
699.5028	852.4545
699.656	859.0387
699.8092	857.1461
699.9624	843.1536
700.1156	842.6054
700.2688	841.8177
700.4219	839.3138
700.5751	827.3336
700.7283	816.7493
700.8814	828.6358
701.0345	847.6205
701.1877	849.7882
701.3408	845.6298
701.4939	827.1628
701.647	819.3736
701.8001	820.8468
701.9532	828.5436
702.1063	830.9144
702.2593	822.5738
702.4124	821.4916
702.5654	817.1984
702.7184	815.9941
702.8715	817.1629
703.0245	829.0887
703.1776	839.6493
703.3305	857.87
703.4835	852.5349
703.6365	837.3513
703.7895	825.5695
703.9424	818.7245
704.0954	831.2912
704.2484	842.9142
704.4013	851.2979
704.5543	853.3585
704.7072	848.2054
704.8601	856.0441
705.013	845.5471
705.1659	840.0203
705.3188	832.574
705.4717	832.5823
705.6246	835.1686
705.7774	838.1974
705.9303	822.3326
706.0831	837.1759
706.236	836.5967
706.3888	836.9922
706.5416	829.5848
706.6944	835.874
706.8472	828.8704
707	830.0814
707.1528	826.5507
707.3056	837.2578
707.4583	850.7926
707.6111	832.9422
707.7639	836.6509
707.9166	844.397
708.0693	840.9638
708.222	829.7769
708.3748	832.0931
708.5275	829.0769
708.6802	817.7263
708.8328	817.7534
708.9855	815.4804
709.1382	826.472
709.2909	835.3005
709.4435	820.4843
709.5962	824.293
709.7488	820.2153
709.9014	826.9557
710.054	826.998
710.2067	811.7921
710.3593	813.9076
710.5118	820.8615
710.6644	820.4644
710.817	818.3377
710.9695	807.2471
711.1221	815.7703
711.2747	804.0914
711.4272	798.9122
711.5797	810.4922
711.7322	797.6611
711.8848	793.0109
712.0373	800.555
712.1898	793.9236
712.3422	794.1534
712.4948	786.6337
712.6472	794.4592
712.7996	789.9142
712.9521	777.1251
713.1046	775.1469
713.257	776.4191
713.4094	776.7527
713.5618	784.8363
713.7142	792.6978
713.8666	786.8673
714.019	788.2505
714.1714	796.9842
714.3237	785.3608
714.4761	780.384
714.6285	760.1902
714.7808	757.8399
714.9331	741.6644
715.0854	743.2852
715.2378	748.5336
715.3901	752.4937
715.5424	755.77
715.6947	757.4518
715.8469	753.6771
715.9992	747.0586
716.1515	740.5754
716.3037	735.4849
716.456	702.6633
716.6082	670.3702
716.7604	657.7093
716.9127	643.9711
717.0649	638.4236
717.2171	630.7024
717.3693	615.0295
717.5214	595.2479
717.6736	592.9655
717.8258	599.6277
717.978	605.4766
718.1301	614.7003
718.2822	608.1024
718.4344	584.4186
718.5865	552.0492
718.7386	540.1565
718.8907	554.8737
719.0428	570.9084
719.1949	565.7969
719.3469	563.337
719.499	559.8593
719.6511	570.282
719.8031	576.0284
719.9551	572.0602
720.1072	557.0654
720.2592	547.6283
720.4112	554.7352
720.5632	568.5709
720.7152	567.6102
720.8672	586.665
721.0192	615.9852
721.1711	649.6562
721.3231	667.5615
721.475	681.2554
721.627	674.4135
721.7789	665.9457
721.9308	662.5278
722.0828	666.0374
722.2347	670.9135
722.3866	666.3467
722.5385	658.5019
722.6903	648.0159
722.8422	645.5531
722.9941	666.5443
723.1459	645.3751
723.2977	613.9589
723.4496	572.7542
723.6014	554.3563
723.7532	561.7419
723.905	583.5053
724.0568	580.859
724.2086	570.741
724.3604	570.6692
724.5121	579.9199
724.6639	587.8318
724.8157	597.6199
724.9674	602.5203
725.1191	593.5712
725.2709	562.0682
725.4226	548.469
725.5743	568.9335
725.726	599.0936
725.8777	609.042
726.0294	606.4789
726.181	589.9232
726.3327	577.6647
726.4844	563.6313
726.636	579.4709
726.7877	593.6309
726.9393	610.1451
727.0909	623.3018
727.2425	612.2039
727.3941	599.6451
727.5457	574.7592
727.6973	535.7696
727.8488	532.2254
728.0004	552.1624
728.1519	589.2402
728.3035	611.7908
728.455	632.4521
728.6066	634.9962
728.7581	611.4676
728.9095	578.1235
729.0611	553.5657
729.2126	530.9257
729.364	536.9724
729.5155	576.8718
729.667	601.4656
729.8184	629.6625
729.9698	619.7687
730.1213	599.4211
730.2727	576.0459
730.4241	562.1351
730.5756	571.2261
730.7269	584.704
730.8784	594.1529
731.0297	580.2992
731.1811	572.6071
731.3325	580.5071
731.4838	596.6883
731.6351	591.4399
731.7865	589.0436
731.9378	582.3311
732.0891	600.9738
732.2404	628.5742
732.3917	627.5122
732.543	633.493
732.6943	632.4215
732.8456	621.3273
732.9968	625.5052
733.1481	631.9921
733.2993	628.5704
733.4506	627.9448
733.6018	631.0356
733.753	638.3646
733.9042	659.1008
734.0554	664.3618
734.2066	662.6523
734.3578	661.6774
734.509	654.6747
734.6602	644.1063
734.8113	630.9691
734.9624	632.2232
735.1136	631.7723
735.2647	627.5722
735.4158	628.1462
735.5669	630.9749
735.718	623.2434
735.8691	630.9612
736.0201	631.3688
736.1713	620.8688
736.3223	618.9146
736.4733	618.933
736.6244	628.0925
736.7755	618.4688
736.9265	614.9123
737.0775	621.1686
737.2285	624.4584
737.3795	627.5878
737.5305	630.433
737.6815	629.1435
737.8324	633.369
737.9834	626.8843
738.1343	633.2919
738.2853	623.2844
738.4362	619.2413
738.5871	604.3136
738.738	604.3361
738.8889	595.7938
739.0399	593.9489
739.1907	599.975
739.3416	609.2417
739.4925	616.603
739.6433	606.5348
739.7942	605.7219
739.945	611.1478
740.0958	609.6848
740.2467	613.9201
740.3975	616.4417
740.5483	623.2915
740.6991	618.3268
740.8499	600.1011
741.0007	599.2864
741.1514	605.0511
741.3022	611.8835
741.4529	603.1925
741.6036	592.8457
741.7544	592.0224
741.9051	604.0192
742.0558	605.6435
742.2065	606.735
742.3572	599.4879
742.5079	593.7196
742.6586	598.673
742.8093	608.7855
742.9599	604.8947
743.1105	606.195
743.2612	605.1178
743.4118	603.1357
743.5624	610.4044
743.7131	610.389
743.8636	588.3647
744.0142	590.6729
744.1648	591.7549
744.3154	592.3557
744.4659	586.8235
744.6165	591.6522
744.767	589.1653
744.9176	598.7473
745.0681	598.6092
745.2186	598.0903
745.3691	603.7424
745.5197	599.4394
745.6702	598.4879
745.8206	592.5985
745.9711	586.0132
746.1215	585.8482
746.272	583.1281
746.4224	574.5903
746.5729	577.8508
746.7233	583.0163
746.8737	579.2576
747.0241	580.9794
747.1745	588.4952
747.3249	584.6137
747.4753	583.5201
747.6257	572.4478
747.776	573.0384
747.9264	579.1636
748.0767	568.4676
748.2271	567.0468
748.3774	574.3608
748.5276	569.9671
748.678	566.9938
748.8282	566.383
748.9786	565.0703
749.1288	557.6508
749.2791	549.0703
749.4294	542.1576
749.5796	545.5536
749.7299	549.1809
749.8801	556.0202
750.0303	550.8372
750.1805	555.4172
750.3307	549.0938
750.4809	549.3191
750.6311	545.4017
750.7813	543.249
750.9314	543.4111
751.0816	533.8256
751.2318	536.3457
751.3818	531.9081
751.532	530.7205
751.6821	546.7582
751.8322	547.1467
751.9823	539.0385
752.1324	532.4167
752.2825	526.0921
752.4326	526.2278
752.5826	523.5394
752.7327	530.9586
752.8827	525.4307
753.0327	528.4926
753.1827	524.1496
753.3328	524.5959
753.4828	517.8097
753.6328	521.3059
753.7828	529.6312
753.9327	521.4426
754.0827	517.2339
754.2327	519.5812
754.3826	518.2206
754.5325	518.4406
754.6825	518.3233
754.8324	508.4268
754.9823	501.7347
755.1322	506.4515
755.2821	517.4014
755.432	498.67
755.5818	493.1961
755.7318	489.4025
755.8816	491.9661
756.0314	501.69
756.1813	510.0547
756.3311	497.3898
756.4809	497.6704
756.6307	488.9391
756.7805	485.3011
756.9303	487.882
757.0801	484.8733
757.2299	488.5172
757.3796	479.1739
757.5294	476.0683
757.6791	483.1534
757.8289	485.9942
757.9786	483.7231
758.1283	485.3396
758.278	474.89
758.4277	468.948
758.5773	455.9313
758.7271	453.2781
758.8767	455.5352
759.0264	460.8916
759.176	446.831
759.3256	401.3436
759.4753	346.4123
759.6249	266.7469
759.7745	206.1118
759.9241	164.9205
760.0737	141.7329
760.2233	118.816
760.3729	96.24934
760.5224	89.19611
760.6719	88.14753
760.8215	94.57387
760.971	107.2483
761.1205	122.6992
761.2701	137.8877
761.4196	163.1692
761.5691	204.5854
761.7186	251.024
761.868	294.528
762.0175	318.8545
762.167	293.5382
762.3164	262.4292
762.4659	235.446
762.6153	213.1699
762.7647	196.5844
762.9141	198.6763
763.0635	191.5627
763.2129	196.2596
763.3623	199.8781
763.5117	195.5124
763.661	206.9736
763.8104	218.6395
763.9597	218.816
764.1091	231.7232
764.2584	238.9658
764.4077	242.8572
764.557	248.3591
764.7063	254.7452
764.8556	258.6824
765.0049	268.0384
765.1541	279.2263
765.3034	285.8961
765.4526	300.8663
765.6019	302.0046
765.7511	305.2661
765.9003	313.4402
766.0496	310.5075
766.1987	310.9882
766.348	322.4357
766.4971	330.1878
766.6463	335.5307
766.7955	343.9386
766.9446	349.0459
767.0938	354.548
767.2429	362.2054
767.392	370.3539
767.5411	366.2257
767.6902	380.2166
767.8394	376.1394
767.9884	367.3138
768.1375	365.7985
768.2866	372.9543
768.4356	379.0632
768.5847	374.567
768.7337	375.9873
768.8828	375.9142
769.0317	378.9901
769.1808	377.8511
769.3298	380.674
769.4788	378.8063
769.6277	376.0058
769.7767	380.9581
769.9257	376.6683
770.0746	385.3391
770.2236	388.5774
770.3725	383.983
770.5214	383.986
770.6703	385.438
770.8193	383.748
770.9681	378.9155
771.1171	376.3609
771.2659	376.246
771.4148	374.4043
771.5637	369.0553
771.7125	374.9518
771.8613	374.2515
772.0101	373.304
772.159	380.9678
772.3078	377.2904
772.4566	366.1686
772.6054	362.5863
772.7542	371.4874
772.903	372.1543
773.0517	368.4491
773.2004	367.6836
773.3492	370.4618
773.4979	365.4156
773.6467	366.5714
773.7953	373.723
773.944	375.3986
774.0928	371.1066
774.2415	361.5657
774.3901	354.4125
774.5388	354.8599
774.6874	357.335
774.8361	351.1143
774.9847	340.3623
775.1334	345.8297
775.282	351.7169
775.4305	358.5609
775.5792	362.792
775.7277	357.838
775.8763	349.7999
776.0249	359.2562
776.1735	369.3008
776.322	367.5107
776.4705	358.624
776.6191	370.4568
776.7676	357.2136
776.9161	350.585
777.0646	356.4926
777.2131	340.4866
777.3616	344.3918
777.5101	344.8624
777.6585	344.752
777.8069	343.2548
777.9554	348.7373
778.1038	343.7769
778.2523	334.1985
778.4007	346.7072
778.5491	347.962
778.6974	346.8531
778.8459	348.9189
778.9942	352.6566
779.1426	351.7752
779.291	355.4566
779.4393	343.9055
779.5876	335.5994
779.736	342.0413
779.8843	341.8672
780.0326	328.2033
780.1809	328.4517
780.3292	333.5851
780.4775	337.8114
780.6257	342.1589
780.774	335.297
780.9222	327.5303
781.0704	335.3544
781.2187	346.4702
781.3669	339.8777
781.5151	340.344
781.6633	348.0923
781.8115	339.9709
781.9597	333.8266
782.1078	338.9084
782.256	339.9435
782.4042	343.8318
782.5523	335.0493
782.7004	336.4253
782.8486	337.4171
782.9967	323.747
783.1448	329.6967
783.2929	322.3186
783.441	315.6874
783.5891	316.5323
783.7371	323.9463
783.8851	328.4437
784.0332	318.465
784.1812	323.3342
784.3293	329.9671
784.4773	322.9644
784.6253	323.7664
784.7733	320.2727
784.9213	321.3665
785.0692	319.8348
785.2172	319.8293
785.3652	325.0813
785.5131	319.3057
785.6611	312.1426
785.809	322.2812
785.9569	317.8593
786.1048	316.5328
786.2527	312.5699
786.4006	315.5614
786.5485	309.0013
786.6964	311.4521
786.8442	310.9331
786.9921	315.8478
787.1399	304.2615
787.2877	304.7539
787.4355	303.5504
787.5833	304.9473
787.7311	306.9751
787.8789	314.1791
788.0267	311.4171
788.1745	304.3941
788.3223	308.4254
788.47	311.9165
788.6177	303.8322
788.7654	315.1685
788.9132	304.9714
789.0609	298.2373
789.2086	302.0449
789.3563	300.1122
789.504	288.4471
789.6517	291.3628
789.7993	298.8813
789.947	300.1145
790.0946	297.6196
790.2422	293.1773
790.3898	293.4054
790.5375	294.4516
790.6851	300.8848
790.8326	292.403
790.9802	284.2217
791.1278	288.2446
791.2754	288.8981
791.423	290.7317
791.5705	295.6707
791.718	290.8128
791.8655	290.4321
792.0131	287.5186
792.1606	284.7588
792.308	284.7744
792.4556	297.1928
792.603	291.6983
792.7505	288.3608
792.8979	286.9474
793.0454	279.5228
793.1928	272.2489
793.3403	273.9971
793.4877	285.1595
793.6351	286.2472
793.7825	281.2453
793.9299	277.4743
794.0772	278.3815
794.2246	279.6457
794.3719	279.6455
794.5193	276.2809
794.6666	276.4698
794.814	270.8726
794.9613	274.7633
795.1086	278.2706
795.2559	282.0353
795.4032	276.3003
795.5505	282.1836
795.6978	278.74
795.845	269.4315
795.9922	259.1094
796.1395	268.7161
796.2867	266.3926
796.4339	263.0284
796.5811	268.3798
796.7283	267.5763
796.8755	276.3816
797.0227	273.9721
797.1699	267.5142
797.317	268.5542
797.4642	273.4283
797.6113	275.1742
797.7584	274.4395
797.9056	271.3413
798.0527	273.1815
798.1998	270.2725
798.3469	272.1555
798.494	266.3384
798.641	266.8568
798.7881	270.8456
798.9351	262.4966
799.0822	269.314
799.2292	273.8128
799.3762	263.8538
799.5232	255.4252
799.6702	265.5178
799.8172	265.3476
799.9642	261.5753
800.1111	247.5949
800.2581	254.8914
800.4051	254.8915
800.552	258.4728
800.6989	257.2855
800.8458	254.8098
800.9927	251.3524
801.1396	261.2326
801.2866	252.9693
801.4334	248.0336
801.5803	253.292
801.7272	259.4867
801.874	256.4039
802.0209	259.3816
802.1677	248.815
802.3145	249.3319
802.4613	244.5128
802.6081	237.1583
802.7549	241.2941
802.9017	240.7123
803.0485	245.3196
803.1952	248.4592
803.342	253.8757
803.4887	251.2466
803.6354	246.046
803.7822	242.8566
803.9289	246.5946
804.0756	249.1197
804.2223	244.9084
804.369	238.0917
804.5156	235.0578
804.6623	234.141
804.8089	234.3949
804.9556	232.3421
805.1022	231.3657
805.2488	234.1916
805.3954	241.0175
805.542	229.9764
805.6886	237.9553
805.8352	245.5545
805.9818	240.2747
806.1283	228.125
806.2749	236.9175
806.4214	237.6971
806.5679	236.6397
806.7145	238.6004
806.861	241.3725
807.0074	237.7073
807.154	232.6508
807.3004	230.8483
807.4469	226.8757
807.5934	228.8351
807.7398	227.9872
807.8862	225.6583
808.0327	225.5081
808.1791	228.2167
808.3255	218.9325
808.4719	207.1671
808.6183	210.6916
808.7647	212.9266
808.9111	220.0105
809.0574	221.7453
809.2037	225.3259
809.3501	212.1706
809.4965	218.8297
809.6428	213.9627
809.7891	213.2877
809.9354	208.4679
810.0817	212.1953
810.2279	216.877
810.3742	211.3687
810.5204	215.8855
810.6667	215.2642
810.8129	217.4836
810.9592	212.6166
811.1054	210.9221
811.2516	207.7175
811.3978	197.9118
811.5439	200.8644
811.6901	209.7959
811.8363	205.5031
811.9825	207.7027
812.1286	202.3345
812.2748	200.5142
812.4209	203.8396
812.567	197.1622
812.7131	195.094
812.8592	194.8014
813.0053	198.6742
813.1514	193.8546
813.2974	187.9683
813.4435	182.6449
813.5895	181.7625
813.7356	182.3084
813.8816	188.0125
814.0276	183.8595
814.1736	177.1422
814.3196	174.7543
814.4656	179.118
814.6116	171.3968
814.7576	167.9897
814.9035	158.5135
815.0494	160.5285
815.1954	164.2058
815.3413	165.5226
815.4872	161.0599
815.6331	160.5815
815.779	172.1688
815.9249	166.6257
816.0707	163.4241
816.2166	150.3357
816.3625	139.5222
816.5083	138.5661
816.6542	152.6669
816.8	156.6734
816.9458	159.3136
817.0916	156.739
817.2374	158.5559
817.3832	176.1394
817.5289	173.35
817.6747	156.1237
817.8204	142.2784
817.9662	146.2588
818.1119	147.443
818.2576	156.6304
818.4034	150.794
818.5491	163.149
818.6948	160.0846
818.8405	157.2343
818.9861	155.2087
819.1318	153.4909
819.2774	159.7486
819.423	155.6119
819.5687	154.1333
819.7143	154.136
819.8599	150.8687
820.0055	145.9843
820.1511	153.3712
820.2967	157.9042
820.4422	169.2105
820.5878	176.2549
820.7333	175.5618
820.8788	178.7535
821.0244	171.9229
821.1699	167.2195
821.3154	167.2038
821.4609	160.2836
821.6064	165.7993
821.7519	170.5274
821.8973	161.8112
822.0428	157.6318
822.1882	155.7401
822.3337	151.0114
822.4791	145.3996
822.6245	142.3112
822.7699	127.1367
822.9153	113.5352
823.0607	106.1051
823.2061	113.4983
823.3514	125.8186
823.4968	136.6958
823.6422	143.5691
823.7875	152.2523
823.9328	159.4151
824.0781	155.6846
824.2234	153.8821
824.3687	152.9091
824.514	152.5386
824.6592	160.0306
824.8045	167.8007
824.9498	167.67
825.095	167.1428
825.2402	166.0169
825.3854	161.3006
825.5306	153.738
825.6758	152.3811
825.821	147.4209
825.9662	146.1566
826.1114	156.235
826.2565	159.3243
826.4017	151.308
826.5468	156.4802
826.692	167.4645
826.837	164.4786
826.9822	164.9391
827.1273	164.0456
827.2723	156.4397
827.4174	142.2469
827.5625	144.3901
827.7075	135.951
827.8526	139.802
827.9976	140.4477
828.1426	139.7927
828.2877	140.7167
828.4327	148.5065
828.5776	151.2077
828.7227	146.4221
828.8676	136.289
829.0126	134.1922
829.1575	143.8461
829.3024	141.6332
829.4474	142.4802
829.5923	142.9791
829.7372	138.077
829.8821	152.8811
830.027	147.5773
830.1719	146.7092
830.3168	145.442
830.4616	142.729
830.6064	140.6237
830.7513	139.5407
830.8961	141.5524
831.041	140.2214
831.1857	144.7051
831.3306	153.3227
831.4753	148.3676
831.6201	148.6855
831.7649	145.2191
831.9096	138.5879
832.0544	130.6134
832.1991	132.4368
832.3438	134.0077
832.4885	142.8068
832.6332	143.6896
832.778	145.784
832.9226	132.1831
833.0673	137.2202
833.2119	137.123
833.3566	138.9637
833.5012	138.7854
833.6459	139.59
833.7905	141.5671
833.9351	136.7551
834.0797	135.1378
834.2243	135.9374
834.3688	135.8505
834.5134	140.2418
834.658	145.8085
834.8026	136.079
834.9471	137.113
835.0916	143.2449
835.2361	148.0805
835.3806	142.6
835.5251	143.9719
835.6696	139.7955
835.8141	138.5411
835.9586	144.3466
836.103	144.9774
836.2474	145.816
836.3918	139.5317
836.5363	138.7068
836.6807	140.4433
836.8251	140.4326
836.9695	141.9673
837.1138	149.5152
837.2582	148.6095
837.4026	135.9944
837.5469	139.1957
837.6913	139.6402
837.8356	141.0911
837.9799	144.3523
838.1242	143.2142
838.2686	142.2437
838.4128	141.823
838.5571	142.0284
838.7014	143.3006
838.8456	142.2421
838.9899	140.2637
839.1341	148.9699
839.2783	144.3639
839.4225	139.9303
839.5667	136.3644
839.7109	138.218
839.8551	143.6105
839.9993	144.2876
840.1434	140.3009
840.2876	144.398
840.4317	146.1407
840.5759	141.0038
840.72	140.9245
840.8641	146.7811
841.0082	148.826
841.1523	141.0591
841.2963	137.8006
841.4404	140.1452
841.5845	134.8943
841.7285	144.0525
841.8726	138.1035
842.0165	139.5235
842.1606	139.4234
842.3046	139.7157
842.4485	141.6185
842.5925	137.368
842.7365	131.7501
842.8805	134.8505
843.0244	132.78
843.1684	133.1497
843.3123	131.5769
843.4562	136.5079
843.6002	139.7276
843.744	137.6412
843.8879	130.0134
844.0318	124.84
844.1757	127.3886
844.3195	134.4875
844.4634	135.2294
844.6072	135.1993
844.751	126.7326
844.8948	125.1666
845.0386	133.6953
845.1824	133.3927
845.3262	133.3603
845.47	137.1355
845.6138	138.3996
845.7575	139.3846
845.9012	135.1321
846.045	130.6629
846.1887	134.6741
846.3324	132.9132
846.4761	133.0102
846.6198	131.9716
846.7635	130.1988
846.9071	128.1249
847.0508	128.2973
847.1944	134.5495
847.3381	138.938
847.4817	139.7259
847.6253	136.4728
847.7689	129.2167
847.9125	131.6774
848.0561	135.3298
848.1996	131.5688
848.3432	129.9238
848.4868	129.2995
848.6303	129.5715
848.7738	130.9518
848.9174	128.4842
849.0609	129.3673
849.2043	134.6936
849.3478	129.4598
849.4913	121.5176
849.6348	115.8768
849.7782	114.8405
849.9217	114.2606
850.0651	109.5889
850.2086	113.198
850.3519	121.5506
850.4954	128.5681
850.6387	128.3688
850.7821	128.6095
850.9255	131.321
851.0688	128.8034
851.2122	124.3153
851.3555	119.7018
851.4988	113.5763
851.6422	115.7724
851.7855	123.2014
851.9288	120.0778
852.0721	122.3294
852.2153	121.713
852.3586	121.4205
852.5018	126.1229
852.6451	124.159
852.7883	120.2358
852.9315	119.1395
853.0748	124.0983
853.218	117.8043
853.3611	122.0115
853.5043	118.8491
853.6475	113.2644
853.7906	112.1904
853.9338	108.2433
854.0769	94.08421
854.22	87.34431
854.3632	88.25927
854.5063	83.65404
854.6494	96.00228
854.7924	104.4638
854.9355	109.577
855.0786	115.0336
855.2216	111.0129
855.3647	121.3183
855.5077	122.8118
855.6507	111.6445
855.7937	115.2539
855.9367	118.253
856.0797	112.1854
856.2227	112.2106
856.3657	121.4466
856.5086	119.9982
856.6516	119.6085
856.7945	122.8003
856.9374	120.8557
857.0803	122.7856
857.2232	116.5034
857.3661	115.0566
857.509	113.7037
857.6519	110.8009
857.7947	117.3673
857.9376	112.4007
858.0804	118.7354
858.2232	117.789
858.366	116.3993
858.5089	114.4382
858.6516	114.1736
858.7944	113.9499
858.9372	117.6898
859.08	116.8117
859.2227	112.2214
859.3654	109.846
859.5082	111.6942
859.6509	115.5473
859.7936	115.267
859.9363	113.7769
860.079	111.3926
860.2217	112.0591
860.3643	108.1902
860.507	107.9368
860.6496	105.0486
860.7922	110.4231
860.9349	109.1096
861.0775	105.3366
861.2201	110.971
861.3627	112.7486
861.5052	111.7806
861.6478	107.6968
861.7904	113.2493
861.9329	110.1101
862.0755	105.3702
862.218	108.0863
862.3605	111.183
862.503	109.5061
862.6455	107.352
862.788	109.8062
862.9305	112.5562
863.0729	114.8699
863.2154	112.4102
863.3578	104.0202
863.5002	108.939
863.6426	110.9295
863.7851	105.397
863.9275	106.0302
864.0698	108.9617
864.2122	110.1752
864.3546	104.793
864.4969	110.5464
864.6393	107.8022
864.7816	102.1229
864.924	97.72635
865.0662	96.25608
865.2086	99.47849
865.3508	102.0366
865.4931	103.7279
865.6354	96.86843
865.7776	101.6522
865.9199	95.01328
866.0621	86.70691
866.2043	82.94672
866.3466	74.43125
866.4888	72.01815
866.6309	80.65189
866.7731	92.23927
866.9153	94.94879
867.0574	99.79276
867.1996	101.6487
867.3417	94.3954
867.4839	90.45498
867.626	94.8887
867.7681	98.76775
867.9102	103.336
868.0522	97.85387
868.1943	91.29326
868.3364	98.50977
868.4785	93.89507
868.6205	95.95346
868.7625	93.73415
868.9045	96.96083
869.0465	99.00033
869.1885	92.43063
869.3305	94.02562
869.4725	92.60564
869.6144	95.02007
869.7564	96.03225
869.8983	96.49509
870.0403	99.30329
870.1822	99.53688
870.3241	93.22569
870.466	91.50376
870.6079	95.40305
870.7498	94.19888
870.8916	94.10285
871.0335	92.00813
871.1754	90.96987
871.3171	92.12419
871.459	93.59693
871.6008	89.92484
871.7426	94.68837
871.8844	93.74024
872.0262	89.19284
872.1679	90.22034
872.3097	97.4276
872.4514	96.90664
872.5931	90.88559
872.7349	86.0662
872.8766	90.3335
873.0183	91.07555
873.16	95.3074
873.3017	92.35601
873.4434	90.47491
873.585	92.09638
873.7266	88.5612
873.8683	88.52211
874.0099	86.80853
874.1516	91.05068
874.2932	91.69563
874.4348	92.24767
874.5763	85.55991
874.7179	83.37344
874.8594	91.15553
875.001	86.60044
875.1425	84.46099
875.2841	82.67979
875.4256	84.59978
875.5671	86.21518
875.7086	83.15117
875.85	90.01562
875.9915	84.01221
876.133	84.60136
876.2744	86.18442
876.4159	89.46539
876.5573	88.86401
876.6987	85.69352
876.8401	79.52738
876.9815	83.40013
877.1229	86.84286
877.2643	88.94218
877.4056	87.54932
877.547	83.86635
877.6884	86.85829
877.8297	84.54517
877.971	82.6328
878.1123	86.28329
878.2536	89.36517
878.3949	89.00402
878.5362	90.88663
878.6774	83.04914
878.8187	82.45943
878.9599	81.66919
879.1011	81.02738
879.2424	81.29185
879.3836	83.68523
879.5248	84.59362
879.666	82.50603
879.8071	77.33065
879.9483	80.80003
880.0895	77.96603
880.2306	79.95011
880.3718	79.2118
880.5129	78.36552
880.654	72.90885
880.7951	74.83299
880.9362	77.44887
881.0773	80.96066
881.2183	81.56106
881.3594	79.61636
881.5004	82.16978
881.6414	84.1609
881.7825	84.38395
881.9235	78.46963
882.0645	80.01815
882.2054	80.36968
882.3464	76.39947
882.4874	70.56797
882.6284	75.74932
882.7693	78.38818
882.9103	80.65765
883.0512	81.7704
883.1921	76.76472
883.333	73.20033
883.4739	73.76939
883.6147	78.87153
883.7556	79.37293
883.8965	81.07161
884.0374	77.27092
884.1782	78.1396
884.319	76.67229
884.4598	81.879
884.6006	78.74257
884.7414	78.85401
884.8822	79.56519
885.0229	76.58376
885.1637	82.06652
885.3044	74.33121
885.4452	76.36818
885.5859	78.59385
885.7266	70.44806
885.8673	73.03484
886.008	79.06669
886.1487	77.08142
886.2894	72.4329
886.43	72.19107
886.5707	70.14517
886.7113	75.00533
886.8519	73.28584
886.9926	75.06357
887.1331	71.69105
887.2737	73.1833
887.4143	79.60792
887.5549	75.16823
887.6954	73.84309
887.836	71.98871
887.9765	74.71964
888.1171	76.27125
888.2576	75.65244
888.3981	74.14014
888.5386	77.5517
888.679	74.14223
888.8195	76.40073
888.96	78.42554
889.1004	77.61539
889.2408	70.71085
889.3813	70.23627
889.5217	67.41323
889.6621	68.94966
889.8025	75.04073
889.9429	76.00021
890.0833	73.95767
890.2236	73.28018
890.364	71.70221
890.5043	66.97436
890.6446	74.26154
890.7849	74.09129
890.9252	71.14649
891.0655	77.24318
891.2058	69.75291
891.3461	70.39359
891.4863	70.51511
891.6266	69.19662
891.7668	72.39847
891.907	71.4538
892.0472	68.65845
892.1874	74.48848
892.3276	68.19128
892.4678	72.29323
892.608	68.98738
892.7481	66.52656
892.8883	67.63661
893.0284	62.94623
893.1685	60.60281
893.3087	64.19139
893.4487	65.32644
893.5889	67.87794
893.7289	74.39165
893.869	74.13248
894.009	64.76891
894.1491	63.75417
894.2891	65.16856
894.4291	58.51849
894.5692	56.79966
894.7092	61.44101
894.8491	60.84636
894.9891	58.21866
895.1291	61.44187
895.269	60.70595
895.409	59.45326
895.549	59.30118
895.6888	57.05368
895.8288	56.55868
895.9687	58.09687
896.1086	60.35571
896.2484	57.08788
896.3883	52.54654
896.5281	54.7813
896.668	56.76191
896.8079	55.27482
896.9476	53.36493
897.0875	57.34027
897.2272	54.68912
897.3671	53.78033
897.5068	55.02129
897.6466	55.262
897.7864	63.24567
897.9261	58.64448
898.0658	57.64318
898.2056	57.1644
898.3453	52.82645
898.4849	54.272
898.6246	52.44547
898.7643	48.6206
898.904	39.38382
899.0436	37.69985
899.1833	39.53446
899.3229	40.36454
899.4625	52.72408
899.6021	55.70346
899.7417	56.69468
899.8813	53.87502
900.0209	46.65896
900.1605	45.75451
900.3	44.89441
900.4395	50.5154
900.579	44.11665
900.7186	44.94802
900.8581	48.92342
900.9976	42.87774
901.1371	44.67995
901.2766	45.97005
901.416	50.6568
901.5555	43.49122
901.6949	45.88366
901.8344	47.16646
901.9738	51.28951
902.1132	49.12119
902.2526	48.69865
902.3919	43.78151
902.5313	43.68613
902.6707	48.48175
