SPECTRUM DATA FILE
SpectrumCount:	1
PixelCount:	3648
UserName:	ToughBook User
SampleName:	
LightSource:	
Comments:	
DeviceName:	Qwave
DeviceManufacturer:	Broadcom
DeviceSerialNo:	11311

Name:	last spectrum
Date:	2024-05-02T14:42:49.1356312+02:00
ExposureTime:	0.02
TemporalAvg:	1
IntensityUnit:	normalizedCounts
CCDLoadLevel:	0.05172356
Temperature:	31.05875
DiagramColor:	200
ProcessingSteps:	335

Wavelength [nm]	Intensity1
334.421	8.740211
334.5891	7.05829
334.7573	9.168183
334.9254	8.355291
335.0935	7.392522
335.2616	5.809586
335.4297	8.808279
335.5978	5.012953
335.7659	7.015037
335.934	2.131699
336.1021	6.28101
336.2701	4.66557
336.4382	2.322065
336.6063	8.362396
336.7744	7.396811
336.9424	7.89215
337.1105	9.565423
337.2785	6.395952
337.4466	11.36849
337.6146	5.40265
337.7827	4.851294
337.9507	3.622318
338.1187	10.49219
338.2867	10.31449
338.4548	7.1082
338.6228	8.593285
338.7908	10.20593
338.9588	4.783131
339.1268	7.522851
339.2948	5.223225
339.4628	5.542393
339.6308	7.062584
339.7988	7.3075
339.9667	3.708038
340.1347	7.203858
340.3027	6.267429
340.4707	7.236049
340.6386	7.595751
340.8066	6.670568
340.9745	4.992112
341.1425	7.417529
341.3104	4.455204
341.4784	10.52719
341.6463	11.35306
341.8142	7.698589
341.9821	7.732666
342.1501	5.811234
342.318	3.626382
342.4859	5.76704
342.6538	9.299362
342.8217	6.609528
342.9896	12.49387
343.1575	7.288034
343.3254	7.669247
343.4933	4.435017
343.6612	7.298978
343.829	7.89925
343.9969	7.723268
344.1648	10.90013
344.3326	5.704729
344.5005	8.035963
344.6683	6.802458
344.8362	6.053031
345.004	2.386059
345.1719	9.498533
345.3397	9.219606
345.5075	9.140761
345.6754	11.97382
345.8432	12.05302
346.011	13.00899
346.1788	10.94288
346.3466	4.974804
346.5144	9.881816
346.6822	7.176173
346.85	7.994732
347.0178	8.565818
347.1856	11.52358
347.3534	13.40105
347.5211	7.807116
347.6889	6.360126
347.8567	10.22701
348.0244	10.2726
348.1922	7.431931
348.3599	2.164441
348.5277	5.139292
348.6954	4.003544
348.8632	9.316394
349.0309	4.75808
349.1986	4.450001
349.3663	6.24484
349.5341	6.960871
349.7018	9.55134
349.8695	10.6842
350.0372	5.673991
350.2049	8.447941
350.3726	5.990694
350.5403	6.326614
350.7079	5.930154
350.8756	3.327064
351.0433	5.436526
351.211	9.388177
351.3786	6.615042
351.5463	9.713434
351.714	11.76106
351.8816	4.894731
352.0493	7.471901
352.2169	8.420658
352.3846	9.279972
352.5522	11.72453
352.7198	7.307011
352.8875	8.682458
353.0551	9.796729
353.2227	10.14353
353.3903	7.310259
353.5579	8.68219
353.7255	11.9424
353.8931	8.443847
354.0607	12.23674
354.2283	13.25587
354.3958	9.149149
354.5634	11.32962
354.731	10.86307
354.8986	10.77229
355.0661	8.021835
355.2337	10.22061
355.4012	9.320739
355.5688	8.250847
355.7363	9.218637
355.9039	8.074195
356.0714	8.037166
356.239	9.236954
356.4065	9.8394
356.574	10.18494
356.7415	5.166747
356.909	7.573428
357.0765	9.279788
357.244	7.374667
357.4115	10.65289
357.579	8.386329
357.7465	8.329287
357.914	8.436787
358.0815	7.352695
358.249	7.976266
358.4164	6.140939
358.5839	7.153121
358.7513	12.43623
358.9188	11.92194
359.0862	8.118394
359.2537	8.292556
359.4211	10.31834
359.5886	7.105978
359.756	8.573218
359.9234	9.503033
360.0909	8.903344
360.2583	11.59861
360.4257	7.144602
360.5931	9.371536
360.7605	10.45135
360.9279	7.393924
361.0953	9.304962
361.2627	12.93176
361.4301	8.055366
361.5974	11.4079
361.7648	12.45
361.9322	7.035376
362.0995	4.955099
362.2669	10.57323
362.4343	11.74468
362.6016	10.41437
362.769	12.62618
362.9363	18.02972
363.1036	13.30806
363.271	9.778554
363.4383	11.63922
363.6056	8.295152
363.7729	12.11782
363.9402	12.79681
364.1075	12.57256
364.2748	11.43091
364.4421	15.27312
364.6094	12.28678
364.7767	13.73918
364.944	13.73142
365.1113	11.84113
365.2786	9.32114
365.4458	11.26331
365.6131	10.48293
365.7803	9.705531
365.9476	10.02744
366.1148	7.51782
366.2821	9.722288
366.4493	12.9446
366.6166	9.422192
366.7838	11.99278
366.951	12.36294
367.1182	8.757672
367.2855	5.649879
367.4527	8.687757
367.6199	10.44897
367.7871	9.385726
367.9543	4.018593
368.1215	11.90114
368.2886	12.03524
368.4558	8.815555
368.623	7.835939
368.7902	9.488128
368.9573	11.85368
369.1245	4.004862
369.2917	7.819508
369.4588	7.387316
369.6259	8.420053
369.7931	13.09501
369.9602	15.56456
370.1274	9.09821
370.2945	11.17438
370.4616	10.04916
370.6287	13.64173
370.7958	12.43062
370.963	7.170782
371.1301	9.535393
371.2971	11.2752
371.4643	9.035428
371.6313	12.41833
371.7984	10.08453
371.9655	6.894401
372.1326	9.067262
372.2997	12.51259
372.4667	10.70254
372.6338	11.15375
372.8008	9.966234
372.9679	11.12171
373.1349	13.02792
373.3019	14.59893
373.469	10.90982
373.636	9.752493
373.803	10.44357
373.9701	12.54265
374.1371	10.7373
374.3041	13.35506
374.4711	9.593237
374.6381	10.62153
374.8051	10.05533
374.9721	10.89226
375.1391	12.15887
375.3061	6.289721
375.473	7.201469
375.64	7.734443
375.8069	12.99689
375.9739	9.838055
376.1409	11.94226
376.3078	9.724069
376.4748	9.19383
376.6417	16.64565
376.8087	9.929799
376.9756	11.97344
377.1425	15.06325
377.3094	19.30855
377.4763	15.97786
377.6432	14.88454
377.8102	14.17303
377.9771	13.97602
378.144	14.68215
378.3109	11.25526
378.4777	12.29593
378.6446	13.8057
378.8115	13.74796
378.9784	12.70395
379.1452	11.39821
379.3121	9.038432
379.4789	13.91225
379.6458	14.11725
379.8127	5.012573
379.9795	10.82945
380.1463	9.198758
380.3131	11.25714
380.48	15.20106
380.6468	16.96024
380.8136	10.72592
380.9804	12.54841
381.1472	12.91713
381.314	12.77409
381.4808	10.85641
381.6476	15.70249
381.8144	13.96293
381.9812	12.40353
382.148	18.71756
382.3147	9.594824
382.4815	9.123028
382.6483	10.69031
382.815	6.332686
382.9818	12.05031
383.1485	11.79028
383.3153	10.42381
383.482	10.83973
383.6487	13.51342
383.8155	11.12376
383.9822	15.82913
384.1489	11.35725
384.3156	11.81102
384.4823	14.7946
384.649	16.52858
384.8157	15.21148
384.9824	13.27199
385.1491	14.05302
385.3158	9.735318
385.4825	16.90256
385.6491	14.483
385.8158	9.77622
385.9825	9.955858
386.1491	10.52638
386.3157	12.76931
386.4824	15.12879
386.649	8.50791
386.8157	14.0107
386.9823	14.29128
387.1489	11.95025
387.3156	15.71156
387.4821	13.85001
387.6488	12.95133
387.8154	11.39993
387.982	13.54583
388.1486	8.875785
388.3152	13.99137
388.4818	11.85019
388.6483	11.19201
388.8149	12.56266
388.9815	12.51669
389.148	12.16377
389.3146	12.45261
389.4811	20.54072
389.6477	16.47706
389.8142	15.27883
389.9808	15.42454
390.1473	16.09292
390.3138	20.32459
390.4804	16.16097
390.6469	13.16654
390.8134	16.29059
390.9799	17.71845
391.1464	16.55323
391.3129	14.38163
391.4794	17.28399
391.6459	14.51478
391.8124	17.54804
391.9789	18.10127
392.1453	14.12853
392.3118	12.02244
392.4782	15.37795
392.6447	15.04719
392.8112	13.78333
392.9776	15.58261
393.144	15.28727
393.3105	11.41832
393.4769	10.25335
393.6433	12.08963
393.8098	15.3225
393.9762	17.16007
394.1426	14.71544
394.309	14.49312
394.4754	13.62324
394.6418	17.96567
394.8082	14.31676
394.9746	18.94109
395.141	19.36801
395.3073	16.97097
395.4737	16.26142
395.64	16.75683
395.8064	17.92483
395.9728	17.71721
396.1391	15.43385
396.3055	16.86714
396.4718	18.05428
396.6381	14.75748
396.8045	12.92002
396.9708	14.21777
397.1371	10.01911
397.3034	16.37864
397.4697	10.47378
397.636	15.76071
397.8023	16.46516
397.9686	21.28317
398.1349	18.36522
398.3012	23.1632
398.4675	18.88369
398.6337	19.50906
398.8	17.21004
398.9662	20.31509
399.1325	16.82773
399.2988	18.00342
399.465	23.54785
399.6313	21.85057
399.7975	20.07681
399.9637	21.62601
400.1299	26.6781
400.2961	23.00387
400.4624	20.07619
400.6286	21.80777
400.7948	16.32507
400.961	23.49113
401.1272	25.32481
401.2934	21.5966
401.4595	20.54912
401.6257	23.2466
401.7919	25.46759
401.9581	23.26999
402.1242	22.70964
402.2904	23.54867
402.4565	23.20078
402.6227	25.75483
402.7888	24.13648
402.955	24.36704
403.1211	22.50154
403.2872	24.89378
403.4533	22.26496
403.6194	22.48834
403.7856	23.33529
403.9517	23.52631
404.1177	27.93808
404.2838	21.51458
404.4499	21.33156
404.616	19.97684
404.7821	20.76243
404.9482	25.21022
405.1142	27.17167
405.2803	21.03568
405.4464	24.48552
405.6124	21.78568
405.7784	19.58083
405.9445	21.79436
406.1105	21.35146
406.2766	20.19189
406.4426	22.85732
406.6086	22.15271
406.7746	25.89079
406.9406	26.61798
407.1066	26.4863
407.2726	25.75984
407.4386	26.25484
407.6046	26.55492
407.7706	21.78253
407.9366	25.63148
408.1025	25.04175
408.2685	25.5419
408.4344	27.78274
408.6004	26.13848
408.7664	27.57982
408.9323	27.65076
409.0983	30.95161
409.2642	34.13223
409.4301	29.62618
409.596	34.06607
409.762	31.89307
409.9279	28.98029
410.0938	24.1051
410.2597	24.40616
410.4256	24.53216
410.5915	28.99973
410.7574	27.9166
410.9232	29.33827
411.0891	30.74483
411.255	31.35135
411.4209	32.3245
411.5867	33.43489
411.7526	29.84362
411.9184	26.43669
412.0843	31.21502
412.2501	32.11441
412.4159	33.58871
412.5818	36.2119
412.7476	31.40168
412.9134	28.79102
413.0792	26.80477
413.245	32.97159
413.4108	36.15667
413.5766	28.19091
413.7424	31.45195
413.9082	32.19772
414.074	30.46616
414.2397	31.89794
414.4055	32.14037
414.5713	33.76127
414.737	28.88794
414.9028	30.70296
415.0685	30.41451
415.2343	29.69585
415.4	27.58981
415.5658	29.08847
415.7315	29.53602
415.8972	36.015
416.0629	30.76424
416.2286	34.46805
416.3943	31.67479
416.56	34.32197
416.7257	31.71168
416.8914	30.06114
417.0571	30.70533
417.2228	29.88936
417.3884	37.35038
417.5541	35.15669
417.7198	28.71284
417.8854	29.09117
418.0511	29.28669
418.2167	34.41282
418.3824	32.48095
418.548	36.31744
418.7136	31.10906
418.8792	29.84564
419.0449	34.22306
419.2105	34.3245
419.3761	35.80371
419.5417	33.35897
419.7073	29.60849
419.8729	28.50779
420.0385	30.6554
420.204	29.5362
420.3696	30.16847
420.5352	36.09104
420.7007	35.30049
420.8663	33.98171
421.0319	37.72313
421.1974	37.44202
421.3629	36.2669
421.5285	37.17165
421.694	37.78756
421.8595	36.41555
422.0251	35.29859
422.1906	33.22372
422.3561	34.967
422.5216	37.18118
422.6871	34.70786
422.8526	38.44371
423.0181	40.19557
423.1835	41.2445
423.349	38.21819
423.5145	35.51053
423.68	37.09852
423.8454	42.22831
424.0109	37.55621
424.1763	39.25082
424.3418	42.5803
424.5072	40.1603
424.6726	34.80279
424.838	41.27221
425.0035	42.34944
425.1689	41.4814
425.3343	38.80909
425.4997	37.2354
425.6651	41.29494
425.8305	39.56693
425.9959	40.58691
426.1613	38.86361
426.3267	45.31408
426.492	47.01163
426.6574	42.42661
426.8228	37.20752
426.9881	37.31287
427.1534	42.56691
427.3188	33.3783
427.4841	30.61867
427.6495	41.85033
427.8148	38.78199
427.9801	39.64574
428.1454	44.24445
428.3107	44.29704
428.476	36.98642
428.6414	39.6404
428.8066	36.62094
428.9719	40.73556
429.1372	37.38711
429.3025	39.0837
429.4678	40.26553
429.633	36.81756
429.7983	36.73819
429.9636	36.15955
430.1288	28.51208
430.294	30.79334
430.4593	32.1163
430.6245	34.70755
430.7897	34.12992
430.955	33.26931
431.1202	32.50748
431.2854	38.25272
431.4506	35.36184
431.6158	42.69788
431.781	46.63519
431.9462	48.02498
432.1114	41.54007
432.2766	43.29161
432.4417	39.90382
432.6069	39.70235
432.772	45.59137
432.9372	51.08131
433.1024	48.55542
433.2675	47.04382
433.4326	48.28253
433.5977	48.50372
433.7629	41.08897
433.928	41.76381
434.0931	43.40375
434.2582	41.16738
434.4233	39.66087
434.5884	45.65574
434.7535	47.12677
434.9186	45.95164
435.0837	48.06676
435.2488	49.45938
435.4138	49.2802
435.5789	48.16276
435.744	46.61925
435.909	50.11771
436.0741	50.79242
436.2391	50.3731
436.4042	57.47515
436.5692	55.30573
436.7342	56.80818
436.8992	51.82178
437.0643	53.7701
437.2293	50.01717
437.3943	45.99434
437.5593	50.08599
437.7243	48.06187
437.8893	53.07138
438.0542	50.55194
438.2192	47.68633
438.3842	43.53936
438.5491	48.04213
438.7141	51.7858
438.8791	48.97936
439.044	49.46347
439.209	48.57899
439.3739	51.93846
439.5388	53.22122
439.7037	55.85165
439.8687	55.32239
440.0336	50.12407
440.1985	51.53035
440.3634	50.82959
440.5283	50.27258
440.6932	50.24372
440.8581	53.84901
441.0229	53.93729
441.1878	59.02668
441.3527	58.26984
441.5175	55.99364
441.6824	54.23098
441.8472	62.40847
442.0121	62.79494
442.1769	58.91371
442.3418	57.95409
442.5066	58.62083
442.6714	61.75165
442.8362	59.63337
443.001	56.75601
443.1659	62.49846
443.3307	58.72507
443.4955	58.66747
443.6602	60.46046
443.825	57.50115
443.9898	56.77649
444.1546	55.54187
444.3193	56.90237
444.4841	59.69191
444.6488	69.89883
444.8136	63.40997
444.9783	60.59023
445.1431	62.06289
445.3078	63.12032
445.4725	59.42001
445.6372	59.8618
445.802	54.13602
445.9667	58.69245
446.1314	62.00281
446.2961	59.21268
446.4608	56.58998
446.6255	59.30785
446.7901	63.67433
446.9548	65.36552
447.1195	61.15658
447.2841	67.50113
447.4488	62.19991
447.6134	63.61525
447.7781	64.22218
447.9427	65.41273
448.1074	64.44722
448.272	60.29636
448.4366	63.41578
448.6012	67.57323
448.7658	62.67322
448.9305	63.59516
449.095	68.42374
449.2596	62.94364
449.4242	67.28672
449.5888	63.89404
449.7534	67.54813
449.9179	69.99931
450.0825	68.44212
450.2471	70.32109
450.4116	70.5645
450.5762	73.43494
450.7407	71.13165
450.9052	71.49995
451.0698	69.05888
451.2343	75.41021
451.3988	63.06078
451.5633	65.88724
451.7278	67.17889
451.8923	68.02847
452.0568	71.13432
452.2213	70.96496
452.3858	71.70644
452.5503	67.70652
452.7148	63.97472
452.8792	64.16999
453.0437	61.76028
453.2081	63.92337
453.3726	65.77572
453.537	67.13334
453.7015	68.50451
453.8659	72.45165
454.0303	72.74832
454.1947	69.87853
454.3592	70.39822
454.5236	65.91444
454.688	67.86048
454.8524	67.82159
455.0168	69.93031
455.1811	76.30511
455.3455	69.81107
455.5099	63.21614
455.6743	74.25095
455.8386	73.84361
456.003	76.0871
456.1673	76.2708
456.3317	78.08344
456.496	72.08822
456.6603	78.40274
456.8246	69.84666
456.989	68.98553
457.1533	77.37708
457.3176	73.98827
457.4819	79.58392
457.6462	78.86634
457.8105	76.65778
457.9748	73.48105
458.1391	68.1228
458.3033	67.14551
458.4676	66.88683
458.6319	72.03964
458.7961	72.64119
458.9604	71.56259
459.1246	74.14467
459.2888	73.96168
459.4531	74.41318
459.6173	72.61141
459.7815	71.29416
459.9457	72.0899
460.11	76.67497
460.2741	75.28706
460.4384	68.14204
460.6025	76.56915
460.7667	81.60531
460.9309	74.39265
461.0951	75.13823
461.2592	75.63261
461.4234	76.9895
461.5876	70.82832
461.7517	64.71997
461.9159	69.14773
462.08	77.7429
462.2441	77.78967
462.4082	76.33961
462.5724	76.51282
462.7365	77.20319
462.9006	72.73299
463.0647	72.94249
463.2288	78.83348
463.3929	77.97368
463.557	74.62902
463.721	75.26036
463.8851	71.94032
464.0492	76.26364
464.2132	74.70859
464.3773	74.29374
464.5414	74.16323
464.7054	74.97289
464.8694	74.05015
465.0334	82.39864
465.1975	78.63959
465.3615	77.10189
465.5255	70.96494
465.6895	77.55371
465.8535	78.88885
466.0175	81.30019
466.1815	81.0287
466.3455	79.48565
466.5095	77.23065
466.6734	70.98268
466.8374	70.65427
467.0014	76.17856
467.1653	74.57314
467.3293	83.81988
467.4932	78.73318
467.6571	78.8239
467.8211	83.58397
467.985	81.42616
468.1489	78.06924
468.3128	78.69123
468.4767	74.26149
468.6406	76.14861
468.8045	76.72872
468.9684	74.84983
469.1323	81.91856
469.2962	82.11517
469.46	79.07575
469.6239	79.73257
469.7878	77.29321
469.9516	80.41661
470.1154	78.7686
470.2793	77.52525
470.4431	75.3886
470.607	69.16584
470.7708	73.12196
470.9346	74.64586
471.0984	76.79057
471.2622	82.88404
471.426	84.98486
471.5898	79.79774
471.7536	80.6647
471.9174	86.25292
472.0811	85.97597
472.2449	87.12569
472.4087	79.50642
472.5724	75.85854
472.7362	80.74618
472.8999	84.15448
473.0637	82.05357
473.2274	78.68307
473.3911	85.36996
473.5548	81.48981
473.7185	81.65457
473.8822	82.57542
474.0459	88.14342
474.2096	81.49078
474.3733	80.41747
474.537	84.55301
474.7007	85.96863
474.8643	81.53749
475.028	79.15446
475.1917	85.34899
475.3553	87.54328
475.519	80.50938
475.6826	71.54198
475.8463	75.35001
476.0099	84.14793
476.1735	78.63223
476.3371	79.14407
476.5007	78.11125
476.6643	81.11416
476.8279	80.49587
476.9915	85.92397
477.1551	83.20515
477.3187	86.94895
477.4823	88.02679
477.6458	88.34268
477.8094	86.11857
477.9729	82.94743
478.1365	88.16414
478.3	81.48692
478.4636	84.88206
478.6271	79.0237
478.7906	80.40321
478.9541	85.76776
479.1176	80.883
479.2812	89.27722
479.4447	86.05245
479.6082	84.55519
479.7716	82.62157
479.9351	81.34198
480.0986	78.1544
480.2621	88.46439
480.4255	81.35085
480.589	83.34154
480.7524	80.592
480.9159	88.63941
481.0793	81.53535
481.2428	77.38887
481.4062	83.27757
481.5696	81.76787
481.733	84.64161
481.8964	88.72563
482.0598	87.8709
482.2232	85.1334
482.3866	80.58221
482.55	81.29736
482.7134	82.98936
482.8768	89.80096
483.0401	86.7887
483.2035	85.59143
483.3668	88.56089
483.5302	85.13277
483.6935	86.16972
483.8568	82.3158
484.0202	81.09718
484.1835	84.27164
484.3468	81.56107
484.5101	75.64758
484.6734	82.31911
484.8367	83.90225
485	83.50797
485.1633	89.26507
485.3266	80.7769
485.4899	76.41376
485.6531	80.86422
485.8164	73.13407
485.9796	71.15222
486.1429	67.34203
486.3061	67.16029
486.4694	73.8783
486.6326	78.70617
486.7958	78.93085
486.959	77.02652
487.1223	77.21053
487.2855	77.84115
487.4486	84.58633
487.6118	83.99713
487.775	87.19617
487.9382	79.92099
488.1014	87.17588
488.2646	86.92395
488.4277	83.69936
488.5909	82.03366
488.754	84.12587
488.9171	85.85735
489.0803	78.70016
489.2434	75.10374
489.4066	83.97263
489.5697	91.81503
489.7328	82.70486
489.8959	82.39016
490.059	85.90243
490.2221	86.38912
490.3852	84.95022
490.5482	83.30506
490.7113	91.55445
490.8744	87.99902
491.0374	87.14846
491.2005	86.63621
491.3636	90.5006
491.5266	89.75819
491.6896	80.02608
491.8527	81.35115
492.0157	77.09147
492.1787	77.95451
492.3417	83.07154
492.5047	79.5062
492.6677	85.77146
492.8307	83.44463
492.9937	92.58208
493.1567	89.2851
493.3196	88.99722
493.4826	92.36168
493.6456	82.52533
493.8085	82.31548
493.9715	87.41523
494.1344	86.33832
494.2974	88.63492
494.4603	91.72246
494.6232	89.2154
494.7861	92.37258
494.949	92.39359
495.1119	92.90669
495.2748	90.00375
495.4377	88.46239
495.6006	86.94175
495.7635	85.9065
495.9264	86.12811
496.0892	85.79296
496.2521	94.06052
496.4149	91.60741
496.5778	87.65668
496.7407	88.16647
496.9035	91.80791
497.0663	93.42696
497.2291	93.54295
497.3919	97.4712
497.5547	93.00219
497.7176	92.64938
497.8804	90.02164
498.0432	90.68309
498.2059	87.9039
498.3687	88.92123
498.5315	89.95908
498.6942	92.07998
498.857	95.04962
499.0198	96.14268
499.1825	95.19556
499.3452	90.52261
499.508	91.56821
499.6707	94.20458
499.8334	87.50492
499.9962	89.22841
500.1589	91.75906
500.3216	91.23221
500.4843	86.50492
500.6469	87.58333
500.8096	92.84186
500.9723	98.21917
501.135	93.68913
501.2976	95.626
501.4603	91.05463
501.623	90.82423
501.7856	92.84924
501.9482	97.08393
502.1109	92.89434
502.2735	90.56812
502.4361	90.47982
502.5987	95.31115
502.7614	92.84003
502.924	98.39754
503.0865	101.5213
503.2491	105.1396
503.4117	103.1955
503.5743	99.02672
503.7368	92.83362
503.8994	96.73633
504.062	93.27505
504.2245	95.96103
504.3871	101.1872
504.5496	106.2029
504.7121	98.57381
504.8746	106.8941
505.0372	104.8137
505.1997	108.2724
505.3622	110.8818
505.5247	112.3547
505.6872	110.9352
505.8497	106.7978
506.0121	112.4898
506.1746	111.3444
506.3371	113.1796
506.4995	106.165
506.662	110.5277
506.8244	112.4802
506.9869	112.206
507.1493	113.3301
507.3117	109.9247
507.4742	112.0034
507.6366	111.0346
507.799	107.1986
507.9614	100.31
508.1238	101.6751
508.2862	105.7704
508.4485	112.3179
508.6109	114.3649
508.7733	117.2138
508.9357	123.1657
509.098	116.7585
509.2604	116.757
509.4227	119.1715
509.5851	116.6634
509.7474	114.7009
509.9097	113.8482
510.072	119.7993
510.2343	124.776
510.3966	119.0028
510.5589	116.6663
510.7212	115.5123
510.8835	112.7344
511.0458	117.676
511.2081	121.4304
511.3703	124.023
511.5326	123.0728
511.6949	124.5018
511.8571	131.3537
512.0193	125.168
512.1816	125.9205
512.3438	126.5104
512.506	120.3115
512.6682	114.9041
512.8304	119.1002
512.9926	121.7861
513.1548	124.0947
513.317	126.4763
513.4792	129.7044
513.6414	128.7339
513.8035	124.6839
513.9657	120.6757
514.1279	121.8499
514.29	120.5719
514.4521	127.5278
514.6143	122.5244
514.7764	126.2206
514.9385	131.8874
515.1006	121.3819
515.2628	130.4348
515.4249	132.2512
515.587	136.3082
515.7491	135.7857
515.9111	130.4323
516.0732	140.658
516.2353	133.3034
516.3973	125.4733
516.5594	120.2491
516.7214	114.4809
516.8835	116.5373
517.0455	114.5278
517.2076	114.8312
517.3696	124.6054
517.5316	129.4057
517.6937	134.3358
517.8557	133.6929
518.0176	135.0773
518.1796	133.2385
518.3416	121.7623
518.5036	120.2014
518.6656	130.1065
518.8275	137.9711
518.9895	141.5547
519.1514	149.1544
519.3134	153.4678
519.4753	149.628
519.6373	144.4414
519.7992	152.2678
519.9611	151.7496
520.123	152.2524
520.2849	154.0789
520.4468	153.5984
520.6087	148.8772
520.7706	152.2644
520.9325	155.9838
521.0944	160.8183
521.2562	160.2615
521.4181	159.4418
521.58	161.1928
521.7418	161.0018
521.9036	161.7592
522.0655	170.6427
522.2273	168.3913
522.3891	165.2808
522.551	159.2563
522.7128	153.8179
522.8746	156.9439
523.0363	169.7756
523.1981	167.3587
523.3599	171.7381
523.5217	169.5048
523.6835	171.078
523.8452	178.5868
524.007	184.2383
524.1687	184.2005
524.3304	179.4831
524.4922	181.0256
524.6539	183.2519
524.8157	190.6849
524.9774	187.903
525.1391	189.2873
525.3008	183.8179
525.4625	189.6074
525.6241	188.1626
525.7858	197.1691
525.9475	197.4147
526.1092	182.12
526.2709	186.4873
526.4325	175.8398
526.5942	172.6884
526.7558	174.1294
526.9174	172.6327
527.079	170.6225
527.2407	185.5832
527.4023	186.744
527.5639	189.7874
527.7255	188.7142
527.8871	204.3554
528.0487	206.4815
528.2103	198.7709
528.3718	193.1993
528.5334	197.019
528.695	209.1821
528.8565	205.7722
529.0181	208.1243
529.1796	214.5373
529.3412	215.5607
529.5027	209.6004
529.6642	207.0728
529.8257	197.343
529.9872	202.3955
530.1487	215.2759
530.3102	210.1546
530.4717	214.6655
530.6332	218.1828
530.7947	216.4264
530.9562	221.277
531.1176	221.2801
531.2791	223.4076
531.4405	221.2112
531.6019	213.6793
531.7634	215.6411
531.9248	214.1732
532.0862	221.5387
532.2477	213.1338
532.4091	205.3069
532.5704	201.1076
532.7319	201.6531
532.8932	203.8702
533.0546	203.9275
533.216	211.7195
533.3774	219.6615
533.5388	220.6669
533.7001	217.2295
533.8615	221.1027
534.0228	213.4162
534.1841	208.3393
534.3455	215.7362
534.5068	215.3782
534.6681	220.7094
534.8293	214.5112
534.9907	224.2308
535.152	226.5281
535.3132	221.0075
535.4745	222.0022
535.6358	231.2137
535.7971	229.6053
535.9583	229.2584
536.1196	221.2667
536.2808	212.4913
536.4421	216.0789
536.6033	217.3198
536.7645	214.8287
536.9258	207.7923
537.087	214.1001
537.2482	220.254
537.4094	218.9206
537.5706	224.3158
537.7318	229.1516
537.8929	227.7044
538.0541	222.4723
538.2153	224.7455
538.3764	228.2499
538.5376	220.1987
538.6987	223.5389
538.8599	225.8036
539.021	215.3452
539.1821	211.6183
539.3432	218.6779
539.5043	215.4425
539.6655	215.8207
539.8265	209.2188
539.9876	213.7527
540.1487	214.4925
540.3098	210.0569
540.4708	207.0546
540.6319	205.1001
540.793	206.0391
540.954	216.4848
541.1151	213.5531
541.2761	214.393
541.4371	220.8498
541.5981	227.9278
541.7592	226.421
541.9202	220.6661
542.0812	222.1656
542.2422	214.0437
542.4031	209.0561
542.5641	213.1434
542.7251	232.4435
542.886	226.8137
543.0471	218.5024
543.208	219.457
543.369	217.4612
543.5298	216.8566
543.6908	224.2345
543.8517	231.6796
544.0126	228.612
544.1736	230.7826
544.3345	225.5496
544.4954	227.5033
544.6563	227.1495
544.8171	223.1969
544.978	230.8178
545.1389	229.9706
545.2997	228.6635
545.4606	223.8649
545.6215	220.2033
545.7823	223.1167
545.9432	229.4684
546.104	228.0874
546.2648	226.3205
546.4256	222.1831
546.5864	217.1744
546.7473	226.4321
546.908	224.6374
547.0688	223.8286
547.2296	227.8353
547.3904	224.7549
547.5511	223.5974
547.7119	224.4011
547.8727	220.8486
548.0334	222.6403
548.1942	225.9954
548.3549	233.0432
548.5156	232.8635
548.6763	234.8077
548.837	230.1795
548.9977	227.9442
549.1584	238.4533
549.3192	240.6892
549.4798	234.1434
549.6405	228.0541
549.8011	234.4282
549.9619	236.0302
550.1225	238.4098
550.2831	231.7774
550.4438	236.2468
550.6044	232.8019
550.765	232.0712
550.9257	228.8075
551.0863	224.11
551.2469	229.5017
551.4075	238.2225
551.5681	224.9087
551.7287	227.3528
551.8893	237.1581
552.0498	241.8829
552.2104	244.9529
552.371	243.273
552.5315	232.7748
552.6921	221.615
552.8526	221.4233
553.0131	227.551
553.1736	226.3657
553.3342	228.7842
553.4947	230.1219
553.6552	230.7609
553.8157	233.4813
553.9762	234.0135
554.1367	237.4153
554.2971	231.4701
554.4576	227.3387
554.618	236.7601
554.7785	229.0225
554.939	238.4753
555.0994	229.2792
555.2598	228.7169
555.4203	230.7598
555.5807	230.5316
555.7411	234.2574
555.9015	221.9056
556.0619	220.5524
556.2223	226.6567
556.3827	225.9328
556.5431	219.612
556.7034	209.9241
556.8638	219.2235
557.0242	220.8556
557.1845	212.8887
557.3448	218.1848
557.5052	211.5905
557.6655	220.3889
557.8259	222.9698
557.9861	224.4848
558.1465	223.2705
558.3068	208.74
558.467	218.3278
558.6274	211.286
558.7877	203.3589
558.9479	202.9392
559.1082	209.7556
559.2684	206.1822
559.4287	212.222
559.5889	213.348
559.7491	205.5009
559.9094	204.061
560.0696	209.9197
560.2299	212.5556
560.3901	213.4283
560.5502	217.6464
560.7104	221.5313
560.8707	215.6691
561.0308	210.2677
561.191	209.6212
561.3511	202.5786
561.5114	198.4539
561.6714	197.2893
561.8316	207.196
561.9918	205.9462
562.1519	205.22
562.312	207.1902
562.4722	201.1614
562.6323	201.7786
562.7924	206.5677
562.9525	211.7869
563.1125	212.0567
563.2726	211.2806
563.4327	207.4435
563.5928	203.41
563.7528	206.849
563.9129	202.4967
564.0729	204.5191
564.233	201.5459
564.393	199.8091
564.553	196.7335
564.7131	197.9707
564.873	202.5492
565.0331	201.2056
565.1931	198.3477
565.353	196.8131
565.5131	192.3908
565.673	185.0994
565.833	185.6513
565.9929	184.3207
566.1529	186.3257
566.3129	188.1164
566.4728	186.3624
566.6328	190.1272
566.7927	190.5773
566.9526	196.8479
567.1125	191.9236
567.2724	193.1057
567.4323	192.971
567.5922	187.3428
567.7521	185.3076
567.9119	192.469
568.0718	191.1243
568.2317	183.8233
568.3915	185.0874
568.5514	186.4847
568.7112	183.0394
568.871	176.9872
569.0309	182.9791
569.1907	188.1436
569.3505	193.3087
569.5103	180.4589
569.6701	182.6806
569.8299	179.6505
569.9897	177.6948
570.1495	183.6246
570.3092	181.8541
570.469	178.6826
570.6287	179.2983
570.7885	174.6748
570.9482	175.8965
571.108	177.5621
571.2677	173.3672
571.4274	173.4241
571.5871	175.9307
571.7468	174.8497
571.9066	174.6315
572.0662	179.8416
572.2259	180.0158
572.3856	172.6419
572.5452	175.53
572.7049	171.4576
572.8646	179.3939
573.0242	173.4686
573.1838	170.5337
573.3435	168.9974
573.5031	170.3015
573.6627	175.5702
573.8223	168.5305
573.9819	173.0531
574.1415	171.4153
574.3011	166.5778
574.4607	170.8365
574.6203	174.0572
574.7798	170.344
574.9394	165.657
575.099	161.2381
575.2585	163.5725
575.418	159.6717
575.5776	162.8689
575.7371	166.5546
575.8966	164.6819
576.0562	161.4609
576.2156	158.8027
576.3751	162.5919
576.5346	166.3154
576.6941	160.1678
576.8536	163.6569
577.0131	170.1044
577.1725	169.1357
577.332	165.9132
577.4914	169.846
577.6508	161.408
577.8103	162.7108
577.9697	160.0798
578.1291	162.9862
578.2885	163.2201
578.4479	158.0295
578.6073	155.3497
578.7667	153.935
578.9261	154.1061
579.0854	157.8155
579.2448	157.7417
579.4042	163.2521
579.5635	162.6908
579.7229	157.05
579.8822	157.2515
580.0416	159.3521
580.2009	154.7579
580.3602	158.1211
580.5195	152.4505
580.6788	152.7681
580.8381	152.8553
580.9974	157.6398
581.1566	157.3201
581.3159	148.6749
581.4752	149.5153
581.6345	148.0934
581.7937	150.59
581.9529	156.9421
582.1122	149.9054
582.2714	154.4926
582.4306	160.4373
582.5898	156.2666
582.749	143.0006
582.9082	142.7426
583.0674	149.4162
583.2266	150.8651
583.3857	148.0269
583.5449	152.8529
583.7041	150.0951
583.8633	145.3997
584.0224	153.0253
584.1815	151.3444
584.3407	149.6491
584.4998	144.8785
584.6589	143.1828
584.818	141.9462
584.9771	145.752
585.1362	140.8126
585.2953	142.9127
585.4544	141.4084
585.6135	138.6464
585.7725	137.3227
585.9316	139.9489
586.0906	140.7695
586.2497	147.6579
586.4087	144.3471
586.5677	138.4307
586.7267	145.3096
586.8858	142.2666
587.0448	142.2255
587.2038	141.5884
587.3628	137.258
587.5218	139.3143
587.6807	136.5602
587.8397	138.1681
587.9987	143.3721
588.1577	136.1404
588.3166	136.2509
588.4755	131.7944
588.6345	129.2345
588.7934	124.6045
588.9523	125.236
589.1112	121.914
589.2701	124.2442
589.429	124.8307
589.5879	122.5888
589.7468	127.979
589.9056	125.2282
590.0645	125.3833
590.2234	131.4283
590.3822	132.2421
590.5411	128.0999
590.6999	126.5472
590.8588	127.964
591.0176	131.3583
591.1764	135.1731
591.3352	134.7903
591.494	130.2621
591.6528	125.0575
591.8116	126.0418
591.9703	125.1277
592.1291	126.6094
592.2878	127.0516
592.4467	129.7717
592.6053	126.3213
592.7641	126.5735
592.9229	130.4931
593.0816	126.3966
593.2403	128.7988
593.399	130.0652
593.5577	128.2845
593.7164	122.7172
593.8751	127.191
594.0338	125.7463
594.1924	127.4329
594.3511	124.8701
594.5098	127.7553
594.6684	124.0804
594.8271	124.1433
594.9857	123.6958
595.1443	129.6492
595.303	128.9102
595.4615	122.0608
595.6202	125.8553
595.7787	124.2615
595.9374	127.8336
596.0959	126.1032
596.2545	125.6172
596.4131	127.2511
596.5717	119.2943
596.7302	123.7032
596.8887	119.2444
597.0473	124.0552
597.2058	129.2362
597.3644	131.7418
597.5229	126.0078
597.6814	128.742
597.8399	127.2131
597.9984	120.7261
598.1569	121.6828
598.3154	128.223
598.4738	128.9642
598.6323	128.1098
598.7908	128.9881
598.9492	121.2276
599.1076	124.6036
599.2661	127.9747
599.4245	128.9888
599.5829	124.714
599.7413	131.015
599.8997	127.4379
600.0581	121.0396
600.2165	124.1697
600.3749	125.7548
600.5333	122.6215
600.6917	122.0021
600.85	124.5451
601.0084	128.2903
601.1667	127.6416
601.325	121.3952
601.4833	121.6719
601.6417	122.6587
601.8	124.9428
601.9583	122.7323
602.1166	118.4726
602.2749	121.5925
602.4332	124.4695
602.5914	119.9906
602.7498	120.0156
602.908	123.8037
603.0662	125.4136
603.2245	128.1438
603.3828	122.9514
603.541	125.8331
603.6992	127.2201
603.8574	124.4995
604.0156	125.5238
604.1738	123.0751
604.332	117.3891
604.4902	115.6863
604.6484	122.9944
604.8065	121.4291
604.9647	122.826
605.1229	124.5415
605.281	122.6168
605.4391	123.5718
605.5973	124.8963
605.7554	120.2095
605.9135	121.2169
606.0717	123.4333
606.2297	120.1818
606.3878	120.8123
606.5459	119.3823
606.704	114.2246
606.8621	113.7684
607.0201	120.4629
607.1782	122.2296
607.3362	123.0017
607.4943	119.736
607.6523	119.0976
607.8104	121.5398
607.9684	120.1161
608.1264	120.5954
608.2844	116.0389
608.4424	118.3692
608.6003	117.4857
608.7584	118.9206
608.9163	120.2907
609.0743	117.6589
609.2322	119.1039
609.3902	117.2649
609.5482	120.3477
609.7061	111.5552
609.864	115.84
610.0219	109.7006
610.1798	112.8801
610.3377	118.4213
610.4956	114.068
610.6535	113.6038
610.8114	116.1546
610.9693	116.9411
611.1271	115.1039
611.285	119.6131
611.4429	114.3583
611.6007	110.5932
611.7585	105.2905
611.9164	108.664
612.0742	104.6797
612.232	113.607
612.3898	113.2158
612.5476	115.2892
612.7054	109.4539
612.8632	108.4738
613.0209	104.5258
613.1787	107.6843
613.3365	111.7805
613.4942	115.4475
613.652	105.4369
613.8097	104.234
613.9674	106.3135
614.1252	104.2853
614.2829	101.8951
614.4406	107.7209
614.5983	109.155
614.756	111.8558
614.9136	115.066
615.0714	109.0803
615.229	113.5107
615.3867	104.4948
615.5443	107.021
615.702	104.2057
615.8596	103.2433
616.0172	100.0133
616.1748	96.99267
616.3325	100.1984
616.4901	104.0568
616.6476	100.8092
616.8052	96.33115
616.9628	100.8825
617.1204	95.39423
617.278	101.7561
617.4355	107.9197
617.5931	104.7898
617.7506	96.27629
617.9081	102.8704
618.0657	105.016
618.2232	104.4944
618.3807	105.6258
618.5382	104.2367
618.6957	105.9328
618.8532	102.5774
619.0107	103.1786
619.1682	101.37
619.3256	101.5686
619.4831	105.6396
619.6406	105.4694
619.798	98.72004
619.9554	105.5752
620.1129	107.9645
620.2703	99.87092
620.4277	102.4175
620.5851	102.2538
620.7425	96.31006
620.8998	104.8951
621.0573	104.0292
621.2146	100.7866
621.372	97.27966
621.5294	94.48116
621.6867	98.16201
621.8441	97.30929
622.0013	101.027
622.1587	96.65839
622.316	104.1525
622.4733	105.0855
622.6306	99.84127
622.7879	100.8636
622.9452	99.36871
623.1025	95.48279
623.2598	101.2474
623.4171	96.18261
623.5743	101.4137
623.7316	99.01651
623.8888	95.99706
624.046	96.91082
624.2032	94.30953
624.3605	95.69881
624.5176	106.2032
624.6749	98.10376
624.8321	97.50773
624.9893	98.46394
625.1464	102.9473
625.3036	98.6478
625.4608	97.09951
625.6179	95.20979
625.7751	94.36507
625.9322	92.36263
626.0894	96.6441
626.2465	100.0768
626.4036	99.88171
626.5607	96.38667
626.7178	95.04955
626.8749	91.75484
627.032	97.30039
627.189	95.712
627.3461	96.94562
627.5032	94.37827
627.6602	96.89202
627.8173	93.14428
627.9743	95.75166
628.1313	89.40452
628.2884	94.21703
628.4454	93.65302
628.6024	89.30541
628.7594	91.98444
628.9164	95.621
629.0734	94.30065
629.2303	95.08612
629.3873	96.18363
629.5443	97.67182
629.7012	91.04408
629.8582	89.50322
630.0151	92.62339
630.172	90.17365
630.3289	88.81453
630.4858	90.31381
630.6428	93.37295
630.7996	91.69228
630.9565	91.72958
631.1134	100.9503
631.2703	94.08406
631.4272	89.18423
631.584	89.42854
631.7408	83.96115
631.8977	93.09639
632.0546	92.91041
632.2114	89.86006
632.3682	88.1769
632.525	93.71744
632.6818	96.21638
632.8386	95.25019
632.9954	93.98447
633.1522	93.73718
633.3089	94.44788
633.4657	96.36436
633.6224	89.26514
633.7792	91.32796
633.9359	93.0699
634.0927	92.96363
634.2494	89.86743
634.4061	90.22674
634.5628	89.21722
634.7195	90.12183
634.8762	92.56999
635.0329	89.03266
635.1895	93.12132
635.3462	90.11581
635.5029	89.88591
635.6595	88.38809
635.8162	97.42582
635.9728	94.89042
636.1295	88.77517
636.2861	89.43308
636.4427	94.83526
636.5992	85.11178
636.7559	90.71356
636.9124	89.64837
637.069	87.81515
637.2256	87.99437
637.3821	88.62044
637.5387	84.82785
637.6953	86.61974
637.8518	92.32814
638.0084	93.68623
638.1649	89.63934
638.3214	90.68514
638.4779	90.11451
638.6344	89.01385
638.7909	89.60004
638.9474	84.50595
639.1038	91.26007
639.2603	89.64452
639.4167	84.52198
639.5732	83.27774
639.7297	87.6993
639.8861	88.62299
640.0425	87.33599
640.199	89.88003
640.3553	84.45282
640.5118	86.10612
640.6682	84.01781
640.8245	88.99519
640.981	84.99468
641.1373	87.18569
641.2936	84.20325
641.45	87.70738
641.6064	81.2051
641.7627	80.17349
641.9191	86.11353
642.0754	81.564
642.2317	83.19713
642.388	87.15728
642.5443	84.5731
642.7006	87.40108
642.8569	85.03227
643.0131	82.42179
643.1694	84.1567
643.3257	84.26698
643.4819	76.87997
643.6382	82.04947
643.7944	76.92126
643.9506	78.97948
644.1069	79.01563
644.2631	80.48465
644.4193	87.74171
644.5754	86.03196
644.7316	85.83731
644.8878	82.5079
645.044	81.33741
645.2002	81.14407
645.3563	79.60721
645.5125	81.3464
645.6686	79.17165
645.8248	75.19247
645.9809	77.58109
646.137	75.5048
646.2931	76.99648
646.4492	77.91251
646.6053	78.88262
646.7614	75.54174
646.9174	76.46147
647.0735	73.64854
647.2296	70.59087
647.3856	73.78156
647.5417	75.34256
647.6977	76.58796
647.8537	69.71373
648.0098	73.5625
648.1658	73.62444
648.3218	73.34373
648.4777	73.11395
648.6337	73.67587
648.7897	77.05017
648.9457	76.13935
649.1016	70.03242
649.2576	72.75039
649.4135	76.2484
649.5695	73.50359
649.7254	69.63779
649.8813	66.10178
650.0372	72.97969
650.1932	74.52681
650.3491	76.71901
650.5049	77.32613
650.6608	70.46218
650.8167	64.45481
650.9725	72.44785
651.1284	72.86823
651.2842	72.33845
651.4401	76.58967
651.5959	75.20094
651.7518	69.6649
651.9076	68.71818
652.0634	72.7338
652.2192	72.11166
652.3749	74.23546
652.5308	72.50163
652.6865	74.63955
652.8423	72.13871
652.998	71.59627
653.1538	72.18477
653.3096	68.48803
653.4653	67.72488
653.621	68.3432
653.7767	71.31284
653.9324	70.49161
654.0881	70.55712
654.2438	70.69183
654.3995	70.2822
654.5552	71.92229
654.7109	72.68671
654.8665	68.25545
655.0222	76.46434
655.1778	68.4604
655.3334	68.97828
655.4891	69.12965
655.6447	69.26485
655.8003	68.21342
655.9559	61.17606
656.1115	60.38674
656.2671	59.2673
656.4227	61.26751
656.5782	62.30023
656.7338	60.59611
656.8893	66.15926
657.0449	61.43493
657.2004	68.43208
657.356	71.91103
657.5115	71.36029
657.667	68.30486
657.8225	74.21089
657.978	72.49446
658.1335	69.94056
658.289	69.5317
658.4445	67.32864
658.5999	69.8188
658.7554	69.16489
658.9108	69.2993
659.0663	68.09768
659.2217	71.54065
659.3771	68.05549
659.5325	68.30416
659.6879	67.47639
659.8433	71.61662
659.9987	66.88701
660.1541	69.4677
660.3095	68.78067
660.4648	68.07547
660.6202	65.89645
660.7756	66.20943
660.9309	72.10883
661.0862	70.58324
661.2416	68.91663
661.3969	68.92856
661.5522	68.95485
661.7075	67.52189
661.8628	63.30009
662.0181	67.76837
662.1733	62.30882
662.3286	63.44151
662.4839	68.51118
662.6391	70.46277
662.7944	64.93625
662.9496	61.63002
663.1048	68.75631
663.26	67.8225
663.4152	69.51995
663.5704	66.72078
663.7256	66.6375
663.8808	65.0574
664.036	63.74395
664.1912	61.93466
664.3463	67.79155
664.5015	63.14646
664.6566	62.58103
664.8118	58.8881
664.9669	64.37046
665.122	62.24518
665.2771	65.63938
665.4322	61.86267
665.5873	68.15068
665.7424	64.72254
665.8975	64.94738
666.0526	61.32949
666.2076	63.96027
666.3627	56.11769
666.5177	64.03537
666.6727	63.39128
666.8278	68.08133
666.9828	62.76611
667.1378	58.11717
667.2928	60.05873
667.4478	59.08657
667.6028	63.27563
667.7578	63.2521
667.9127	59.18764
668.0677	66.45867
668.2226	62.8278
668.3776	63.52512
668.5325	66.19659
668.6874	66.02428
668.8423	59.62733
668.9973	61.22355
669.1522	64.31187
669.3071	60.41986
669.4619	63.87727
669.6168	62.48983
669.7717	60.73143
669.9265	55.32976
670.0814	55.05664
670.2362	59.90794
670.3911	58.95526
670.5459	61.08996
670.7007	60.91375
670.8555	62.10246
671.0103	63.02041
671.1651	60.32535
671.3199	58.70082
671.4747	53.70736
671.6295	61.56521
671.7842	57.84003
671.939	59.30663
672.0937	54.90502
672.2484	60.67183
672.4031	61.03946
672.5579	59.15968
672.7126	56.0821
672.8673	55.88005
673.022	56.53584
673.1767	60.24799
673.3314	55.44309
673.486	54.75182
673.6407	57.67716
673.7953	64.40134
673.95	59.74162
674.1046	54.56859
674.2592	56.65262
674.4138	55.54334
674.5684	61.81295
674.723	61.64015
674.8776	58.63519
675.0322	58.44812
675.1868	57.35162
675.3414	56.46469
675.4959	54.32285
675.6505	56.48975
675.805	55.71978
675.9595	52.38437
676.1141	57.72921
676.2686	62.89849
676.4231	62.13521
676.5776	61.33617
676.7321	63.71473
676.8866	60.50816
677.041	62.06881
677.1955	58.73365
677.35	59.87748
677.5044	64.02866
677.6589	57.65217
677.8133	57.2178
677.9677	55.45171
678.1221	59.71595
678.2766	61.1297
678.4309	53.29652
678.5853	53.749
678.7397	56.68401
678.8941	51.95406
679.0485	61.15906
679.2028	57.42794
679.3571	60.30498
679.5115	57.89306
679.6658	56.57977
679.8201	56.88451
679.9744	52.89104
680.1288	57.27467
680.2831	63.11726
680.4373	58.2086
680.5916	62.09727
680.7459	58.90646
680.9001	58.20332
681.0544	54.60391
681.2087	58.12772
681.3629	57.42646
681.5171	60.08491
681.6713	58.14835
681.8256	56.63492
681.9797	54.17444
682.134	53.74376
682.2881	60.97424
682.4423	61.76675
682.5965	54.55087
682.7507	62.46177
682.9048	58.92939
683.059	58.87342
683.2131	60.70351
683.3672	56.76409
683.5213	56.91952
683.6754	60.34993
683.8295	57.50132
683.9836	50.82968
684.1377	59.28874
684.2918	59.27138
684.4459	57.0109
684.5999	53.96885
684.754	56.89222
684.908	56.76791
685.062	56.76488
685.2161	56.05346
685.3701	55.44178
685.5241	60.73743
685.6781	57.56727
685.8321	57.04367
685.9861	61.91082
686.14	61.33284
686.294	56.2345
686.4479	59.1286
686.6019	56.36908
686.7559	54.55233
686.9098	60.0551
687.0637	54.13089
687.2176	49.68891
687.3715	53.22858
687.5254	56.6275
687.6793	56.04834
687.8332	55.61114
687.9871	57.68815
688.1409	56.52607
688.2947	56.92018
688.4486	51.08492
688.6024	50.83371
688.7563	56.76996
688.9101	55.7605
689.0639	57.11808
689.2177	59.01298
689.3715	53.05052
689.5253	54.35051
689.6791	53.94204
689.8328	54.38461
689.9866	55.44489
690.1403	57.78494
690.2941	65.78536
690.4478	65.22469
690.6015	63.9761
690.7552	58.16163
690.9089	59.26138
691.0626	58.55462
691.2164	63.85194
691.37	63.63782
691.5237	65.169
691.6774	67.50272
691.831	65.52915
691.9847	67.40076
692.1383	66.64474
692.2919	64.1834
692.4456	71.43871
692.5992	69.36216
692.7527	65.54974
692.9064	61.65518
693.0599	60.74164
693.2136	65.40462
693.3671	68.62782
693.5207	64.87866
693.6742	66.55302
693.8278	65.83236
693.9813	65.29395
694.1348	69.40355
694.2883	64.35049
694.4418	64.76614
694.5953	68.09586
694.7488	68.08068
694.9023	69.33982
695.0558	72.96931
695.2093	73.68301
695.3627	70.22324
695.5162	70.05243
695.6696	75.63957
695.8231	73.8011
695.9764	71.33408
696.1299	77.62435
696.2833	81.88519
696.4367	78.43871
696.5901	72.37758
696.7435	76.1795
696.8968	82.85912
697.0502	79.05756
697.2036	77.24101
697.3569	77.3069
697.5102	81.33709
697.6635	82.68266
697.8168	80.79214
697.9702	81.3254
698.1235	81.5943
698.2768	82.91459
698.4301	84.65858
698.5833	79.46815
698.7366	84.14201
698.8898	85.62434
699.0431	85.06421
699.1964	82.06668
699.3495	81.6768
699.5028	84.89783
699.656	86.26225
699.8092	87.03945
699.9624	86.42809
700.1156	84.3923
700.2688	79.61452
700.4219	83.63583
700.5751	83.22465
700.7283	84.60232
700.8814	94.13132
701.0345	86.11239
701.1877	90.26694
701.3408	93.40864
701.4939	88.12328
701.647	88.00179
701.8001	91.646
701.9532	95.62459
702.1063	94.0139
702.2593	98.32074
702.4124	96.12379
702.5654	90.60191
702.7184	91.58752
702.8715	97.35663
703.0245	99.4717
703.1776	95.99046
703.3305	102.3412
703.4835	102.1045
703.6365	104.3375
703.7895	99.83284
703.9424	97.5067
704.0954	93.86867
704.2484	104.2882
704.4013	109.6716
704.5543	107.7126
704.7072	108.5135
704.8601	108.7511
705.013	104.7877
705.1659	105.4031
705.3188	105.7755
705.4717	108.0725
705.6246	106.4446
705.7774	106.8114
705.9303	111.1795
706.0831	114.6626
706.236	113.1217
706.3888	112.2749
706.5416	113.1962
706.6944	111.0388
706.8472	117.7436
707	121.4258
707.1528	112.6398
707.3056	109.1688
707.4583	114.2158
707.6111	116.2157
707.7639	122.6585
707.9166	122.0616
708.0693	122.7248
708.222	118.342
708.3748	114.2135
708.5275	112.9463
708.6802	115.3745
708.8328	113.8496
708.9855	117.2492
709.1382	124.9236
709.2909	123.0438
709.4435	129.0766
709.5962	127.0647
709.7488	124.9132
709.9014	131.8164
710.054	135.4688
710.2067	130.8408
710.3593	129.7763
710.5118	127.2041
710.6644	122.9314
710.817	124.8291
710.9695	126.6786
711.1221	130.034
711.2747	133.5461
711.4272	129.3713
711.5797	130.7862
711.7322	126.9297
711.8848	128.5929
712.0373	133.89
712.1898	129.0876
712.3422	129.2938
712.4948	132.3724
712.6472	135.3762
712.7996	136.4202
712.9521	131.9657
713.1046	134.3862
713.257	130.0571
713.4094	136.269
713.5618	136.6711
713.7142	140.7534
713.8666	138.177
714.019	139.7345
714.1714	138.4502
714.3237	140.7488
714.4761	139.4441
714.6285	135.8374
714.7808	133.3418
714.9331	132.6701
715.0854	136.6899
715.2378	135.6644
715.3901	135.8723
715.5424	143.0539
715.6947	141.208
715.8469	140.2063
715.9992	138.0828
716.1515	140.8648
716.3037	137.9412
716.456	137.5499
716.6082	133.9123
716.7604	133.3931
716.9127	132.7109
717.0649	127.4437
717.2171	129.4273
717.3693	125.6338
717.5214	127.4345
717.6736	128.0752
717.8258	127.747
717.978	122.4611
718.1301	132.0844
718.2822	132.8536
718.4344	122.1391
718.5865	116.3848
718.7386	127.1438
718.8907	129.3036
719.0428	132.8514
719.1949	126.9728
719.3469	127.2035
719.499	126.9051
719.6511	130.9986
719.8031	128.9361
719.9551	129.0956
720.1072	125.288
720.2592	130.779
720.4112	124.719
720.5632	125.9147
720.7152	135.056
720.8672	137.0603
721.0192	146.0128
721.1711	148.0779
721.3231	154.1741
721.475	157.0007
721.627	160.5055
721.7789	155.3809
721.9308	160.7278
722.0828	160.3702
722.2347	153.3591
722.3866	155.8697
722.5385	156.4307
722.6903	159.7103
722.8422	153.2598
722.9941	156.6524
723.1459	151.9814
723.2977	143.2834
723.4496	139.4284
723.6014	143.958
723.7532	144.7931
723.905	150.6954
724.0568	150.2155
724.2086	149.1767
724.3604	148.2139
724.5121	155.0783
724.6639	156.3386
724.8157	160.3519
724.9674	158.8745
725.1191	153.1321
725.2709	146.8793
725.4226	151.5837
725.5743	154.7526
725.726	161.2457
725.8777	157.6682
726.0294	153.9629
726.181	156.4095
726.3327	151.1095
726.4844	152.0894
726.636	158.3044
726.7877	162.2
726.9393	168.8865
727.0909	166.6747
727.2425	165.1538
727.3941	164.8317
727.5457	147.0253
727.6973	144.5922
727.8488	152.4821
728.0004	159.8555
728.1519	166.7002
728.3035	174.7043
728.455	171.5062
728.6066	172.6356
728.7581	167.8918
728.9095	162.2687
729.0611	152.6999
729.2126	153.3472
729.364	158.8119
729.5155	164.9121
729.667	174.7161
729.8184	171.1625
729.9698	168.6682
730.1213	171.5228
730.2727	175.8398
730.4241	170.6471
730.5756	177.9156
730.7269	173.8497
730.8784	176.4993
731.0297	172.97
731.1811	171.0188
731.3325	172.3534
731.4838	181.5008
731.6351	185.7239
731.7865	179.17
731.9378	179.4588
732.0891	185.2541
732.2404	189.968
732.3917	192.9053
732.543	191.1702
732.6943	189.8423
732.8456	199.0154
732.9968	196.3899
733.1481	194.7168
733.2993	191.7776
733.4506	190.2796
733.6018	197.2502
733.753	204.0993
733.9042	204.2778
734.0554	201.8534
734.2066	194.4653
734.3578	199.8387
734.509	195.4478
734.6602	195.0932
734.8113	205.5251
734.9624	204.4856
735.1136	206.3983
735.2647	203.824
735.4158	201.4234
735.5669	201.294
735.718	203.2552
735.8691	208.1917
736.0201	198.4485
736.1713	196.2825
736.3223	203.6328
736.4733	203.6315
736.6244	204.1098
736.7755	205.1419
736.9265	205.6714
737.0775	206.3903
737.2285	211.5297
737.3795	208.818
737.5305	211.0435
737.6815	212.3078
737.8324	212.872
737.9834	214.2802
738.1343	216.7213
738.2853	213.8024
738.4362	210.5097
738.5871	209.565
738.738	203.4581
738.8889	205.9294
739.0399	206.837
739.1907	208.191
739.3416	208.631
739.4925	211.3966
739.6433	214.2956
739.7942	208.8107
739.945	210.8721
740.0958	215.3264
740.2467	219.5411
740.3975	213.8939
740.5483	215.7392
740.6991	211.8513
740.8499	205.7254
741.0007	204.0596
741.1514	217.417
741.3022	217.6194
741.4529	206.3687
741.6036	213.4568
741.7544	219.6899
741.9051	215.1593
742.0558	209.8891
742.2065	213.3122
742.3572	215.716
742.5079	214.6326
742.6586	217.2459
742.8093	221.9356
742.9599	215.3822
743.1105	212.333
743.2612	217.6033
743.4118	222.9274
743.5624	222.9462
743.7131	220.2991
743.8636	218.4696
744.0142	220.544
744.1648	222.8121
744.3154	222.351
744.4659	216.0926
744.6165	211.1024
744.767	221.3321
744.9176	215.9877
745.0681	214.3482
745.2186	218.4009
745.3691	215.1407
745.5197	214.918
745.6702	217.2483
745.8206	214.7762
745.9711	215.6016
746.1215	220.4915
746.272	219.0272
746.4224	212.4106
746.5729	209.8016
746.7233	211.1778
746.8737	218.4331
747.0241	210.9469
747.1745	212.8091
747.3249	211.8439
747.4753	206.762
747.6257	208.401
747.776	211.4542
747.9264	203.7992
748.0767	207.0151
748.2271	218.6966
748.3774	214.2178
748.5276	211.8962
748.678	212.6899
748.8282	212.8524
748.9786	216.6264
749.1288	217.485
749.2791	208.5233
749.4294	206.6453
749.5796	208.2706
749.7299	206.7469
749.8801	208.1893
750.0303	206.2233
750.1805	207.347
750.3307	206.2101
750.4809	209.6945
750.6311	209.5993
750.7813	211.1875
750.9314	208.4168
751.0816	206.0431
751.2318	202.5524
751.3818	205.6796
751.532	203.2019
751.6821	203.8617
751.8322	209.1115
751.9823	208.9082
752.1324	201.6698
752.2825	204.0882
752.4326	205.5122
752.5826	208.9479
752.7327	203.7558
752.8827	202.3151
753.0327	191.4229
753.1827	199.2419
753.3328	206.7442
753.4828	205.3623
753.6328	209.4256
753.7828	212.3872
753.9327	206.5947
754.0827	200.5632
754.2327	200.119
754.3826	197.7523
754.5325	194.9829
754.6825	195.8333
754.8324	202.4477
754.9823	198.015
755.1322	198.7787
755.2821	193.6563
755.432	191.8061
755.5818	189.1233
755.7318	194.2613
755.8816	198.3204
756.0314	196.3596
756.1813	200.3128
756.3311	200.0861
756.4809	194.938
756.6307	191.4764
756.7805	182.4802
756.9303	190.0736
757.0801	188.7295
757.2299	188.9692
757.3796	196.3551
757.5294	192.9326
757.6791	191.6421
757.8289	194.4078
757.9786	191.9728
758.1283	192.7696
758.278	189.5631
758.4277	186.7316
758.5773	184.4266
758.7271	182.7687
758.8767	183.62
759.0264	188.8725
759.176	179.5943
759.3256	165.0053
759.4753	133.4131
759.6249	108.835
759.7745	90.39201
759.9241	79.80044
760.0737	69.63298
760.2233	60.66079
760.3729	59.99581
760.5224	52.73492
760.6719	49.71669
760.8215	54.61104
760.971	58.68822
761.1205	59.677
761.2701	72.38778
761.4196	82.70443
761.5691	98.32436
761.7186	117.9418
761.868	130.2624
762.0175	129.1366
762.167	120.202
762.3164	109.5921
762.4659	100.5397
762.6153	92.01588
762.7647	83.12001
762.9141	81.99202
763.0635	85.31859
763.2129	87.58768
763.3623	86.73768
763.5117	82.94961
763.661	94.58819
763.8104	91.2897
763.9597	97.61726
764.1091	100.9457
764.2584	106.6857
764.4077	109.9637
764.557	110.1368
764.7063	115.3311
764.8556	120.2266
765.0049	120.1098
765.1541	122.7373
765.3034	122.3177
765.4526	129.1342
765.6019	133.1971
765.7511	133.6581
765.9003	130.9993
766.0496	132.4391
766.1987	128.4282
766.348	135.2453
766.4971	137.3355
766.6463	138.2158
766.7955	144.7626
766.9446	146.9146
767.0938	146.3674
767.2429	148.3859
767.392	154.7698
767.5411	154.4555
767.6902	154.0881
767.8394	149.5405
767.9884	154.9762
768.1375	155.3858
768.2866	154.0873
768.4356	160.5827
768.5847	155.2513
768.7337	154.5849
768.8828	158.5099
769.0317	155.4326
769.1808	154.337
769.3298	160.7799
769.4788	162.1788
769.6277	157.5082
769.7767	154.8123
769.9257	156.0243
770.0746	156.6628
770.2236	158.7699
770.3725	161.6975
770.5214	159.3162
770.6703	160.4113
770.8193	159.8377
770.9681	152.9328
771.1171	157.6747
771.2659	157.7692
771.4148	157.6581
771.5637	154.5134
771.7125	161.1033
771.8613	155.4255
772.0101	152.749
772.159	155.3704
772.3078	155.4592
772.4566	159.5265
772.6054	158.8765
772.7542	156.2353
772.903	149.7356
773.0517	152.0369
773.2004	152.2243
773.3492	153.3035
773.4979	154.3757
773.6467	157.7263
773.7953	156.7592
773.944	152.3381
774.0928	150.0125
774.2415	148.9851
774.3901	152.9752
774.5388	145.2263
774.6874	146.2701
774.8361	151.0731
774.9847	149.777
775.1334	153.8228
775.282	144.0032
775.4305	146.4096
775.5792	144.7216
775.7277	149.6069
775.8763	152.9059
776.0249	149.7714
776.1735	153.049
776.322	146.8131
776.4705	151.3422
776.6191	154.1367
776.7676	147.7823
776.9161	144.9883
777.0646	146.0149
777.2131	147.4552
777.3616	142.3313
777.5101	142.6327
777.6585	141.9652
777.8069	149.6947
777.9554	151.2393
778.1038	148.7539
778.2523	142.1074
778.4007	144.3242
778.5491	148.6507
778.6974	148.8162
778.8459	141.9068
778.9942	140.5779
779.1426	143.3049
779.291	139.7632
779.4393	144.5238
779.5876	147.8296
779.736	145.4323
779.8843	144.7832
780.0326	140.8119
780.1809	141.55
780.3292	145.5146
780.4775	150.7787
780.6257	141.0255
780.774	142.7003
780.9222	143.6274
781.0704	144.2832
781.2187	138.0172
781.3669	144.2865
781.5151	145.7261
781.6633	144.6062
781.8115	139.8274
781.9597	141.8165
782.1078	139.7899
782.256	141.5358
782.4042	145.5504
782.5523	138.6633
782.7004	136.6472
782.8486	135.9322
782.9967	141.7012
783.1448	137.3547
783.2929	135.9382
783.441	133.5863
783.5891	130.8844
783.7371	129.5394
783.8851	134.3425
784.0332	139.9741
784.1812	135.1371
784.3293	131.2604
784.4773	135.7625
784.6253	137.0589
784.7733	135.0039
784.9213	139.0425
785.0692	136.5572
785.2172	134.2791
785.3652	140.6049
785.5131	142.5264
785.6611	134.6735
785.809	138.8481
785.9569	132.412
786.1048	133.9855
786.2527	133.6766
786.4006	134.885
786.5485	137.2465
786.6964	130.6487
786.8442	126.888
786.9921	133.2657
787.1399	136.3726
787.2877	135.3435
787.4355	127.3599
787.5833	126.6941
787.7311	121.7103
787.8789	122.4084
788.0267	122.3545
788.1745	128.4925
788.3223	125.1704
788.47	125.5104
788.6177	126.2855
788.7654	123.5281
788.9132	127.2265
789.0609	127.5951
789.2086	131.3383
789.3563	131.462
789.504	123.7989
789.6517	124.1006
789.7993	128.5151
789.947	126.2788
790.0946	128.8015
790.2422	126.8454
790.3898	124.479
790.5375	127.7151
790.6851	127.4394
790.8326	119.9963
790.9802	125.2445
791.1278	120.3342
791.2754	122.4258
791.423	119.9883
791.5705	121.2018
791.718	121.3403
791.8655	122.9436
792.0131	123.1616
792.1606	124.9116
792.308	124.1953
792.4556	114.6974
792.603	116.816
792.7505	124.69
792.8979	117.4345
793.0454	119.703
793.1928	117.0941
793.3403	117.2476
793.4877	120.4971
793.6351	118.0955
793.7825	118.7827
793.9299	123.1992
794.0772	121.9459
794.2246	125.199
794.3719	117.298
794.5193	113.4555
794.6666	120.3916
794.814	119.2078
794.9613	119.8817
795.1086	115.5141
795.2559	117.5987
795.4032	123.1954
795.5505	113.1121
795.6978	114.4028
795.845	121.3795
795.9922	115.2655
796.1395	107.5378
796.2867	112.8824
796.4339	113.9077
796.5811	116.2335
796.7283	115.4914
796.8755	113.1008
797.0227	120.6586
797.1699	120.3992
797.317	115.6789
797.4642	112.712
797.6113	113.0205
797.7584	112.1561
797.9056	116.0855
798.0527	116.7106
798.1998	115.4038
798.3469	119.0832
798.494	115.0383
798.641	111.1566
798.7881	111.3393
798.9351	109.9099
799.0822	114.2001
799.2292	119.5402
799.3762	113.1069
799.5232	110.7864
799.6702	112.427
799.8172	113.1737
799.9642	113.0087
800.1111	110.303
800.2581	113.5579
800.4051	117.0726
800.552	115.9567
800.6989	112.0587
800.8458	109.4803
800.9927	103.4065
801.1396	104.3719
801.2866	110.4694
801.4334	107.8184
801.5803	112.7543
801.7272	110.3243
801.874	110.9226
802.0209	107.2995
802.1677	109.0725
802.3145	110.9789
802.4613	106.9221
802.6081	106.0455
802.7549	107.7644
802.9017	102.4859
803.0485	107.5199
803.1952	102.6695
803.342	109.9436
803.4887	104.0194
803.6354	105.8528
803.7822	105.9764
803.9289	104.599
804.0756	107.9842
804.2223	106.5194
804.369	99.03687
804.5156	99.50841
804.6623	103.4018
804.8089	99.59577
804.9556	102.1736
805.1022	98.96122
805.2488	105.9491
805.3954	102.4251
805.542	103.5586
805.6886	106.0528
805.8352	103.6308
805.9818	103.1949
806.1283	102.6898
806.2749	103.3178
806.4214	107.1515
806.5679	100.6543
806.7145	103.3942
806.861	100.32
807.0074	103.3269
807.154	103.8295
807.3004	100.4002
807.4469	101.1451
807.5934	99.89925
807.7398	101.1985
807.8862	101.2669
808.0327	99.78152
808.1791	100.9883
808.3255	95.41851
808.4719	96.30617
808.6183	95.82911
808.7647	97.55169
808.9111	92.73496
809.0574	97.8811
809.2037	94.82603
809.3501	98.12048
809.4965	96.93341
809.6428	101.2958
809.7891	97.25336
809.9354	94.35232
810.0817	91.40218
810.2279	93.25762
810.3742	89.23321
810.5204	87.1104
810.6667	87.45955
810.8129	92.76128
810.9592	96.80534
811.1054	88.4941
811.2516	94.45907
811.3978	89.53064
811.5439	86.65923
811.6901	95.28266
811.8363	91.365
811.9825	90.50892
812.1286	91.01461
812.2748	87.66106
812.4209	84.3119
812.567	85.76945
812.7131	83.96752
812.8592	90.73106
813.0053	79.78752
813.1514	82.77878
813.2974	80.57226
813.4435	79.36629
813.5895	81.09152
813.7356	81.42869
813.8816	80.65578
814.0276	78.654
814.1736	82.21062
814.3196	75.14481
814.4656	73.20226
814.6116	81.10014
814.7576	75.25945
814.9035	70.16097
815.0494	76.26742
815.1954	75.08244
815.3413	73.01316
815.4872	69.30433
815.6331	74.14848
815.779	78.46686
815.9249	81.63438
816.0707	74.98016
816.2166	72.29826
816.3625	70.79089
816.5083	68.47916
816.6542	69.39103
816.8	70.55563
816.9458	71.03107
817.0916	64.87727
817.2374	72.15643
817.3832	76.84541
817.5289	73.19264
817.6747	70.97489
817.8204	64.56892
817.9662	62.48688
818.1119	68.42741
818.2576	68.27551
818.4034	74.77253
818.5491	69.37012
818.6948	72.45602
818.8405	73.12558
818.9861	72.6465
819.1318	65.24561
819.2774	68.49247
819.423	72.5859
819.5687	70.40192
819.7143	66.3287
819.8599	65.38967
820.0055	62.79353
820.1511	69.95314
820.2967	70.76276
820.4422	78.23864
820.5878	79.21992
820.7333	78.55303
820.8788	80.54758
821.0244	76.53284
821.1699	72.13927
821.3154	76.4194
821.4609	75.97508
821.6064	76.48137
821.7519	73.07243
821.8973	75.50774
822.0428	65.9167
822.1882	70.93244
822.3337	70.15598
822.4791	63.96045
822.6245	61.88909
822.7699	58.38373
822.9153	49.44572
823.0607	49.31701
823.2061	57.84302
823.3514	55.92973
823.4968	60.9961
823.6422	69.7428
823.7875	70.93203
823.9328	74.87136
824.0781	75.38135
824.2234	67.80282
824.3687	67.43452
824.514	64.97925
824.6592	72.09923
824.8045	73.65442
824.9498	78.13862
825.095	77.49709
825.2402	76.79424
825.3854	72.03404
825.5306	72.0088
825.6758	64.85094
825.821	71.04298
825.9662	70.96151
826.1114	69.90308
826.2565	71.94538
826.4017	71.1979
826.5468	75.77438
826.692	74.28467
826.837	72.93116
826.9822	72.0258
827.1273	70.49556
827.2723	65.77401
827.4174	61.75754
827.5625	65.37263
827.7075	65.2485
827.8526	64.07868
827.9976	57.34217
828.1426	66.27671
828.2877	71.55433
828.4327	68.04144
828.5776	68.57298
828.7227	68.04649
828.8676	61.88612
829.0126	63.23205
829.1575	63.69229
829.3024	64.94616
829.4474	62.02853
829.5923	66.95035
829.7372	67.72684
829.8821	66.22507
830.027	61.53638
830.1719	62.48448
830.3168	61.47883
830.4616	63.73707
830.6064	65.45973
830.7513	66.03027
830.8961	67.47418
831.041	61.53565
831.1857	65.90523
831.3306	61.31922
831.4753	65.25451
831.6201	66.7955
831.7649	60.61146
831.9096	60.34612
832.0544	58.63079
832.1991	61.49981
832.3438	66.48273
832.4885	66.58869
832.6332	62.37736
832.778	64.18474
832.9226	60.76848
833.0673	68.62425
833.2119	65.77374
833.3566	64.47207
833.5012	66.47012
833.6459	67.51038
833.7905	64.25772
833.9351	63.73572
834.0797	60.88081
834.2243	61.8497
834.3688	64.8825
834.5134	64.53967
834.658	68.20139
834.8026	64.35026
834.9471	70.52612
835.0916	66.54657
835.2361	65.56148
835.3806	67.46835
835.5251	65.2171
835.6696	62.91585
835.8141	66.04678
835.9586	65.42612
836.103	65.61001
836.2474	62.88451
836.3918	64.60696
836.5363	63.03232
836.6807	66.1227
836.8251	66.85888
836.9695	64.50618
837.1138	66.79034
837.2582	66.52043
837.4026	64.9187
837.5469	63.03362
837.6913	61.46181
837.8356	56.56631
837.9799	64.96614
838.1242	64.50945
838.2686	66.65311
838.4128	65.2398
838.5571	65.9678
838.7014	63.46519
838.8456	59.32289
838.9899	65.19839
839.1341	68.94913
839.2783	60.18177
839.4225	59.84961
839.5667	66.42306
839.7109	65.04014
839.8551	63.79113
839.9993	63.70471
840.1434	69.29227
840.2876	64.1153
840.4317	62.86008
840.5759	61.34712
840.72	62.8127
840.8641	70.96902
841.0082	59.65482
841.1523	59.77392
841.2963	64.74856
841.4404	62.8511
841.5845	61.59218
841.7285	56.24717
841.8726	53.64576
842.0165	61.36715
842.1606	60.48656
842.3046	63.54266
842.4485	63.49391
842.5925	64.38694
842.7365	61.15834
842.8805	63.36645
843.0244	61.38373
843.1684	62.2968
843.3123	63.25217
843.4562	63.79843
843.6002	63.85403
843.744	59.38504
843.8879	62.70782
844.0318	58.13415
844.1757	56.39727
844.3195	58.19317
844.4634	62.71109
844.6072	61.87212
844.751	58.18476
844.8948	55.85487
845.0386	60.32845
845.1824	61.75084
845.3262	62.79787
845.47	59.66127
845.6138	58.58787
845.7575	62.11971
845.9012	57.87428
846.045	60.83152
846.1887	63.08827
846.3324	65.31822
846.4761	54.74997
846.6198	55.83228
846.7635	55.65261
846.9071	58.25983
847.0508	62.89489
847.1944	54.27645
847.3381	57.39104
847.4817	61.43277
847.6253	61.87495
847.7689	62.09782
847.9125	59.40877
848.0561	55.15238
848.1996	53.69818
848.3432	60.79725
848.4868	60.52817
848.6303	60.73597
848.7738	59.13542
848.9174	56.23453
849.0609	62.77436
849.2043	61.1388
849.3478	61.23813
849.4913	61.15005
849.6348	57.73983
849.7782	55.10796
849.9217	53.35104
850.0651	48.15676
850.2086	47.44101
850.3519	55.53717
850.4954	60.00483
850.6387	60.12437
850.7821	55.84747
850.9255	59.60777
851.0688	63.00835
851.2122	58.47419
851.3555	58.01284
851.4988	56.64967
851.6422	56.05087
851.7855	49.14853
851.9288	55.56624
852.0721	55.22728
852.2153	57.50926
852.3586	55.16931
852.5018	56.87085
852.6451	55.93361
852.7883	57.88836
852.9315	60.1782
853.0748	59.14128
853.218	56.10704
853.3611	51.36784
853.5043	51.66466
853.6475	48.88836
853.7906	49.4234
853.9338	47.76168
854.0769	42.2683
854.22	44.18606
854.3632	45.24564
854.5063	42.02596
854.6494	46.61957
854.7924	50.34281
854.9355	50.62256
855.0786	56.09038
855.2216	54.28894
855.3647	55.23032
855.5077	56.08534
855.6507	51.37283
855.7937	52.27419
855.9367	53.09038
856.0797	55.52934
856.2227	56.35967
856.3657	55.97114
856.5086	50.41559
856.6516	51.39666
856.7945	53.48996
856.9374	57.33405
857.0803	56.72712
857.2232	57.63993
857.3661	53.44423
857.509	55.18358
857.6519	54.11554
857.7947	50.97034
857.9376	50.39147
858.0804	47.2555
858.2232	53.12348
858.366	53.94654
858.5089	49.03534
858.6516	49.27575
858.7944	49.16345
858.9372	58.31068
859.08	50.13107
859.2227	50.61919
859.3654	54.99579
859.5082	48.46665
859.6509	45.67146
859.7936	48.68698
859.9363	48.2051
860.079	52.7657
860.2217	58.77257
860.3643	49.55822
860.507	53.49315
860.6496	52.62886
860.7922	50.43771
860.9349	49.39769
861.0775	52.36545
861.2201	48.06953
861.3627	48.70743
861.5052	49.60162
861.6478	54.4894
861.7904	51.29435
861.9329	52.10147
862.0755	47.43266
862.218	49.06796
862.3605	45.82475
862.503	53.47026
862.6455	55.7602
862.788	55.93214
862.9305	52.41154
863.0729	51.44145
863.2154	46.63768
863.3578	48.23861
863.5002	51.70604
863.6426	51.76809
863.7851	53.27578
863.9275	49.35754
864.0698	51.28164
864.2122	52.5808
864.3546	52.35293
864.4969	48.7979
864.6393	50.86041
864.7816	45.48425
864.924	44.97945
865.0662	50.40504
865.2086	45.4549
865.3508	47.36248
865.4931	53.96871
865.6354	48.35744
865.7776	43.98384
865.9199	43.27484
866.0621	42.7368
866.2043	38.11184
866.3466	36.54076
866.4888	41.00898
866.6309	43.59966
866.7731	45.27592
866.9153	44.71083
867.0574	44.81295
867.1996	44.68665
867.3417	44.36931
867.4839	44.36625
867.626	41.21186
867.7681	44.55016
867.9102	40.45636
868.0522	42.55494
868.1943	47.49816
868.3364	49.10825
868.4785	42.94995
868.6205	48.2832
868.7625	40.11831
868.9045	43.17038
869.0465	47.30778
869.1885	43.65834
869.3305	41.31693
869.4725	40.68021
869.6144	41.80165
869.7564	45.52137
869.8983	47.77965
870.0403	43.85645
870.1822	48.4111
870.3241	41.73348
870.466	44.31865
870.6079	45.65358
870.7498	42.28394
870.8916	51.45448
871.0335	48.95387
871.1754	46.85723
871.3171	48.20137
871.459	45.5907
871.6008	39.57181
871.7426	41.13647
871.8844	40.12703
872.0262	45.75116
872.1679	47.86211
872.3097	44.80135
872.4514	43.29685
872.5931	39.35754
872.7349	41.4239
872.8766	44.72374
873.0183	45.71457
873.16	43.5598
873.3017	46.19947
873.4434	41.15335
873.585	39.21958
873.7266	38.34242
873.8683	42.36547
874.0099	40.35133
874.1516	39.88167
874.2932	44.949
874.4348	38.9111
874.5763	41.84972
874.7179	41.94096
874.8594	42.38409
875.001	45.21811
875.1425	39.79652
875.2841	47.26432
875.4256	45.67664
875.5671	40.31719
875.7086	39.02732
875.85	39.58357
875.9915	40.40437
876.133	47.69019
876.2744	43.72678
876.4159	42.50208
876.5573	40.45621
876.6987	43.25249
876.8401	39.05256
876.9815	41.33569
877.1229	43.11193
877.2643	42.78794
877.4056	41.73084
877.547	38.93245
877.6884	37.28259
877.8297	36.88173
877.971	43.57589
878.1123	45.61051
878.2536	42.17522
878.3949	36.46832
878.5362	37.44847
878.6774	43.79711
878.8187	44.60855
878.9599	39.92569
879.1011	38.07502
879.2424	38.90759
879.3836	33.42803
879.5248	32.74662
879.666	42.53804
879.8071	39.43431
879.9483	41.19211
880.0895	34.39642
880.2306	38.30757
880.3718	38.79079
880.5129	37.05752
880.654	34.11189
880.7951	34.94532
880.9362	39.10772
881.0773	39.40635
881.2183	43.20357
881.3594	39.87591
881.5004	44.94238
881.6414	40.96624
881.7825	39.65094
881.9235	40.59163
882.0645	35.95491
882.2054	34.06098
882.3464	43.07344
882.4874	41.10305
882.6284	36.36158
882.7693	33.03151
882.9103	41.42433
883.0512	41.8933
883.1921	38.56815
883.333	39.31035
883.4739	40.8125
883.6147	39.66586
883.7556	38.97048
883.8965	32.84063
884.0374	37.09683
884.1782	33.9413
884.319	34.41644
884.4598	34.40845
884.6006	36.56438
884.7414	43.86824
884.8822	36.90061
885.0229	34.71619
885.1637	34.95385
885.3044	35.3407
885.4452	43.0475
885.5859	39.92673
885.7266	38.30117
885.8673	35.85551
886.008	36.5418
886.1487	35.71758
886.2894	39.43883
886.43	35.58333
886.5707	36.20848
886.7113	38.01583
886.8519	33.25131
886.9926	34.29121
887.1331	36.38359
887.2737	39.53697
887.4143	40.04456
887.5549	36.9478
887.6954	38.85682
887.836	33.3288
887.9765	37.6357
888.1171	37.18081
888.2576	41.67189
888.3981	33.24881
888.5386	31.05697
888.679	33.65595
888.8195	35.73359
888.96	36.78256
889.1004	39.48123
889.2408	35.16754
889.3813	36.25274
889.5217	30.64774
889.6621	32.84325
889.8025	27.51103
889.9429	33.68141
890.0833	29.04252
890.2236	28.00171
890.364	30.44784
890.5043	35.19117
890.6446	35.43133
890.7849	32.7079
890.9252	34.39092
891.0655	32.24862
891.2058	34.49112
891.3461	34.35155
891.4863	36.11996
891.6266	34.3457
891.7668	33.45676
891.907	31.21285
892.0472	36.3901
892.1874	39.6152
892.3276	35.06124
892.4678	31.25132
892.608	30.59554
892.7481	32.70536
892.8883	35.64043
893.0284	36.17845
893.1685	32.30768
893.3087	36.7272
893.4487	31.30422
893.5889	30.63317
893.7289	36.4406
893.869	36.14854
894.009	32.75434
894.1491	33.30864
894.2891	34.37815
894.4291	31.34786
894.5692	27.41919
894.7092	25.74607
894.8491	26.84932
894.9891	27.78492
895.1291	25.40338
895.269	27.25827
895.409	27.29342
895.549	28.61848
895.6888	27.8024
895.8288	28.95876
895.9687	31.14315
896.1086	32.54008
896.2484	30.13246
896.3883	24.61261
896.5281	22.93821
896.668	27.32858
896.8079	31.52172
896.9476	30.85359
897.0875	30.75308
897.2272	22.94197
897.3671	23.23636
897.5068	25.42868
897.6466	20.89209
897.7864	28.53
897.9261	30.51435
898.0658	25.83249
898.2056	26.85008
898.3453	27.8472
898.4849	29.00048
898.6246	27.58128
898.7643	28.62536
898.904	21.958
899.0436	16.75256
899.1833	21.76898
899.3229	23.5668
899.4625	29.64344
899.6021	30.80886
899.7417	33.12495
899.8813	26.84845
900.0209	24.77042
900.1605	24.79541
900.3	22.20428
900.4395	23.64892
900.579	22.11193
900.7186	27.73855
900.8581	23.8068
900.9976	23.59499
901.1371	18.67292
901.2766	22.34766
901.416	24.69431
901.5555	25.45713
901.6949	22.6177
901.8344	25.53565
901.9738	29.88219
902.1132	23.4986
902.2526	27.32757
902.3919	29.79175
902.5313	26.0327
902.6707	22.24306
