SPECTRUM DATA FILE
SpectrumCount:	1
PixelCount:	3648
UserName:	ToughBook User
SampleName:	
LightSource:	
Comments:	
DeviceName:	Qwave
DeviceManufacturer:	Broadcom
DeviceSerialNo:	11311

Name:	last spectrum
Date:	2024-05-02T14:41:52.6235451+02:00
ExposureTime:	0.02
TemporalAvg:	1
IntensityUnit:	normalizedCounts
CCDLoadLevel:	0.05212023
Temperature:	31.05875
DiagramColor:	200
ProcessingSteps:	335

Wavelength [nm]	Intensity1
334.421	9.814626
334.5891	6.849305
334.7573	5.542524
334.9254	7.805235
335.0935	7.443027
335.2616	5.338791
335.4297	3.766965
335.5978	4.968744
335.7659	6.478347
335.934	9.212523
336.1021	4.749283
336.2701	5.862341
336.4382	5.587174
336.6063	5.29968
336.7744	4.080231
336.9424	0.3692263
337.1105	9.032408
337.2785	10.49683
337.4466	4.895586
337.6146	2.407858
337.7827	9.896061
337.9507	10.39758
338.1187	7.042741
338.2867	3.019877
338.4548	6.318746
338.6228	7.849891
338.7908	5.277365
338.9588	4.208991
339.1268	8.752296
339.2948	8.683887
339.4628	6.539856
339.6308	7.74506
339.7988	6.559832
339.9667	5.100017
340.1347	7.865176
340.3027	7.068875
340.4707	3.692009
340.6386	5.62453
340.8066	5.625478
340.9745	8.170991
341.1425	9.294668
341.3104	7.358407
341.4784	9.484922
341.6463	5.43888
341.8142	7.109797
341.9821	6.884487
342.1501	5.251649
342.318	8.480078
342.4859	8.029864
342.6538	5.702434
342.8217	4.137557
342.9896	6.170716
343.1575	3.952307
343.3254	0.4434225
343.4933	3.874093
343.6612	7.115639
343.829	10.27796
343.9969	8.441763
344.1648	10.26435
344.3326	10.60385
344.5005	8.634685
344.6683	11.47165
344.8362	8.934979
345.004	10.20559
345.1719	8.212552
345.3397	9.556146
345.5075	6.242771
345.6754	5.943972
345.8432	8.399657
346.011	2.725667
346.1788	3.653652
346.3466	8.499443
346.5144	6.35709
346.6822	5.424766
346.85	6.75779
347.0178	2.863642
347.1856	5.483176
347.3534	9.701963
347.5211	5.010541
347.6889	3.991135
347.8567	4.97583
348.0244	5.666519
348.1922	6.990165
348.3599	6.426496
348.5277	5.589597
348.6954	5.299908
348.8632	3.996376
349.0309	1.518549
349.1986	3.258111
349.3663	4.341061
349.5341	7.797258
349.7018	3.515033
349.8695	5.669959
350.0372	12.42346
350.2049	4.457576
350.3726	5.108485
350.5403	6.288008
350.7079	7.467252
350.8756	3.692389
351.0433	2.112191
351.211	8.408842
351.3786	6.703375
351.5463	5.495726
351.714	6.271102
351.8816	7.008508
352.0493	8.200096
352.2169	9.65938
352.3846	7.55851
352.5522	9.685043
352.7198	5.628958
352.8875	7.774129
353.0551	8.405901
353.2227	6.143467
353.3903	8.887127
353.5579	8.250182
353.7255	9.171005
353.8931	7.506434
354.0607	9.458262
354.2283	8.909275
354.3958	10.48553
354.5634	9.268675
354.731	10.67874
354.8986	7.320909
355.0661	8.907171
355.2337	6.766418
355.4012	7.416229
355.5688	11.27015
355.7363	10.98026
355.9039	9.481898
356.0714	8.206368
356.239	8.716605
356.4065	7.917943
356.574	10.5336
356.7415	6.821885
356.909	4.982114
357.0765	5.196384
357.244	9.996303
357.4115	6.895311
357.579	8.522051
357.7465	4.576891
357.914	4.558231
358.0815	5.344205
358.249	2.49971
358.4164	5.141526
358.5839	8.624402
358.7513	6.288067
358.9188	8.270563
359.0862	6.119272
359.2537	2.624687
359.4211	6.683764
359.5886	3.425985
359.756	7.107638
359.9234	8.793629
360.0909	8.517244
360.2583	7.791553
360.4257	7.574626
360.5931	7.776901
360.7605	7.949203
360.9279	5.766079
361.0953	8.499938
361.2627	4.754841
361.4301	8.040395
361.5974	7.891867
361.7648	5.503961
361.9322	5.964489
362.0995	7.14114
362.2669	8.535959
362.4343	9.290724
362.6016	5.620488
362.769	10.46281
362.9363	10.10487
363.1036	8.397852
363.271	5.717659
363.4383	8.649307
363.6056	8.279536
363.7729	2.641886
363.9402	6.894193
364.1075	4.144184
364.2748	5.964551
364.4421	4.341712
364.6094	5.228762
364.7767	11.26254
364.944	3.081094
365.1113	8.804472
365.2786	9.658967
365.4458	9.604334
365.6131	11.46586
365.7803	9.49652
365.9476	5.877482
366.1148	9.079024
366.2821	9.880262
366.4493	7.729079
366.6166	7.282959
366.7838	7.641539
366.951	11.56989
367.1182	14.52231
367.2855	9.270448
367.4527	9.698066
367.6199	6.126449
367.7871	4.903855
367.9543	7.380138
368.1215	9.733644
368.2886	10.6032
368.4558	6.965937
368.623	7.027973
368.7902	8.76736
368.9573	11.58535
369.1245	7.187946
369.2917	12.35459
369.4588	9.466448
369.6259	9.70958
369.7931	12.6993
369.9602	11.42717
370.1274	12.43727
370.2945	12.0668
370.4616	7.985792
370.6287	8.111209
370.7958	5.51894
370.963	8.601259
371.1301	7.515
371.2971	7.294447
371.4643	11.29845
371.6313	8.681514
371.7984	10.04279
371.9655	10.56225
372.1326	8.555266
372.2997	2.72075
372.4667	7.807967
372.6338	10.52119
372.8008	12.69014
372.9679	9.217958
373.1349	8.541287
373.3019	6.521108
373.469	8.973195
373.636	5.801466
373.803	10.02409
373.9701	9.36377
374.1371	8.378987
374.3041	11.6835
374.4711	16.57885
374.6381	12.82059
374.8051	5.708172
374.9721	10.37636
375.1391	11.85481
375.3061	13.56524
375.473	12.23925
375.64	9.935038
375.8069	7.079781
375.9739	9.708437
376.1409	9.344234
376.3078	10.04754
376.4748	9.102674
376.6417	11.09672
376.8087	4.085976
376.9756	8.345347
377.1425	12.47065
377.3094	8.675985
377.4763	12.61903
377.6432	9.070629
377.8102	8.467396
377.9771	10.42389
378.144	10.42774
378.3109	10.91644
378.4777	11.75049
378.6446	10.38679
378.8115	10.70254
378.9784	7.481837
379.1452	6.651165
379.3121	8.024483
379.4789	12.00934
379.6458	6.42481
379.8127	9.312712
379.9795	10.66739
380.1463	8.631794
380.3131	8.204865
380.48	9.830717
380.6468	8.63763
380.8136	8.991657
380.9804	6.098915
381.1472	8.523736
381.314	12.07379
381.4808	13.73006
381.6476	13.93755
381.8144	14.08404
381.9812	12.40685
382.148	7.40397
382.3147	10.45878
382.4815	8.310101
382.6483	5.858407
382.815	7.705292
382.9818	7.985706
383.1485	8.295528
383.3153	8.180748
383.482	10.13431
383.6487	9.469046
383.8155	8.574981
383.9822	10.99184
384.1489	13.07122
384.3156	12.77795
384.4823	13.92166
384.649	11.49999
384.8157	11.22563
384.9824	15.24971
385.1491	15.80544
385.3158	12.57642
385.4825	12.72735
385.6491	9.751871
385.8158	16.68673
385.9825	10.57661
386.1491	8.12076
386.3157	9.541389
386.4824	8.225689
386.649	8.604771
386.8157	15.57004
386.9823	12.95607
387.1489	11.86972
387.3156	11.93301
387.4821	14.43282
387.6488	9.192293
387.8154	15.87529
387.982	15.74463
388.1486	8.388437
388.3152	9.50001
388.4818	14.30701
388.6483	12.32967
388.8149	10.98897
388.9815	10.69412
389.148	8.10063
389.3146	15.07964
389.4811	14.82385
389.6477	9.446556
389.8142	8.432092
389.9808	12.14104
390.1473	18.0919
390.3138	11.26815
390.4804	8.53771
390.6469	13.47461
390.8134	11.10119
390.9799	14.53377
391.1464	13.54311
391.3129	13.21512
391.4794	10.96553
391.6459	8.558193
391.8124	14.47981
391.9789	11.00451
392.1453	5.69491
392.3118	12.93193
392.4782	12.31059
392.6447	8.174943
392.8112	12.20012
392.9776	10.96505
393.144	6.525649
393.3105	8.586568
393.4769	14.87323
393.6433	16.28301
393.8098	13.01305
393.9762	11.34727
394.1426	10.77816
394.309	16.72765
394.4754	15.44499
394.6418	13.40812
394.8082	14.98783
394.9746	11.71898
395.141	17.65144
395.3073	8.728415
395.4737	14.84906
395.64	13.67856
395.8064	15.65048
395.9728	16.87501
396.1391	15.92301
396.3055	8.471745
396.4718	9.642983
396.6381	15.26926
396.8045	11.86629
396.9708	9.647104
397.1371	10.46751
397.3034	10.52153
397.4697	14.42118
397.636	14.7978
397.8023	15.68105
397.9686	16.01733
398.1349	18.74023
398.3012	11.81792
398.4675	13.06712
398.6337	19.44726
398.8	19.75614
398.9662	24.22881
399.1325	18.64629
399.2988	18.56001
399.465	18.82979
399.6313	16.08462
399.7975	13.90991
399.9637	15.92481
400.1299	21.55587
400.2961	16.50585
400.4624	22.85634
400.6286	18.90567
400.7948	22.1979
400.961	22.20009
401.1272	16.70984
401.2934	19.71449
401.4595	18.20155
401.6257	17.90466
401.7919	17.7137
401.9581	21.93503
402.1242	20.18808
402.2904	23.30021
402.4565	20.32701
402.6227	21.09807
402.7888	18.81941
402.955	15.62738
403.1211	17.55535
403.2872	20.51183
403.4533	22.54024
403.6194	16.18877
403.7856	16.06968
403.9517	20.05323
404.1177	18.74462
404.2838	22.41178
404.4499	16.05781
404.616	15.24609
404.7821	16.34138
404.9482	23.06077
405.1142	19.47184
405.2803	18.86258
405.4464	20.42898
405.6124	16.13935
405.7784	16.50944
405.9445	20.67051
406.1105	17.49426
406.2766	15.05971
406.4426	14.68012
406.6086	19.64137
406.7746	24.12137
406.9406	20.81823
407.1066	16.78096
407.2726	23.11271
407.4386	26.03972
407.6046	23.71445
407.7706	21.83074
407.9366	21.25451
408.1025	27.14227
408.2685	23.35777
408.4344	23.78623
408.6004	22.58874
408.7664	26.68424
408.9323	21.43216
409.0983	23.17142
409.2642	21.42442
409.4301	18.58964
409.596	19.39511
409.762	23.79937
409.9279	23.45634
410.0938	20.04063
410.2597	22.44876
410.4256	25.05923
410.5915	27.12914
410.7574	25.00288
410.9232	27.37584
411.0891	20.15312
411.255	24.84129
411.4209	22.61668
411.5867	22.32818
411.7526	28.09701
411.9184	23.64075
412.0843	26.24322
412.2501	24.67551
412.4159	24.0305
412.5818	19.53398
412.7476	21.82812
412.9134	22.34919
413.0792	22.22116
413.245	29.50554
413.4108	30.08216
413.5766	24.33831
413.7424	22.21641
413.9082	25.19094
414.074	27.28628
414.2397	24.75997
414.4055	26.83738
414.5713	27.22849
414.737	25.38914
414.9028	24.63498
415.0685	26.85964
415.2343	23.30267
415.4	26.81493
415.5658	30.33999
415.7315	25.55223
415.8972	25.84806
416.0629	30.19176
416.2286	26.04146
416.3943	24.43545
416.56	26.90215
416.7257	26.93885
416.8914	25.95706
417.0571	25.31102
417.2228	26.3723
417.3884	24.38625
417.5541	24.10208
417.7198	25.67855
417.8854	26.3328
418.0511	25.87071
418.2167	28.30134
418.3824	26.66761
418.548	27.52641
418.7136	29.23561
418.8792	29.03195
419.0449	31.40314
419.2105	33.75241
419.3761	31.85847
419.5417	31.26128
419.7073	31.13323
419.8729	28.59578
420.0385	27.2215
420.204	23.39806
420.3696	28.53252
420.5352	32.80293
420.7007	31.16075
420.8663	29.9143
421.0319	31.38734
421.1974	31.14371
421.3629	29.32898
421.5285	29.25494
421.694	28.51069
421.8595	34.31273
422.0251	33.92233
422.1906	29.36124
422.3561	29.67774
422.5216	31.96713
422.6871	28.11281
422.8526	27.85351
423.0181	33.37851
423.1835	37.01032
423.349	32.28779
423.5145	33.05823
423.68	29.82052
423.8454	32.49311
424.0109	33.91801
424.1763	32.47695
424.3418	33.15973
424.5072	35.66642
424.6726	34.30402
424.838	30.70151
425.0035	35.18443
425.1689	36.18615
425.3343	34.44244
425.4997	27.20505
425.6651	34.04183
425.8305	35.43621
425.9959	35.88404
426.1613	32.27422
426.3267	35.24157
426.492	35.17002
426.6574	35.49187
426.8228	31.25505
426.9881	28.45852
427.1534	27.79379
427.3188	29.10129
427.4841	34.10837
427.6495	33.51919
427.8148	37.00542
427.9801	37.49469
428.1454	37.50284
428.3107	40.23257
428.476	34.23675
428.6414	32.93167
428.8066	36.18885
428.9719	32.2208
429.1372	35.32749
429.3025	33.96108
429.4678	37.47548
429.633	35.19254
429.7983	32.22171
429.9636	26.8882
430.1288	28.84501
430.294	29.12117
430.4593	29.59082
430.6245	28.85042
430.7897	26.65506
430.955	30.67047
431.1202	30.35094
431.2854	29.33225
431.4506	35.13388
431.6158	36.79144
431.781	38.46285
431.9462	39.81894
432.1114	39.13461
432.2766	32.13791
432.4417	33.1811
432.6069	34.4554
432.772	35.44097
432.9372	39.70649
433.1024	39.28027
433.2675	38.23544
433.4326	40.55593
433.5977	40.14266
433.7629	33.7573
433.928	36.89796
434.0931	32.53036
434.2582	31.88033
434.4233	40.66897
434.5884	41.76428
434.7535	39.08125
434.9186	40.72241
435.0837	40.42292
435.2488	40.12236
435.4138	37.21754
435.5789	45.59204
435.744	43.74035
435.909	36.44399
436.0741	41.93588
436.2391	42.31856
436.4042	44.7472
436.5692	43.40775
436.7342	42.69166
436.8992	44.64554
437.0643	45.09964
437.2293	45.15253
437.3943	44.57732
437.5593	44.52456
437.7243	39.72599
437.8893	43.03344
438.0542	45.29955
438.2192	38.28464
438.3842	39.49969
438.5491	38.98253
438.7141	40.33083
438.8791	41.84909
439.044	45.92896
439.209	39.27192
439.3739	42.82285
439.5388	47.9108
439.7037	46.7898
439.8687	48.68298
440.0336	49.99805
440.1985	44.64083
440.3634	44.9889
440.5283	42.49276
440.6932	40.96416
440.8581	49.82399
441.0229	51.17287
441.1878	46.58791
441.3527	50.4242
441.5175	52.23327
441.6824	47.69014
441.8472	49.86107
442.0121	50.18332
442.1769	51.00759
442.3418	50.06622
442.5066	48.5989
442.6714	48.96495
442.8362	46.18486
443.001	48.77597
443.1659	51.17101
443.3307	50.64846
443.4955	53.70506
443.6602	53.58999
443.825	51.58506
443.9898	55.24212
444.1546	52.67511
444.3193	48.13542
444.4841	49.9492
444.6488	50.49339
444.8136	50.85806
444.9783	52.7836
445.1431	51.74958
445.3078	47.35883
445.4725	50.86782
445.6372	47.23512
445.802	45.53301
445.9667	50.45894
446.1314	51.12563
446.2961	46.57981
446.4608	51.13908
446.6255	49.48866
446.7901	50.86138
446.9548	51.85809
447.1195	48.98593
447.2841	56.2673
447.4488	55.99672
447.6134	56.78809
447.7781	60.09887
447.9427	55.72284
448.1074	52.80782
448.272	54.80847
448.4366	56.55738
448.6012	54.4465
448.7658	57.16012
448.9305	55.68729
449.095	55.28878
449.2596	55.74133
449.4242	55.32719
449.5888	56.2895
449.7534	54.21252
449.9179	54.58319
450.0825	56.71579
450.2471	52.50612
450.4116	56.29412
450.5762	56.98324
450.7407	58.81011
450.9052	63.07399
451.0698	57.90351
451.2343	59.93992
451.3988	57.84529
451.5633	55.84739
451.7278	61.15862
451.8923	67.32836
452.0568	59.2569
452.2213	61.22684
452.3858	59.74495
452.5503	57.62778
452.7148	54.86923
452.8792	53.51012
453.0437	52.50444
453.2081	52.63914
453.3726	59.3251
453.537	54.94202
453.7015	57.90794
453.8659	60.23957
454.0303	60.77474
454.1947	64.58678
454.3592	64.25135
454.5236	64.74302
454.688	61.84953
454.8524	62.41102
455.0168	67.7607
455.1811	65.45871
455.3455	62.96288
455.5099	63.38266
455.6743	60.79112
455.8386	56.19135
456.003	59.92228
456.1673	66.58832
456.3317	63.49807
456.496	60.14125
456.6603	63.87511
456.8246	63.26585
456.989	65.94601
457.1533	64.8161
457.3176	59.32339
457.4819	70.13984
457.6462	67.39381
457.8105	61.42321
457.9748	65.01836
458.1391	67.24545
458.3033	63.40785
458.4676	62.86994
458.6319	65.18781
458.7961	68.47888
458.9604	65.35121
459.1246	67.80704
459.2888	62.86252
459.4531	61.98713
459.6173	64.40928
459.7815	63.22844
459.9457	63.60321
460.11	61.06744
460.2741	61.84679
460.4384	61.77888
460.6025	60.58554
460.7667	63.35402
460.9309	65.41092
461.0951	70.36323
461.2592	70.46476
461.4234	63.61717
461.5876	61.97402
461.7517	60.04877
461.9159	67.02335
462.08	70.23145
462.2441	67.78244
462.4082	65.7668
462.5724	63.82721
462.7365	68.17455
462.9006	59.91254
463.0647	63.76487
463.2288	67.56796
463.3929	64.23461
463.557	63.74106
463.721	62.65218
463.8851	63.43146
464.0492	65.83839
464.2132	71.09365
464.3773	66.39056
464.5414	60.15257
464.7054	63.8172
464.8694	60.57518
465.0334	61.1139
465.1975	67.899
465.3615	70.69096
465.5255	63.02273
465.6895	65.88766
465.8535	66.63335
466.0175	71.2304
466.1815	71.52559
466.3455	68.10001
466.5095	66.91056
466.6734	61.56286
466.8374	65.30666
467.0014	64.51713
467.1653	65.90915
467.3293	67.56607
467.4932	70.14598
467.6571	69.42823
467.8211	71.48041
467.985	71.27165
468.1489	71.14979
468.3128	68.40749
468.4767	68.85044
468.6406	73.71172
468.8045	70.64764
468.9684	70.17091
469.1323	70.22404
469.2962	71.21732
469.46	71.68484
469.6239	74.4316
469.7878	66.3101
469.9516	72.99525
470.1154	68.1879
470.2793	62.53833
470.4431	66.48805
470.607	64.06252
470.7708	68.60768
470.9346	71.36633
471.0984	70.34655
471.2622	69.58015
471.426	72.21396
471.5898	74.11375
471.7536	69.59092
471.9174	71.96693
472.0811	68.87354
472.2449	66.74269
472.4087	69.17654
472.5724	70.48457
472.7362	70.47626
472.8999	68.75663
473.0637	67.52599
473.2274	70.1582
473.3911	73.2219
473.5548	69.22038
473.7185	69.237
473.8822	74.75689
474.0459	74.64968
474.2096	69.99551
474.3733	79.41997
474.537	78.57449
474.7007	81.36232
474.8643	76.86205
475.028	73.63554
475.1917	70.60936
475.3553	67.12728
475.519	71.85109
475.6826	71.26369
475.8463	75.58095
476.0099	78.11263
476.1735	72.59792
476.3371	72.94767
476.5007	77.37915
476.6643	68.13909
476.8279	70.85607
476.9915	74.28162
477.1551	72.90475
477.3187	80.35833
477.4823	78.24042
477.6458	74.75719
477.8094	71.23585
477.9729	75.39465
478.1365	74.2029
478.3	68.16317
478.4636	69.54953
478.6271	73.78776
478.7906	76.48515
478.9541	76.17623
479.1176	68.98887
479.2812	73.79618
479.4447	75.60365
479.6082	83.15161
479.7716	76.25578
479.9351	72.23227
480.0986	67.96682
480.2621	73.88372
480.4255	75.9875
480.589	72.89245
480.7524	72.42241
480.9159	71.75021
481.0793	71.10401
481.2428	75.53549
481.4062	75.33846
481.5696	77.56663
481.733	82.53178
481.8964	77.05417
482.0598	72.81374
482.2232	74.05676
482.3866	71.32587
482.55	72.07803
482.7134	76.59445
482.8768	72.34991
483.0401	75.20061
483.2035	77.61458
483.3668	77.32574
483.5302	77.3197
483.6935	76.65347
483.8568	77.20188
484.0202	75.38696
484.1835	75.73333
484.3468	69.8166
484.5101	70.27368
484.6734	72.75751
484.8367	77.3122
485	74.66611
485.1633	78.11846
485.3266	68.73438
485.4899	66.39433
485.6531	73.41097
485.8164	67.39076
485.9796	65.59112
486.1429	56.1259
486.3061	60.20286
486.4694	65.33335
486.6326	68.89839
486.7958	72.83539
486.959	71.91077
487.1223	70.56545
487.2855	68.03214
487.4486	72.23217
487.6118	77.57187
487.775	77.21941
487.9382	83.88621
488.1014	77.39671
488.2646	68.90419
488.4277	74.42696
488.5909	71.95544
488.754	72.86465
488.9171	66.64606
489.0803	68.50826
489.2434	73.64931
489.4066	81.04895
489.5697	79.89908
489.7328	83.31837
489.8959	80.35275
490.059	75.59823
490.2221	78.05807
490.3852	78.96906
490.5482	78.25745
490.7113	77.54116
490.8744	77.18568
491.0374	74.21693
491.2005	78.89992
491.3636	81.62151
491.5266	83.78385
491.6896	81.33834
491.8527	71.52101
492.0157	69.91158
492.1787	73.82776
492.3417	76.2877
492.5047	76.76025
492.6677	80.49371
492.8307	80.68797
492.9937	82.84927
493.1567	81.50317
493.3196	80.90551
493.4826	75.71926
493.6456	76.10826
493.8085	71.93393
493.9715	75.53501
494.1344	80.08406
494.2974	82.57901
494.4603	80.90016
494.6232	78.72865
494.7861	87.51691
494.949	87.41486
495.1119	83.81288
495.2748	78.63915
495.4377	82.3793
495.6006	83.46066
495.7635	80.92948
495.9264	81.55601
496.0892	83.5035
496.2521	85.92691
496.4149	83.30498
496.5778	80.54986
496.7407	80.4642
496.9035	84.53259
497.0663	80.44925
497.2291	85.00943
497.3919	87.12511
497.5547	87.84791
497.7176	81.52338
497.8804	80.4772
498.0432	82.77686
498.2059	84.97158
498.3687	82.22872
498.5315	85.24802
498.6942	84.56501
498.857	85.36422
499.0198	88.04667
499.1825	89.29184
499.3452	89.13099
499.508	89.03789
499.6707	89.72453
499.8334	89.69274
499.9962	87.58614
500.1589	85.24964
500.3216	88.53278
500.4843	83.96638
500.6469	85.14513
500.8096	85.56931
500.9723	85.24057
501.135	90.25263
501.2976	85.28298
501.4603	89.9444
501.623	80.82281
501.7856	82.51765
501.9482	90.54871
502.1109	91.57079
502.2735	88.03359
502.4361	93.26869
502.5987	87.47582
502.7614	84.37267
502.924	87.7941
503.0865	95.4173
503.2491	92.45912
503.4117	92.22342
503.5743	90.32034
503.7368	87.39347
503.8994	85.54922
504.062	89.83581
504.2245	89.94903
504.3871	86.68258
504.5496	102.1263
504.7121	96.99337
504.8746	93.03896
505.0372	92.25972
505.1997	96.6984
505.3622	94.13729
505.5247	96.78905
505.6872	103.3453
505.8497	102.4821
506.0121	102.49
506.1746	104.086
506.3371	101.4136
506.4995	106.4952
506.662	101.0237
506.8244	99.18179
506.9869	99.40525
507.1493	98.95151
507.3117	99.84955
507.4742	107.5718
507.6366	105.6667
507.799	98.44224
507.9614	98.26911
508.1238	96.69762
508.2862	98.67962
508.4485	100.9233
508.6109	102.5371
508.7733	105.3347
508.9357	114.4025
509.098	113.3338
509.2604	105.8274
509.4227	109.2768
509.5851	110.071
509.7474	110.0901
509.9097	106.6798
510.072	106.8189
510.2343	105.7152
510.3966	114.9483
510.5589	108.8275
510.7212	111.4157
510.8835	113.4354
511.0458	115.7821
511.2081	114.2439
511.3703	116.66
511.5326	118.6256
511.6949	117.9673
511.8571	115.7062
512.0193	116.7814
512.1816	114.8833
512.3438	118.5942
512.506	115.3838
512.6682	114.3392
512.8304	110.8711
512.9926	113.425
513.1548	119.0862
513.317	120.841
513.4792	117.5155
513.6414	122.0515
513.8035	118.4398
513.9657	111.6048
514.1279	108.125
514.29	120.8081
514.4521	124.9068
514.6143	124.0864
514.7764	121.1388
514.9385	121.9647
515.1006	128.0325
515.2628	123.6106
515.4249	123.5133
515.587	129.766
515.7491	132.76
515.9111	136.496
516.0732	125.6313
516.2353	128.1737
516.3973	123.459
516.5594	119.8709
516.7214	115.3546
516.8835	108.8195
517.0455	106.0414
517.2076	110.5437
517.3696	118.1016
517.5316	128.8458
517.6937	134.634
517.8557	138.7495
518.0176	137.4805
518.1796	129.2226
518.3416	115.5637
518.5036	115.8514
518.6656	121.1404
518.8275	138.5502
518.9895	140.3009
519.1514	138.2926
519.3134	145.6672
519.4753	150.8227
519.6373	140.2351
519.7992	146.4462
519.9611	150.4758
520.123	153.7586
520.2849	152.128
520.4468	152.6364
520.6087	141.7656
520.7706	148.8304
520.9325	149.325
521.0944	148.6656
521.2562	151.9597
521.4181	153.9609
521.58	159.1061
521.7418	152.437
521.9036	161.5537
522.0655	166.3282
522.2273	164.3305
522.3891	162.4333
522.551	155.1972
522.7128	154.426
522.8746	156.0249
523.0363	164.6943
523.1981	170.3142
523.3599	166.6936
523.5217	173.0717
523.6835	168.1256
523.8452	179.4317
524.007	187.9675
524.1687	176.3602
524.3304	181.1408
524.4922	181.8577
524.6539	179.6947
524.8157	185.0104
524.9774	182.3086
525.1391	185.1563
525.3008	183.3545
525.4625	187.3042
525.6241	192.5823
525.7858	189.4434
525.9475	186.8138
526.1092	186.5434
526.2709	182.5728
526.4325	176.422
526.5942	167.6352
526.7558	175.4068
526.9174	176.4342
527.079	179.5898
527.2407	179.2621
527.4023	182.6368
527.5639	185.3397
527.7255	195.5746
527.8871	202.3209
528.0487	199.3125
528.2103	192.5618
528.3718	189.8968
528.5334	196.617
528.695	203.6342
528.8565	211.6915
529.0181	216.4365
529.1796	219.2994
529.3412	211.6369
529.5027	212.1938
529.6642	210.6758
529.8257	202.1834
529.9872	198.6405
530.1487	206.4619
530.3102	212.4116
530.4717	214.6217
530.6332	216.4803
530.7947	212.4433
530.9562	219.0699
531.1176	224.3586
531.2791	221.945
531.4405	222.1693
531.6019	223.6232
531.7634	219.6841
531.9248	217.2792
532.0862	218.4736
532.2477	219.1431
532.4091	214.3964
532.5704	206.0437
532.7319	194.9673
532.8932	195.2768
533.0546	202.958
533.216	217.7502
533.3774	226.7455
533.5388	227.7684
533.7001	226.4532
533.8615	229.5137
534.0228	215.9529
534.1841	210.56
534.3455	211.3488
534.5068	213.1014
534.6681	214.2438
534.8293	219.5639
534.9907	217.8695
535.152	218.4362
535.3132	221.3839
535.4745	227.6177
535.6358	228.0669
535.7971	234.9143
535.9583	231.1913
536.1196	229.2504
536.2808	228.4277
536.4421	216.9515
536.6033	221.8862
536.7645	211.9904
536.9258	208.0035
537.087	206.5313
537.2482	214.7844
537.4094	221.0047
537.5706	226.0894
537.7318	225.8585
537.8929	230.4672
538.0541	229.7588
538.2153	230.5979
538.3764	226.5427
538.5376	222.7907
538.6987	225.6249
538.8599	233.527
539.021	218.3847
539.1821	218.4566
539.3432	213.5773
539.5043	217.9907
539.6655	213.3773
539.8265	216.3835
539.9876	222.3764
540.1487	226.787
540.3098	222.7527
540.4708	215.9754
540.6319	213.0037
540.793	221.8232
540.954	214.2683
541.1151	216.1256
541.2761	218.5996
541.4371	227.8496
541.5981	227.484
541.7592	227.9457
541.9202	231.9564
542.0812	219.7383
542.2422	220.2662
542.4031	221.8062
542.5641	218.4693
542.7251	220.5158
542.886	236.5066
543.0471	227.6461
543.208	220.8391
543.369	227.5507
543.5298	225.8698
543.6908	222.3129
543.8517	229.8955
544.0126	238.5526
544.1736	242.6351
544.3345	229.8544
544.4954	229.0552
544.6563	228.8241
544.8171	233.3629
544.978	238.9182
545.1389	242.767
545.2997	236.8799
545.4606	235.6946
545.6215	232.6068
545.7823	228.1614
545.9432	239.6642
546.104	239.2038
546.2648	226.7619
546.4256	229.1698
546.5864	225.9977
546.7473	232.798
546.908	235.9657
547.0688	235.0139
547.2296	236.3474
547.3904	234.2616
547.5511	236.5646
547.7119	221.2665
547.8727	232.6919
548.0334	229.4269
548.1942	231.9296
548.3549	238.8382
548.5156	236.8325
548.6763	241.361
548.837	238.8108
548.9977	237.3849
549.1584	235.7227
549.3192	234.2937
549.4798	236.3935
549.6405	232.4106
549.8011	232.6439
549.9619	233.5631
550.1225	238.1252
550.2831	236.6647
550.4438	239.8715
550.6044	240.9412
550.765	241.9959
550.9257	240.9283
551.0863	233.3297
551.2469	226.2686
551.4075	224.6677
551.5681	234.5901
551.7287	239.4353
551.8893	240.4509
552.0498	240.0408
552.2104	241.2248
552.371	239.3292
552.5315	235.3934
552.6921	227.9468
552.8526	238.3243
553.0131	235.0587
553.1736	231.4297
553.3342	240.0214
553.4947	238.8109
553.6552	242.2781
553.8157	232.778
553.9762	236.7424
554.1367	237.8472
554.2971	235.6894
554.4576	231.6289
554.618	237.7873
554.7785	230.5178
554.939	233.9615
555.0994	237.2809
555.2598	238.2364
555.4203	228.6362
555.5807	230.2361
555.7411	230.0077
555.9015	230.1697
556.0619	227.8352
556.2223	225.5912
556.3827	227.8989
556.5431	226.9903
556.7034	225.6531
556.8638	224.7927
557.0242	221.8482
557.1845	227.1095
557.3448	226.861
557.5052	224.5383
557.6655	219.5421
557.8259	218.4494
557.9861	227.0309
558.1465	229.2159
558.3068	221.5357
558.467	224.7504
558.6274	214.0158
558.7877	211.8616
558.9479	205.3038
559.1082	211.244
559.2684	216.0637
559.4287	209.4643
559.5889	215.4208
559.7491	213.4465
559.9094	208.3165
560.0696	215.8174
560.2299	204.172
560.3901	206.9126
560.5502	220.7095
560.7104	226.5417
560.8707	225.474
561.0308	221.6129
561.191	223.205
561.3511	226.0012
561.5114	210.5907
561.6714	203.4344
561.8316	208.8647
561.9918	207.1951
562.1519	207.7096
562.312	211.655
562.4722	209.5703
562.6323	201.7055
562.7924	209.2046
562.9525	212.0063
563.1125	211.0675
563.2726	205.8883
563.4327	211.3335
563.5928	207.097
563.7528	207.5824
563.9129	205.8264
564.0729	193.2081
564.233	200.761
564.393	207.8422
564.553	203.7551
564.7131	202.805
564.873	201.4964
565.0331	199.3003
565.1931	199.7467
565.353	203.6714
565.5131	203.9313
565.673	188.6586
565.833	189.4246
565.9929	187.4816
566.1529	189.208
566.3129	190.373
566.4728	187.1862
566.6328	191.9305
566.7927	193.3789
566.9526	186.5172
567.1125	190.6335
567.2724	197.2709
567.4323	199.0596
567.5922	192.0334
567.7521	192.1686
567.9119	194.0248
568.0718	188.7963
568.2317	190.1767
568.3915	186.894
568.5514	180.8864
568.7112	178.5164
568.871	189.1408
569.0309	183.8847
569.1907	189.257
569.3505	185.0567
569.5103	180.4407
569.6701	180.3846
569.8299	181.3108
569.9897	175.1662
570.1495	176.0629
570.3092	180.071
570.469	177.478
570.6287	173.0296
570.7885	174.5263
570.9482	173.1089
571.108	168.1186
571.2677	172.215
571.4274	170.0886
571.5871	174.6284
571.7468	173.7536
571.9066	175.8048
572.0662	179.378
572.2259	178.9746
572.3856	184.5299
572.5452	175.2911
572.7049	174.7534
572.8646	172.2314
573.0242	174.4082
573.1838	176.0852
573.3435	170.2473
573.5031	173.4676
573.6627	179.1476
573.8223	177.3343
573.9819	174.7914
574.1415	169.2279
574.3011	172.3652
574.4607	172.3685
574.6203	172.7643
574.7798	170.7389
574.9394	166.2628
575.099	164.3095
575.2585	162.1112
575.418	163.46
575.5776	159.5303
575.7371	161.12
575.8966	164.5723
576.0562	161.8129
576.2156	163.7365
576.3751	162.9234
576.5346	160.3321
576.6941	166.1872
576.8536	159.4438
577.0131	160.0583
577.1725	161.4162
577.332	156.5348
577.4914	161.3925
577.6508	164.4331
577.8103	160.4969
577.9697	161.048
578.1291	151.8059
578.2885	151.3399
578.4479	152.1668
578.6073	151.3814
578.7667	146.6964
578.9261	156.4863
579.0854	150.5844
579.2448	149.5444
579.4042	151.3803
579.5635	150.9931
579.7229	149.9963
579.8822	146.8089
580.0416	147.2321
580.2009	148.9786
580.3602	151.9437
580.5195	154.4812
580.6788	153.1236
580.8381	152.0962
580.9974	156.4843
581.1566	155.4798
581.3159	151.8675
581.4752	148.7009
581.6345	144.0005
581.7937	148.452
581.9529	149.039
582.1122	148.8201
582.2714	156.284
582.4306	151.3917
582.5898	149.1372
582.749	146.9809
582.9082	150.1924
583.0674	148.5089
583.2266	150.0397
583.3857	147.2279
583.5449	141.9538
583.7041	139.9891
583.8633	142.6136
584.0224	137.2593
584.1815	140.4567
584.3407	135.3956
584.4998	137.9204
584.6589	138.763
584.818	142.3121
584.9771	147.296
585.1362	149.1003
585.2953	142.5822
585.4544	138.9829
585.6135	141.1104
585.7725	135.7375
585.9316	131.7391
586.0906	137.2378
586.2497	134.3414
586.4087	135.9362
586.5677	133.1123
586.7267	133.9944
586.8858	135.0905
587.0448	139.0635
587.2038	131.9829
587.3628	138.3946
587.5218	142.3262
587.6807	140.8152
587.8397	135.8224
587.9987	133.2896
588.1577	131.2069
588.3166	127.7084
588.4755	125.7251
588.6345	125.1319
588.7934	125.5161
588.9523	127.6112
589.1112	117.4316
589.2701	120.1219
589.429	121.288
589.5879	120.0949
589.7468	118.5196
589.9056	122.907
590.0645	120.4088
590.2234	124.0882
590.3822	129.0555
590.5411	128.6932
590.6999	129.1723
590.8588	127.9854
591.0176	130.5192
591.1764	125.5082
591.3352	117.2598
591.494	122.2938
591.6528	127.5729
591.8116	120.0584
591.9703	120.3213
592.1291	122.6261
592.2878	121.0027
592.4467	128.3495
592.6053	128.0728
592.7641	125.0087
592.9229	118.3278
593.0816	121.9564
593.2403	124.9082
593.399	126.1115
593.5577	120.5137
593.7164	128.7309
593.8751	124.874
594.0338	120.3104
594.1924	121.7447
594.3511	113.543
594.5098	118.5799
594.6684	118.1688
594.8271	115.0263
594.9857	122.0815
595.1443	120.8717
595.303	123.2854
595.4615	121.8209
595.6202	125.8584
595.7787	128.2129
595.9374	124.3186
596.0959	122.9551
596.2545	125.4053
596.4131	125.0086
596.5717	125.3965
596.7302	120.7199
596.8887	121.5909
597.0473	120.0582
597.2058	127.6119
597.3644	123.5965
597.5229	125.787
597.6814	121.7501
597.8399	120.0857
597.9984	119.3324
598.1569	120.468
598.3154	118.5069
598.4738	112.9548
598.6323	113.7078
598.7908	115.4433
598.9492	118.9164
599.1076	123.6571
599.2661	121.2817
599.4245	124.0266
599.5829	126.3896
599.7413	119.4849
599.8997	116.885
600.0581	115.0029
600.2165	122.9824
600.3749	123.9417
600.5333	119.7321
600.6917	113.4925
600.85	120.1126
601.0084	119.7249
601.1667	122.6299
601.325	118.699
601.4833	118.1305
601.6417	120.4471
601.8	120.2397
601.9583	120.6921
602.1166	117.3645
602.2749	111.0795
602.4332	111.1076
602.5914	115.9025
602.7498	119.3135
602.908	115.9116
603.0662	117.5895
603.2245	109.6727
603.3828	117.4449
603.541	115.3329
603.6992	117.571
603.8574	118.8943
604.0156	115.8108
604.1738	117.1065
604.332	122.7487
604.4902	114.7325
604.6484	114.257
604.8065	116.1138
604.9647	113.1315
605.1229	113.4316
605.281	115.8959
605.4391	113.3176
605.5973	114.7106
605.7554	113.3138
605.9135	112.5116
606.0717	109.4022
606.2297	113.85
606.3878	112.1
606.5459	111.1424
606.704	106.9705
606.8621	109.4853
607.0201	114.0286
607.1782	117.1406
607.3362	115.2533
607.4943	113.7642
607.6523	110.367
607.8104	106.4163
607.9684	107.1809
608.1264	113.1279
608.2844	114.1447
608.4424	110.0007
608.6003	107.737
608.7584	108.8319
608.9163	113.1959
609.0743	106.7329
609.2322	112.5505
609.3902	108.6035
609.5482	111.4132
609.7061	101.5226
609.864	103.1984
610.0219	105.4162
610.1798	106.0151
610.3377	106.641
610.4956	104.5171
610.6535	105.1301
610.8114	110.8128
610.9693	107.6115
611.1271	101.7725
611.285	100.7601
611.4429	110.8273
611.6007	109.3202
611.7585	102.9164
611.9164	99.80378
612.0742	98.73056
612.232	101.0357
612.3898	95.89222
612.5476	98.0593
612.7054	99.93967
612.8632	103.0943
613.0209	105.3419
613.1787	101.3785
613.3365	104.5642
613.4942	99.66472
613.652	96.27187
613.8097	97.71652
613.9674	90.93552
614.1252	101.1813
614.2829	103.1993
614.4406	99.25401
614.5983	99.92009
614.756	100.0106
614.9136	98.50489
615.0714	97.36579
615.229	99.61292
615.3867	100.3088
615.5443	103.1068
615.702	101.2868
615.8596	97.95083
616.0172	101.432
616.1748	95.05417
616.3325	94.27462
616.4901	91.69733
616.6476	90.56375
616.8052	93.46014
616.9628	93.82729
617.1204	88.75812
617.278	94.87643
617.4355	93.93914
617.5931	92.30313
617.7506	93.64367
617.9081	93.08912
618.0657	95.65598
618.2232	98.93196
618.3807	94.01711
618.5382	95.53359
618.6957	96.36914
618.8532	95.29966
619.0107	96.56296
619.1682	89.62946
619.3256	87.61659
619.4831	92.7859
619.6406	92.4362
619.798	96.56052
619.9554	90.47346
620.1129	96.04143
620.2703	90.26333
620.4277	92.11887
620.5851	95.19301
620.7425	90.83215
620.8998	91.28423
621.0573	96.15182
621.2146	94.28995
621.372	92.06892
621.5294	90.60863
621.6867	85.20159
621.8441	88.32229
622.0013	92.05322
622.1587	93.06606
622.316	92.70798
622.4733	91.14987
622.6306	91.32831
622.7879	89.64134
622.9452	92.83022
623.1025	90.13902
623.2598	83.49983
623.4171	85.71103
623.5743	83.00101
623.7316	83.8466
623.8888	86.94045
624.046	88.87271
624.2032	89.44438
624.3605	87.14373
624.5176	92.60188
624.6749	86.78269
624.8321	88.24725
624.9893	85.31675
625.1464	86.28806
625.3036	81.36201
625.4608	86.49223
625.6179	86.47655
625.7751	90.21695
625.9322	96.12746
626.0894	89.7286
626.2465	89.48817
626.4036	92.80141
626.5607	85.52995
626.7178	91.69368
626.8749	86.96391
627.032	89.90685
627.189	86.8216
627.3461	86.5842
627.5032	88.87094
627.6602	85.11723
627.8173	86.46072
627.9743	84.11813
628.1313	83.06697
628.2884	87.45675
628.4454	82.81792
628.6024	86.71716
628.7594	90.52564
628.9164	85.05743
629.0734	90.77225
629.2303	89.00726
629.3873	79.50096
629.5443	85.26704
629.7012	79.98161
629.8582	82.16708
630.0151	83.40017
630.172	85.9749
630.3289	81.36596
630.4858	88.40663
630.6428	84.05692
630.7996	86.8178
630.9565	86.78486
631.1134	86.73522
631.2703	87.28612
631.4272	90.2442
631.584	83.19734
631.7408	79.87817
631.8977	82.18263
632.0546	82.89693
632.2114	83.69002
632.3682	83.99049
632.525	82.41209
632.6818	83.4118
632.8386	87.31026
632.9954	86.03427
633.1522	91.10851
633.3089	85.48647
633.4657	86.56127
633.6224	92.49264
633.7792	83.4335
633.9359	84.16205
634.0927	80.32567
634.2494	87.89639
634.4061	87.35606
634.5628	77.62627
634.7195	84.90501
634.8762	85.92846
635.0329	88.3877
635.1895	87.37823
635.3462	82.48808
635.5029	84.08021
635.6595	81.90349
635.8162	79.30344
635.9728	83.2167
636.1295	80.15174
636.2861	79.772
636.4427	83.35033
636.5992	83.11468
636.7559	85.00366
636.9124	82.6913
637.069	81.26073
637.2256	78.5275
637.3821	80.5621
637.5387	81.84432
637.6953	85.04347
637.8518	75.00195
638.0084	80.31384
638.1649	85.27306
638.3214	79.8837
638.4779	84.06554
638.6344	85.63728
638.7909	77.98883
638.9474	80.95685
639.1038	81.34346
639.2603	83.98106
639.4167	80.66734
639.5732	70.89387
639.7297	78.20085
639.8861	80.52057
640.0425	81.5168
640.199	74.93027
640.3553	76.13577
640.5118	78.27608
640.6682	72.11926
640.8245	81.16558
640.981	75.13963
641.1373	77.40456
641.2936	74.68748
641.45	73.78899
641.6064	73.92511
641.7627	71.51212
641.9191	72.69531
642.0754	76.47413
642.2317	79.04965
642.388	77.90862
642.5443	77.49113
642.7006	77.90501
642.8569	73.19157
643.0131	74.73945
643.1694	73.18745
643.3257	77.02211
643.4819	75.2611
643.6382	72.30908
643.7944	71.61963
643.9506	67.7527
644.1069	66.58986
644.2631	68.56338
644.4193	67.23193
644.5754	68.64223
644.7316	69.34743
644.8878	70.48122
645.044	68.97704
645.2002	68.96694
645.3563	69.49146
645.5125	70.95977
645.6686	63.29036
645.8248	66.28932
645.9809	69.75058
646.137	67.5517
646.2931	68.67835
646.4492	70.78733
646.6053	63.78332
646.7614	63.0711
646.9174	71.3215
647.0735	76.14578
647.2296	65.29268
647.3856	67.69556
647.5417	69.95393
647.6977	63.42735
647.8537	66.68105
648.0098	59.3063
648.1658	60.44261
648.3218	67.35065
648.4777	67.7968
648.6337	62.92273
648.7897	63.66777
648.9457	67.07764
649.1016	71.49384
649.2576	65.68652
649.4135	63.57933
649.5695	61.34853
649.7254	64.53235
649.8813	62.7431
650.0372	57.03176
650.1932	62.74428
650.3491	64.00951
650.5049	59.50825
650.6608	64.87907
650.8167	68.74068
650.9725	63.46481
651.1284	68.52069
651.2842	61.14861
651.4401	59.96055
651.5959	63.02522
651.7518	57.98158
651.9076	61.82553
652.0634	61.34951
652.2192	60.72757
652.3749	61.77644
652.5308	61.13036
652.6865	63.22106
652.8423	61.06363
652.998	62.03562
653.1538	58.51787
653.3096	61.23611
653.4653	63.21724
653.621	64.35116
653.7767	55.70146
653.9324	61.23986
654.0881	61.66225
654.2438	60.77596
654.3995	66.12919
654.5552	58.67073
654.7109	61.76078
654.8665	64.16933
655.0222	61.16885
655.1778	65.45435
655.3334	67.92345
655.4891	61.28856
655.6447	53.18863
655.8003	60.10982
655.9559	57.11922
656.1115	53.35159
656.2671	54.91578
656.4227	53.77212
656.5782	48.95299
656.7338	55.77553
656.8893	57.16808
657.0449	61.45118
657.2004	53.96688
657.356	60.90117
657.5115	58.61576
657.667	59.8657
657.8225	63.74569
657.978	56.80447
658.1335	55.3136
658.289	54.48492
658.4445	50.84271
658.5999	57.19888
658.7554	63.68644
658.9108	66.2944
659.0663	62.62016
659.2217	58.00025
659.3771	57.69109
659.5325	59.14172
659.6879	62.3158
659.8433	57.75631
659.9987	53.55319
660.1541	58.93277
660.3095	58.47654
660.4648	57.728
660.6202	54.52044
660.7756	58.35348
660.9309	59.42788
661.0862	59.55342
661.2416	60.35672
661.3969	59.01237
661.5522	59.29867
661.7075	60.17662
661.8628	59.84651
662.0181	58.83839
662.1733	59.56633
662.3286	59.12914
662.4839	59.29073
662.6391	57.87963
662.7944	53.0075
662.9496	53.15841
663.1048	55.18301
663.26	55.52334
663.4152	55.68149
663.5704	57.39122
663.7256	54.45604
663.8808	50.327
664.036	53.54233
664.1912	53.53475
664.3463	57.11295
664.5015	52.24095
664.6566	53.94179
664.8118	57.57344
664.9669	56.93038
665.122	56.75277
665.2771	51.63725
665.4322	51.94732
665.5873	47.94216
665.7424	55.91122
665.8975	53.31232
666.0526	50.51102
666.2076	53.97409
666.3627	52.70494
666.5177	49.72096
666.6727	52.62019
666.8278	53.20582
666.9828	56.8243
667.1378	48.94608
667.2928	48.27018
667.4478	52.33158
667.6028	54.14518
667.7578	55.95747
667.9127	45.45335
668.0677	45.53971
668.2226	51.05815
668.3776	48.3301
668.5325	47.47535
668.6874	52.5392
668.8423	51.6473
668.9973	52.15119
669.1522	48.40247
669.3071	50.19086
669.4619	46.0248
669.6168	49.2072
669.7717	50.36312
669.9265	46.05733
670.0814	45.70768
670.2362	53.35204
670.3911	48.80949
670.5459	51.57259
670.7007	49.30111
670.8555	46.37264
671.0103	46.11808
671.1651	46.61078
671.3199	49.20323
671.4747	51.03217
671.6295	52.35123
671.7842	50.3896
671.939	46.51814
672.0937	46.43758
672.2484	49.0937
672.4031	49.17195
672.5579	51.34959
672.7126	42.66706
672.8673	48.77806
673.022	52.15905
673.1767	48.81911
673.3314	48.77836
673.486	49.99086
673.6407	45.51627
673.7953	45.70755
673.95	49.15221
674.1046	48.42344
674.2592	48.92612
674.4138	43.33384
674.5684	44.52249
674.723	52.36625
674.8776	45.86261
675.0322	49.29391
675.1868	50.66021
675.3414	48.59325
675.4959	53.78043
675.6505	46.20908
675.805	48.03833
675.9595	50.25722
676.1141	49.02372
676.2686	47.59607
676.4231	47.26279
676.5776	49.37995
676.7321	47.69499
676.8866	48.55204
677.041	42.76947
677.1955	44.44735
677.35	49.03712
677.5044	50.84581
677.6589	50.79255
677.8133	47.15196
677.9677	44.25972
678.1221	48.41726
678.2766	46.59776
678.4309	45.6292
678.5853	43.04456
678.7397	45.84965
678.8941	47.08945
679.0485	51.46624
679.2028	46.49404
679.3571	45.58963
679.5115	46.01801
679.6658	44.3791
679.8201	52.19842
679.9744	43.05469
680.1288	46.14296
680.2831	48.08649
680.4373	47.05646
680.5916	46.42153
680.7459	45.61534
680.9001	49.71341
681.0544	47.61576
681.2087	45.94358
681.3629	45.50077
681.5171	46.50214
681.6713	45.42467
681.8256	50.24625
681.9797	48.04687
682.134	46.83621
682.2881	49.25377
682.4423	46.9297
682.5965	44.49865
682.7507	47.14321
682.9048	44.58771
683.059	46.27372
683.2131	45.67331
683.3672	46.52653
683.5213	47.05677
683.6754	47.88197
683.8295	48.81092
683.9836	47.86625
684.1377	43.94966
684.2918	42.77584
684.4459	43.63737
684.5999	45.42358
684.754	50.29887
684.908	50.28745
685.062	47.23044
685.2161	50.32665
685.3701	42.8587
685.5241	42.3117
685.6781	45.52995
685.8321	45.38607
685.9861	47.64795
686.14	44.16429
686.294	43.89516
686.4479	50.73642
686.6019	52.4377
686.7559	41.71305
686.9098	43.82651
687.0637	38.99277
687.2176	36.53799
687.3715	41.32928
687.5254	46.93858
687.6793	50.48171
687.8332	48.55368
687.9871	45.16089
688.1409	45.07372
688.2947	45.20108
688.4486	40.3847
688.6024	48.71371
688.7563	51.31381
688.9101	48.44076
689.0639	45.57525
689.2177	47.99368
689.3715	40.87093
689.5253	51.65819
689.6791	46.84903
689.8328	44.6591
689.9866	49.40957
690.1403	49.14477
690.2941	51.27373
690.4478	50.32306
690.6015	48.24459
690.7552	53.90353
690.9089	49.2224
691.0626	51.58516
691.2164	54.50352
691.37	50.67395
691.5237	50.55794
691.6774	50.2915
691.831	50.3521
691.9847	44.90129
692.1383	52.32164
692.2919	57.5005
692.4456	52.48706
692.5992	56.55977
692.7527	51.63379
692.9064	54.85212
693.0599	56.66784
693.2136	49.69382
693.3671	58.48002
693.5207	57.37627
693.6742	57.96786
693.8278	61.34201
693.9813	58.36369
694.1348	56.79637
694.2883	56.05901
694.4418	59.35802
694.5953	51.99197
694.7488	61.87431
694.9023	60.47051
695.0558	62.5747
695.2093	60.37617
695.3627	57.60777
695.5162	58.6507
695.6696	55.8927
695.8231	61.87892
695.9764	62.94063
696.1299	60.57904
696.2833	63.60123
696.4367	64.15958
696.5901	66.32585
696.7435	70.6833
696.8968	66.54241
697.0502	67.66417
697.2036	69.66232
697.3569	72.40333
697.5102	72.70026
697.6635	70.59993
697.8168	67.04012
697.9702	71.10181
698.1235	78.03786
698.2768	76.57929
698.4301	74.71194
698.5833	71.87302
698.7366	73.13385
698.8898	76.14886
699.0431	73.8678
699.1964	75.74854
699.3495	78.73339
699.5028	74.88074
699.656	76.41063
699.8092	69.67415
699.9624	76.78771
700.1156	79.31261
700.2688	76.79175
700.4219	79.68645
700.5751	84.93311
700.7283	80.90305
700.8814	77.9607
701.0345	81.64295
701.1877	79.84017
701.3408	81.9798
701.4939	86.14556
701.647	91.24595
701.8001	84.57227
701.9532	83.08045
702.1063	83.45499
702.2593	86.49139
702.4124	90.33057
702.5654	87.56821
702.7184	85.37612
702.8715	84.73619
703.0245	87.30992
703.1776	91.97472
703.3305	99.0022
703.4835	93.17136
703.6365	92.45837
703.7895	89.38777
703.9424	95.83717
704.0954	92.42809
704.2484	100.0178
704.4013	99.71922
704.5543	102.2238
704.7072	99.01394
704.8601	98.16133
705.013	100.2951
705.1659	101.9245
705.3188	100.3445
705.4717	100.5706
705.6246	101.8105
705.7774	98.16111
705.9303	102.2411
706.0831	99.52063
706.236	99.74707
706.3888	105.5635
706.5416	104.8709
706.6944	105.4525
706.8472	105.7747
707	112.5133
707.1528	111.0764
707.3056	112.222
707.4583	112.9608
707.6111	107.1653
707.7639	104.7822
707.9166	113.2127
708.0693	109.4328
708.222	115.6748
708.3748	118.3626
708.5275	117.6046
708.6802	111.8707
708.8328	114.835
708.9855	117.7569
709.1382	119.215
709.2909	114.7026
709.4435	116.2562
709.5962	116.5066
709.7488	123.2165
709.9014	118.4083
710.054	122.1873
710.2067	123.8603
710.3593	117.0256
710.5118	118.2532
710.6644	122.1897
710.817	125.33
710.9695	125.6608
711.1221	128.4023
711.2747	124.4615
711.4272	124.7522
711.5797	126.598
711.7322	129.6816
711.8848	126.9687
712.0373	126.8
712.1898	126.6491
712.3422	128.9501
712.4948	123.3825
712.6472	129.835
712.7996	131.4879
712.9521	131.4626
713.1046	128.9569
713.257	135.8783
713.4094	130.9832
713.5618	127.7505
713.7142	131.2406
713.8666	138.824
714.019	148.0975
714.1714	144.2823
714.3237	137.415
714.4761	138.2753
714.6285	136.7917
714.7808	137.0812
714.9331	139.917
715.0854	137.26
715.2378	137.6636
715.3901	137.4131
715.5424	141.3979
715.6947	140.907
715.8469	143.347
715.9992	138.5174
716.1515	138.8042
716.3037	142.892
716.456	139.315
716.6082	137.1598
716.7604	128.4583
716.9127	128.0206
717.0649	125.4191
717.2171	125.5135
717.3693	132.7597
717.5214	129.9839
717.6736	122.7266
717.8258	130.4405
717.978	125.964
718.1301	128.8255
718.2822	127.9438
718.4344	123.8306
718.5865	122.076
718.7386	115.9037
718.8907	122.083
719.0428	128.5484
719.1949	125.5299
719.3469	122.107
719.499	129.6926
719.6511	133.7126
719.8031	131.9444
719.9551	131.0773
720.1072	130.2698
720.2592	124.1353
720.4112	122.0008
720.5632	124.591
720.7152	135.8904
720.8672	140.4552
721.0192	151.3606
721.1711	151.6227
721.3231	155.7433
721.475	159.4075
721.627	165.1788
721.7789	160.8588
721.9308	160.2436
722.0828	163.9395
722.2347	161.4841
722.3866	169.7896
722.5385	165.725
722.6903	159.8607
722.8422	166.1633
722.9941	161.7121
723.1459	160.4478
723.2977	150.3662
723.4496	141.0041
723.6014	144.8239
723.7532	152.2317
723.905	159.0935
724.0568	151.5224
724.2086	152.3386
724.3604	154.1491
724.5121	153.0621
724.6639	153.8387
724.8157	159.9536
724.9674	164.0316
725.1191	160.9236
725.2709	153.9152
725.4226	152.1241
725.5743	155.035
725.726	162.0019
725.8777	172.4326
726.0294	172.1866
726.181	164.25
726.3327	158.1129
726.4844	152.3091
726.636	157.9432
726.7877	169.9713
726.9393	182.2564
727.0909	176.2827
727.2425	177.7695
727.3941	168.248
727.5457	159.1114
727.6973	152.3648
727.8488	152.1501
728.0004	164.3992
728.1519	179.8329
728.3035	179.0219
728.455	183.6861
728.6066	187.2256
728.7581	187.625
728.9095	175.0461
729.0611	163.3866
729.2126	164.2929
729.364	167.7067
729.5155	172.894
729.667	182.1588
729.8184	187.2928
729.9698	192.5717
730.1213	185.9222
730.2727	179.5068
730.4241	181.6113
730.5756	182.0656
730.7269	188.3523
730.8784	189.7228
731.0297	184.94
731.1811	181.5014
731.3325	184.4929
731.4838	196.9675
731.6351	190.4936
731.7865	184.0996
731.9378	183.4428
732.0891	196.899
732.2404	200.0212
732.3917	207.3327
732.543	209.8772
732.6943	210.0192
732.8456	209.9508
732.9968	205.178
733.1481	203.1381
733.2993	203.5819
733.4506	209.8465
733.6018	211.8317
733.753	216.852
733.9042	221.5247
734.0554	223.6625
734.2066	216.2342
734.3578	217.7332
734.509	216.2069
734.6602	217.7105
734.8113	216.9769
734.9624	221.3137
735.1136	220.6936
735.2647	217.4284
735.4158	215.5977
735.5669	217.6759
735.718	223.0648
735.8691	222.5838
736.0201	224.3176
736.1713	224.0737
736.3223	212.727
736.4733	217.2897
736.6244	222.1658
736.7755	222.8376
736.9265	226.2429
737.0775	233.1498
737.2285	231.3283
737.3795	224.7918
737.5305	222.7556
737.6815	221.9854
737.8324	222.3613
737.9834	224.9271
738.1343	220.3122
738.2853	223.4635
738.4362	225.5116
738.5871	226.5579
738.738	224.7224
738.8889	221.6082
739.0399	226.597
739.1907	218.5384
739.3416	226.476
739.4925	230.0986
739.6433	234.3286
739.7942	231.9778
739.945	232.6389
740.0958	233.3572
740.2467	235.3052
740.3975	238.8278
740.5483	236.6247
740.6991	243.038
740.8499	236.1615
741.0007	229.0207
741.1514	230.9156
741.3022	231.2223
741.4529	229.9669
741.6036	231.8455
741.7544	233.3499
741.9051	230.9665
742.0558	231.8808
742.2065	239.1625
742.3572	231.3599
742.5079	233.206
742.6586	235.3228
742.8093	243.2089
742.9599	239.5755
743.1105	240.6349
743.2612	238.0161
743.4118	239.8384
743.5624	236.955
743.7131	248.3598
743.8636	244.6649
744.0142	242.7825
744.1648	235.9787
744.3154	231.512
744.4659	230.497
744.6165	236.4247
744.767	240.2732
744.9176	233.3656
745.0681	232.7478
745.2186	241.099
745.3691	239.9726
745.5197	245.2715
745.6702	245.141
745.8206	245.9799
745.9711	240.1749
746.1215	234.5164
746.272	236.3384
746.4224	240.4015
746.5729	240.2703
746.7233	242.9411
746.8737	243.7915
747.0241	244.8405
747.1745	239.7636
747.3249	243.9077
747.4753	239.8381
747.6257	233.694
747.776	237.097
747.9264	236.5689
748.0767	239.5492
748.2271	237.6795
748.3774	240.4493
748.5276	234.9377
748.678	238.9485
748.8282	243.8261
748.9786	235.0811
749.1288	237.1027
749.2791	229.1488
749.4294	217.7717
749.5796	233.0837
749.7299	228.9969
749.8801	220.8928
750.0303	226.0182
750.1805	232.7445
750.3307	238.1071
750.4809	232.5133
750.6311	227.372
750.7813	228.1863
750.9314	232.6902
751.0816	220.3859
751.2318	220.7974
751.3818	227.2231
751.532	227.9453
751.6821	229.9053
751.8322	228.1494
751.9823	224.226
752.1324	219.8621
752.2825	222.7896
752.4326	219.7299
752.5826	221.8064
752.7327	233.1469
752.8827	232.4019
753.0327	223.1276
753.1827	219.2198
753.3328	226.5448
753.4828	227.7799
753.6328	228.812
753.7828	225.174
753.9327	220.6517
754.0827	222.5049
754.2327	222.6963
754.3826	224.4009
754.5325	223.453
754.6825	216.1548
754.8324	215.2151
754.9823	220.3075
755.1322	222.8562
755.2821	226.2464
755.432	215.2687
755.5818	207.4857
755.7318	212.8544
755.8816	220.4785
756.0314	220.0408
756.1813	216.4139
756.3311	220.0351
756.4809	223.5343
756.6307	215.7879
756.7805	210.5874
756.9303	207.0236
757.0801	209.0427
757.2299	212.0735
757.3796	214.5737
757.5294	210.2247
757.6791	212.0691
757.8289	217.7585
757.9786	219.0385
758.1283	209.6161
758.278	205.5109
758.4277	204.9625
758.5773	202.1129
758.7271	202.6054
758.8767	201.358
759.0264	206.0929
759.176	204.9593
759.3256	179.1169
759.4753	148.931
759.6249	115.3856
759.7745	95.10852
759.9241	78.95569
760.0737	65.22598
760.2233	61.50554
760.3729	48.36409
760.5224	45.44115
760.6719	49.96569
760.8215	47.04137
760.971	54.40678
761.1205	61.77394
761.2701	77.50964
761.4196	88.03349
761.5691	107.533
761.7186	118.8724
761.868	130.7702
762.0175	138.4675
762.167	128.4892
762.3164	116.5954
762.4659	106.8446
762.6153	98.80845
762.7647	91.95013
762.9141	91.15449
763.0635	90.55092
763.2129	91.1405
763.3623	90.14817
763.5117	93.75051
763.661	96.69476
763.8104	101.4278
763.9597	105.5652
764.1091	109.1514
764.2584	107.8052
764.4077	107.6509
764.557	115.2418
764.7063	121.4535
764.8556	127.1438
765.0049	129.3162
765.1541	129.5687
765.3034	137.6788
765.4526	135.634
765.6019	133.6582
765.7511	139.5887
765.9003	143.6223
766.0496	138.461
766.1987	149.5077
766.348	155.5515
766.4971	156.2634
766.6463	155.8006
766.7955	153.3311
766.9446	161.4414
767.0938	159.2331
767.2429	161.0016
767.392	162.6978
767.5411	168.7985
767.6902	171.2899
767.8394	168.6574
767.9884	167.5981
768.1375	168.0018
768.2866	173.1594
768.4356	169.4149
768.5847	168.2281
768.7337	175.603
768.8828	171.7018
769.0317	174.457
769.1808	169.7966
769.3298	172.3629
769.4788	170.7907
769.6277	171.31
769.7767	174.2012
769.9257	169.1329
770.0746	167.1793
770.2236	164.7294
770.3725	172.0669
770.5214	175.3704
770.6703	177.0863
770.8193	177.9027
770.9681	169.4162
771.1171	167.8082
771.2659	171.276
771.4148	164.4332
771.5637	163.436
771.7125	168.3066
771.8613	177.8719
772.0101	173.9995
772.159	169.8243
772.3078	173.9353
772.4566	171.8984
772.6054	166.0284
772.7542	166.8741
772.903	166.7887
773.0517	166.4614
773.2004	168.2576
773.3492	166.0675
773.4979	174.1533
773.6467	171.0945
773.7953	173.8456
773.944	171.6868
774.0928	173.5957
774.2415	164.7002
774.3901	165.8055
774.5388	166.5794
774.6874	163.6758
774.8361	156.0054
774.9847	158.4818
775.1334	160.4081
775.282	163.6203
775.4305	166.2504
775.5792	162.8383
775.7277	161.4565
775.8763	162.4132
776.0249	163.55
776.1735	166.6722
776.322	166.286
776.4705	163.6864
776.6191	160.0498
776.7676	160.1776
776.9161	160.9895
777.0646	161.9699
777.2131	156.3571
777.3616	155.4967
777.5101	151.5211
777.6585	151.1403
777.8069	155.1437
777.9554	153.6482
778.1038	155.5794
778.2523	152.0272
778.4007	155.3274
778.5491	163.4745
778.6974	164.5289
778.8459	162.1872
778.9942	158.287
779.1426	161.2971
779.291	157.3938
779.4393	160.1137
779.5876	157.7435
779.736	154.0749
779.8843	153.5957
780.0326	147.2718
780.1809	154.6004
780.3292	154.6767
780.4775	152.6905
780.6257	150.2599
780.774	151.5143
780.9222	151.9926
781.0704	154.7182
781.2187	156.2627
781.3669	152.905
781.5151	156.6615
781.6633	160.1492
781.8115	155.8657
781.9597	147.583
782.1078	154.6425
782.256	156.8109
782.4042	155.4747
782.5523	151.5434
782.7004	152.9891
782.8486	153.5646
782.9967	153.9573
783.1448	149.0029
783.2929	147.7981
783.441	147.4603
783.5891	143.1068
783.7371	152.6349
783.8851	149.5221
784.0332	143.5228
784.1812	150.3279
784.3293	149.126
784.4773	151.9095
784.6253	150.4338
784.7733	150.8351
784.9213	142.9455
785.0692	148.4142
785.2172	150.4227
785.3652	154.8842
785.5131	143.9485
785.6611	152.307
785.809	149.6705
785.9569	152.7322
786.1048	151.5647
786.2527	147.8331
786.4006	140.3882
786.5485	142.0455
786.6964	145.0199
786.8442	145.0723
786.9921	139.6828
787.1399	144.205
787.2877	151.0977
787.4355	140.8985
787.5833	143.4122
787.7311	137.0332
787.8789	140.8635
788.0267	137.3584
788.1745	144.8967
788.3223	137.8149
788.47	134.0773
788.6177	134.4673
788.7654	144.142
788.9132	138.6372
789.0609	135.3065
789.2086	141.9311
789.3563	139.8257
789.504	139.5221
789.6517	137.5939
789.7993	133.1489
789.947	135.9166
790.0946	137.9695
790.2422	134.2813
790.3898	138.2004
790.5375	137.8271
790.6851	135.2775
790.8326	139.0867
790.9802	137.5333
791.1278	136.3081
791.2754	136.4467
791.423	139.1224
791.5705	134.5189
791.718	135.1579
791.8655	133.0957
792.0131	135.175
792.1606	133.9149
792.308	130.5509
792.4556	133.1587
792.603	134.7147
792.7505	126.7975
792.8979	129.7648
793.0454	130.4935
793.1928	128.6429
793.3403	131.1523
793.4877	137.6132
793.6351	135.8921
793.7825	137.0095
793.9299	137.4679
794.0772	134.5167
794.2246	130.5063
794.3719	132.4995
794.5193	130.0579
794.6666	131.8632
794.814	128.8519
794.9613	125.4773
795.1086	127.2485
795.2559	130.5308
795.4032	132.1263
795.5505	132.3538
795.6978	130.9684
795.845	127.2963
795.9922	125.1633
796.1395	119.0819
796.2867	117.9168
796.4339	127.1469
796.5811	127.6455
796.7283	127.6987
796.8755	132.4945
797.0227	133.9052
797.1699	123.8772
797.317	128.4292
797.4642	128.9733
797.6113	127.1414
797.7584	125.2691
797.9056	122.6368
798.0527	125.8759
798.1998	122.758
798.3469	119.5489
798.494	123.1715
798.641	125.3517
798.7881	125.0984
798.9351	125.2763
799.0822	132.1428
799.2292	128.4405
799.3762	125.1296
799.5232	122.8182
799.6702	126.1064
799.8172	119.7443
799.9642	113.8844
800.1111	118.1233
800.2581	125.2046
800.4051	118.5036
800.552	123.3541
800.6989	120.882
800.8458	116.3157
800.9927	118.2809
801.1396	122.8929
801.2866	122.0465
801.4334	121.0926
801.5803	123.6956
801.7272	124.0816
801.874	121.7487
802.0209	118.4617
802.1677	114.9864
802.3145	113.4983
802.4613	113.1601
802.6081	113.4223
802.7549	117.0116
802.9017	122.7987
803.0485	115.3046
803.1952	119.5261
803.342	122.9855
803.4887	120.4373
803.6354	119.3959
803.7822	112.1992
803.9289	114.5454
804.0756	112.2416
804.2223	112.3642
804.369	109.3541
804.5156	106.6393
804.6623	104.011
804.8089	105.2712
804.9556	107.4708
805.1022	107.0772
805.2488	109.6375
805.3954	106.5252
805.542	110.0394
805.6886	110.5525
805.8352	111.229
805.9818	111.5231
806.1283	109.0332
806.2749	110.1489
806.4214	105.6573
806.5679	112.9999
806.7145	113.5274
806.861	106.0506
807.0074	106.1796
807.154	101.6172
807.3004	109.6348
807.4469	101.6578
807.5934	107.2242
807.7398	101.7489
807.8862	106.5165
808.0327	111.2464
808.1791	109.1417
808.3255	106.37
808.4719	104.8132
808.6183	101.9293
808.7647	106.1922
808.9111	105.1063
809.0574	105.8628
809.2037	102.5117
809.3501	103.8794
809.4965	108.4371
809.6428	101.5126
809.7891	101.2832
809.9354	95.25149
810.0817	98.90795
810.2279	102.7486
810.3742	99.13028
810.5204	103.1712
810.6667	104.7478
810.8129	105.0817
810.9592	93.54771
811.1054	103.0172
811.2516	102.4775
811.3978	104.422
811.5439	105.313
811.6901	107.7597
811.8363	102.6437
811.9825	99.22601
812.1286	96.20374
812.2748	94.40204
812.4209	94.91931
812.567	96.69962
812.7131	93.72788
812.8592	93.35399
813.0053	85.5184
813.1514	88.01057
813.2974	86.25061
813.4435	84.81401
813.5895	86.57901
813.7356	90.3825
813.8816	89.39143
814.0276	83.71339
814.1736	83.15448
814.3196	87.67682
814.4656	84.22615
814.6116	79.87025
814.7576	78.29305
814.9035	73.55482
815.0494	76.67192
815.1954	79.18076
815.3413	82.68226
815.4872	80.58151
815.6331	77.67846
815.779	82.73431
815.9249	83.52731
816.0707	82.0092
816.2166	75.20481
816.3625	64.70255
816.5083	62.65641
816.6542	74.02465
816.8	76.37524
816.9458	75.09107
817.0916	77.70269
817.2374	80.33173
817.3832	83.6207
817.5289	86.87994
817.6747	72.96032
817.8204	75.52084
817.9662	66.63982
818.1119	70.55291
818.2576	71.74471
818.4034	78.0589
818.5491	76.41741
818.6948	78.64494
818.8405	72.97032
818.9861	77.20539
819.1318	83.34713
819.2774	73.07043
819.423	74.86079
819.5687	78.33446
819.7143	76.30977
819.8599	74.0212
820.0055	69.63441
820.1511	75.42069
820.2967	88.58262
820.4422	82.88145
820.5878	83.4015
820.7333	89.75389
820.8788	82.65575
821.0244	82.9394
821.1699	80.38678
821.3154	83.78721
821.4609	79.02554
821.6064	83.99711
821.7519	78.53629
821.8973	80.95514
822.0428	82.48978
822.1882	77.77673
822.3337	70.4245
822.4791	66.45336
822.6245	64.37748
822.7699	61.40191
822.9153	50.16231
823.0607	52.24539
823.2061	55.02562
823.3514	58.02114
823.4968	70.72173
823.6422	68.36903
823.7875	72.86404
823.9328	79.70392
824.0781	83.00202
824.2234	79.48853
824.3687	76.03941
824.514	75.06384
824.6592	75.8834
824.8045	79.19289
824.9498	80.47754
825.095	81.62469
825.2402	79.83936
825.3854	74.15804
825.5306	71.79257
825.6758	70.07628
825.821	72.86709
825.9662	74.24798
826.1114	76.18673
826.2565	76.18486
826.4017	73.09144
826.5468	74.49234
826.692	79.5628
826.837	80.1957
826.9822	77.39515
827.1273	74.43259
827.2723	69.92945
827.4174	66.62431
827.5625	66.15395
827.7075	63.88282
827.8526	67.92626
827.9976	72.03649
828.1426	65.41348
828.2877	64.51138
828.4327	71.33195
828.5776	69.3993
828.7227	74.54765
828.8676	67.18974
829.0126	67.8091
829.1575	76.42493
829.3024	74.29757
829.4474	65.04156
829.5923	64.12233
829.7372	70.35683
829.8821	68.04702
830.027	72.53918
830.1719	73.72545
830.3168	71.99922
830.4616	66.00626
830.6064	67.50253
830.7513	70.41433
830.8961	69.97436
831.041	66.8024
831.1857	73.01265
831.3306	73.46935
831.4753	68.1849
831.6201	72.27972
831.7649	72.75129
831.9096	67.59966
832.0544	65.91511
832.1991	66.10435
832.3438	64.66959
832.4885	68.31714
832.6332	68.58578
832.778	67.0731
832.9226	66.11173
833.0673	65.86441
833.2119	62.49599
833.3566	69.45736
833.5012	64.1264
833.6459	61.38003
833.7905	66.00144
833.9351	67.70737
834.0797	65.70182
834.2243	67.87478
834.3688	71.16944
834.5134	73.03846
834.658	69.84952
834.8026	71.95353
834.9471	70.48883
835.0916	65.79391
835.2361	64.19959
835.3806	70.97112
835.5251	68.87969
835.6696	69.79192
835.8141	63.19437
835.9586	65.56838
836.103	72.3911
836.2474	67.61154
836.3918	68.89741
836.5363	77.27754
836.6807	69.73618
836.8251	73.23847
836.9695	71.47137
837.1138	65.23532
837.2582	67.00315
837.4026	70.15745
837.5469	65.22903
837.6913	67.82829
837.8356	67.84655
837.9799	70.31604
838.1242	66.44512
838.2686	65.03754
838.4128	70.34287
838.5571	67.14867
838.7014	71.16326
838.8456	67.01981
838.9899	64.00697
839.1341	68.70492
839.2783	71.6752
839.4225	67.2532
839.5667	69.59142
839.7109	70.97621
839.8551	75.28777
839.9993	75.28477
840.1434	73.74369
840.2876	69.37597
840.4317	67.96418
840.5759	67.33651
840.72	68.96835
840.8641	65.18446
841.0082	61.51064
841.1523	66.3529
841.2963	70.48209
841.4404	67.20562
841.5845	63.48623
841.7285	66.14027
841.8726	57.26838
842.0165	67.5604
842.1606	65.82878
842.3046	64.48686
842.4485	66.4631
842.5925	68.37234
842.7365	68.64365
842.8805	66.38465
843.0244	68.95979
843.1684	66.48495
843.3123	62.46442
843.4562	71.341
843.6002	67.1991
843.744	70.47025
843.8879	62.94646
844.0318	64.54152
844.1757	63.64376
844.3195	70.01015
844.4634	65.56188
844.6072	70.85803
844.751	66.41413
844.8948	64.51722
845.0386	64.48107
845.1824	63.59572
845.3262	64.38194
845.47	66.09303
845.6138	64.30431
845.7575	63.7175
845.9012	65.75922
846.045	62.79657
846.1887	66.1385
846.3324	67.58743
846.4761	65.58339
846.6198	63.98516
846.7635	61.01518
846.9071	61.90303
847.0508	64.21542
847.1944	64.97126
847.3381	62.89048
847.4817	62.50017
847.6253	64.07408
847.7689	64.57928
847.9125	68.88835
848.0561	65.25194
848.1996	63.9333
848.3432	63.08763
848.4868	59.10301
848.6303	58.58001
848.7738	64.44707
848.9174	60.43229
849.0609	62.8177
849.2043	63.0819
849.3478	60.26916
849.4913	60.71747
849.6348	59.06516
849.7782	55.2141
849.9217	52.91933
850.0651	51.48574
850.2086	56.59146
850.3519	54.74151
850.4954	54.73574
850.6387	57.24152
850.7821	64.92667
850.9255	67.13262
851.0688	62.42654
851.2122	57.7854
851.3555	58.07355
851.4988	56.98565
851.6422	63.58032
851.7855	66.21615
851.9288	62.17294
852.0721	57.85149
852.2153	58.60118
852.3586	60.09311
852.5018	63.71475
852.6451	59.09015
852.7883	64.9138
852.9315	59.08276
853.0748	63.49579
853.218	59.88785
853.3611	55.07999
853.5043	53.77223
853.6475	60.37098
853.7906	59.2674
853.9338	50.22467
854.0769	45.25537
854.22	45.27512
854.3632	46.23795
854.5063	46.97718
854.6494	52.74085
854.7924	48.44524
854.9355	54.01899
855.0786	57.07231
855.2216	60.65173
855.3647	62.74997
855.5077	57.96722
855.6507	58.66587
855.7937	58.71103
855.9367	53.8308
856.0797	58.85489
856.2227	59.35653
856.3657	60.22506
856.5086	58.91766
856.6516	58.3803
856.7945	58.43796
856.9374	58.09157
857.0803	61.92456
857.2232	61.19757
857.3661	63.64172
857.509	54.52337
857.6519	51.82618
857.7947	60.42178
857.9376	58.4092
858.0804	52.79215
858.2232	58.96978
858.366	62.46754
858.5089	58.37718
858.6516	59.40677
858.7944	56.76456
858.9372	57.4342
859.08	52.03589
859.2227	55.67059
859.3654	56.85758
859.5082	55.73708
859.6509	57.47955
859.7936	54.13909
859.9363	58.08992
860.079	54.90209
860.2217	54.98761
860.3643	54.54274
860.507	52.66215
860.6496	55.87914
860.7922	57.16702
860.9349	59.71823
861.0775	53.73475
861.2201	49.2695
861.3627	50.37045
861.5052	52.94004
861.6478	55.45395
861.7904	52.50014
861.9329	54.1124
862.0755	56.36854
862.218	58.47573
862.3605	55.6601
862.503	54.09222
862.6455	57.68711
862.788	55.44036
862.9305	56.43885
863.0729	52.16175
863.2154	53.4091
863.3578	51.36814
863.5002	51.56011
863.6426	54.69957
863.7851	51.66432
863.9275	49.27431
864.0698	52.05106
864.2122	54.91416
864.3546	47.19421
864.4969	46.4757
864.6393	48.63644
864.7816	47.92611
864.924	56.91584
865.0662	51.14482
865.2086	49.4668
865.3508	50.78551
865.4931	55.32401
865.6354	49.30857
865.7776	49.41891
865.9199	45.35084
866.0621	42.01013
866.2043	35.18139
866.3466	36.33982
866.4888	39.97651
866.6309	43.48079
866.7731	49.44081
866.9153	46.81091
867.0574	49.7058
867.1996	53.30188
867.3417	56.24525
867.4839	45.20952
867.626	42.69601
867.7681	44.42123
867.9102	47.54413
868.0522	54.12922
868.1943	47.23468
868.3364	47.95415
868.4785	52.71482
868.6205	52.7929
868.7625	53.90893
868.9045	45.12982
869.0465	47.11628
869.1885	46.16755
869.3305	51.60937
869.4725	53.64057
869.6144	53.47893
869.7564	48.32221
869.8983	45.53893
870.0403	48.82973
870.1822	46.89643
870.3241	46.11106
870.466	49.54222
870.6079	46.52621
870.7498	45.62971
870.8916	46.147
871.0335	48.77174
871.1754	43.81088
871.3171	43.28885
871.459	45.87712
871.6008	46.3511
871.7426	46.6659
871.8844	46.66005
872.0262	44.75688
872.1679	42.22846
872.3097	45.23972
872.4514	49.60635
872.5931	51.83943
872.7349	48.04405
872.8766	46.3216
873.0183	44.89684
873.16	44.17493
873.3017	49.55669
873.4434	47.3295
873.585	49.47625
873.7266	47.64347
873.8683	47.11441
874.0099	40.6263
874.1516	43.36517
874.2932	45.16118
874.4348	47.85339
874.5763	43.18203
874.7179	37.17413
874.8594	42.81884
875.001	42.20525
875.1425	37.89459
875.2841	40.89057
875.4256	40.33232
875.5671	43.26693
875.7086	46.61485
875.85	43.01489
875.9915	40.71547
876.133	41.67132
876.2744	43.518
876.4159	43.20733
876.5573	43.11978
876.6987	43.42859
876.8401	38.41011
876.9815	46.38797
877.1229	42.72942
877.2643	34.71735
877.4056	36.29253
877.547	43.65099
877.6884	41.42616
877.8297	45.68034
877.971	44.61264
878.1123	37.8482
878.2536	38.36858
878.3949	41.98875
878.5362	41.87289
878.6774	44.41045
878.8187	38.52748
878.9599	40.05606
879.1011	43.94342
879.2424	40.6828
879.3836	46.21796
879.5248	44.55616
879.666	43.52389
879.8071	42.36287
879.9483	40.33635
880.0895	36.73031
880.2306	37.856
880.3718	38.68842
880.5129	45.348
880.654	38.45381
880.7951	35.81368
880.9362	40.05579
881.0773	38.08256
881.2183	45.41043
881.3594	40.36
881.5004	43.86347
881.6414	41.7319
881.7825	38.66704
881.9235	41.14572
882.0645	39.24488
882.2054	35.56482
882.3464	33.73481
882.4874	41.72836
882.6284	40.75303
882.7693	41.11317
882.9103	37.02146
883.0512	37.75635
883.1921	38.77945
883.333	41.41072
883.4739	40.91679
883.6147	38.08374
883.7556	33.13966
883.8965	39.41556
884.0374	38.39919
884.1782	40.59293
884.319	38.56586
884.4598	42.93365
884.6006	42.27225
884.7414	37.25042
884.8822	36.3886
885.0229	36.95477
885.1637	38.87498
885.3044	38.61194
885.4452	35.24232
885.5859	39.25107
885.7266	38.36077
885.8673	37.4062
886.008	38.08397
886.1487	33.96536
886.2894	35.82841
886.43	39.34735
886.5707	38.4444
886.7113	42.31126
886.8519	38.37807
886.9926	38.50449
887.1331	42.32193
887.2737	41.03459
887.4143	35.68461
887.5549	32.64653
887.6954	38.00955
887.836	42.25574
887.9765	43.28217
888.1171	41.42245
888.2576	35.75762
888.3981	34.48684
888.5386	35.34239
888.679	35.49072
888.8195	34.36724
888.96	35.1095
889.1004	37.8354
889.2408	35.30758
889.3813	38.16901
889.5217	35.95366
889.6621	31.53028
889.8025	36.20876
889.9429	41.39533
890.0833	35.65978
890.2236	38.38204
890.364	34.3709
890.5043	37.5573
890.6446	40.15734
890.7849	33.91293
890.9252	34.52197
891.0655	38.089
891.2058	33.54528
891.3461	36.554
891.4863	36.87086
891.6266	40.74458
891.7668	38.94857
891.907	31.38749
892.0472	36.11841
892.1874	35.88157
892.3276	42.12428
892.4678	37.05918
892.608	31.34257
892.7481	32.80867
892.8883	34.04441
893.0284	33.01199
893.1685	33.5666
893.3087	33.44779
893.4487	35.25545
893.5889	35.60865
893.7289	29.96873
893.869	30.83757
894.009	33.70514
894.1491	35.52176
894.2891	35.72742
894.4291	32.29199
894.5692	32.71212
894.7092	31.23671
894.8491	34.6594
894.9891	34.84542
895.1291	33.75242
895.269	31.91719
895.409	29.2705
895.549	30.81956
895.6888	31.55005
895.8288	31.73137
895.9687	28.04583
896.1086	31.97164
896.2484	28.20014
896.3883	26.71712
896.5281	23.86546
896.668	29.14716
896.8079	28.25238
896.9476	29.27011
897.0875	29.65357
897.2272	28.37278
897.3671	24.29709
897.5068	26.32606
897.6466	30.37294
897.7864	31.84262
897.9261	30.98395
898.0658	29.56969
898.2056	24.8106
898.3453	31.82559
898.4849	28.22488
898.6246	30.53321
898.7643	29.39056
898.904	20.31713
899.0436	22.14005
899.1833	19.0771
899.3229	21.1914
899.4625	25.08743
899.6021	31.70608
899.7417	32.92294
899.8813	25.59866
900.0209	22.92422
900.1605	22.26283
900.3	24.75988
900.4395	21.97577
900.579	20.05414
900.7186	21.59895
900.8581	22.82794
900.9976	24.77371
901.1371	27.57536
901.2766	23.7278
901.416	23.37826
901.5555	25.4525
901.6949	22.62198
901.8344	25.47705
901.9738	26.36524
902.1132	27.32897
902.2526	25.05718
902.3919	23.36351
902.5313	24.51976
902.6707	23.15709
