SPECTRUM DATA FILE
SpectrumCount:	1
PixelCount:	3648
UserName:	ToughBook User
SampleName:	
LightSource:	
Comments:	
DeviceName:	Qwave
DeviceManufacturer:	Broadcom
DeviceSerialNo:	11311

Name:	last spectrum
Date:	2024-05-02T14:42:59.5651874+02:00
ExposureTime:	0.02
TemporalAvg:	1
IntensityUnit:	normalizedCounts
CCDLoadLevel:	0.05339822
Temperature:	31.05875
DiagramColor:	200
ProcessingSteps:	335

Wavelength [nm]	Intensity1
334.421	1.163682
334.5891	5.675886
334.7573	5.960929
334.9254	4.378167
335.0935	11.46605
335.2616	10.52753
335.4297	9.878085
335.5978	9.785174
335.7659	10.82293
335.934	7.646725
336.1021	3.511164
336.2701	4.186556
336.4382	3.826581
336.6063	10.90386
336.7744	8.045953
336.9424	3.233109
337.1105	3.393342
337.2785	4.158423
337.4466	7.311351
337.6146	7.620808
337.7827	8.159132
337.9507	10.70083
338.1187	5.972131
338.2867	5.488244
338.4548	8.851346
338.6228	9.241072
338.7908	8.068581
338.9588	7.978539
339.1268	6.673353
339.2948	6.63467
339.4628	7.422342
339.6308	8.652451
339.7988	5.234263
339.9667	6.922063
340.1347	9.239789
340.3027	5.625884
340.4707	3.594329
340.6386	4.125926
340.8066	2.359338
340.9745	3.896032
341.1425	1.966291
341.3104	4.197894
341.4784	5.4314
341.6463	2.273361
341.8142	5.818268
341.9821	5.744884
342.1501	8.364879
342.318	9.814882
342.4859	6.784324
342.6538	12.91101
342.8217	8.528103
342.9896	6.514532
343.1575	8.631489
343.3254	9.654287
343.4933	7.227838
343.6612	9.496822
343.829	8.965715
343.9969	9.210599
344.1648	6.49135
344.3326	4.077982
344.5005	7.239302
344.6683	2.959628
344.8362	9.003633
345.004	9.039963
345.1719	5.987784
345.3397	7.692663
345.5075	8.662062
345.6754	8.889521
345.8432	6.594141
346.011	11.38614
346.1788	11.68974
346.3466	13.24387
346.5144	8.584714
346.6822	6.717294
346.85	9.661907
347.0178	7.096929
347.1856	6.250259
347.3534	8.521581
347.5211	12.57618
347.6889	11.02332
347.8567	10.16797
348.0244	7.986578
348.1922	10.54532
348.3599	8.243093
348.5277	7.349384
348.6954	7.887188
348.8632	8.138001
349.0309	3.678907
349.1986	4.842321
349.3663	1.37598
349.5341	6.172088
349.7018	6.285782
349.8695	2.771231
350.0372	6.987137
350.2049	9.303405
350.3726	7.794682
350.5403	9.773802
350.7079	6.330015
350.8756	4.27668
351.0433	7.15461
351.211	10.73239
351.3786	6.635272
351.5463	6.034353
351.714	7.184213
351.8816	8.095742
352.0493	6.333031
352.2169	7.474533
352.3846	5.952116
352.5522	6.22378
352.7198	7.647808
352.8875	12.02759
353.0551	9.232591
353.2227	8.470613
353.3903	7.442389
353.5579	8.513067
353.7255	7.67838
353.8931	6.738799
354.0607	5.373029
354.2283	10.1063
354.3958	8.360965
354.5634	6.724344
354.731	5.944078
354.8986	13.39339
355.0661	8.895111
355.2337	9.443144
355.4012	7.309467
355.5688	5.123465
355.7363	6.395651
355.9039	5.874036
356.0714	9.289333
356.239	8.363438
356.4065	9.473111
356.574	6.512087
356.7415	7.01006
356.909	12.06688
357.0765	9.722271
357.244	11.03279
357.4115	8.23867
357.579	10.07822
357.7465	8.65906
357.914	8.7544
358.0815	9.017386
358.249	5.529211
358.4164	2.286107
358.5839	7.291469
358.7513	7.179011
358.9188	12.42849
359.0862	10.87915
359.2537	7.08764
359.4211	7.70919
359.5886	8.158304
359.756	7.184648
359.9234	8.60091
360.0909	4.658028
360.2583	4.967356
360.4257	6.32583
360.5931	2.77434
360.7605	2.354801
360.9279	10.52029
361.0953	7.580079
361.2627	5.219479
361.4301	9.475047
361.5974	12.13337
361.7648	7.69866
361.9322	7.97891
362.0995	7.712312
362.2669	8.167858
362.4343	10.95217
362.6016	13.70338
362.769	11.537
362.9363	8.342591
363.1036	9.233435
363.271	4.146025
363.4383	10.13027
363.6056	7.506588
363.7729	9.474679
363.9402	7.691345
364.1075	4.86442
364.2748	11.77971
364.4421	9.532201
364.6094	6.673382
364.7767	11.1153
364.944	11.61878
365.1113	8.910986
365.2786	10.69202
365.4458	12.11493
365.6131	13.05756
365.7803	11.9761
365.9476	9.861293
366.1148	13.20706
366.2821	14.26631
366.4493	7.479557
366.6166	7.761687
366.7838	10.74266
366.951	7.182343
367.1182	7.908029
367.2855	10.07696
367.4527	9.895927
367.6199	8.833076
367.7871	12.77814
367.9543	8.735078
368.1215	8.229775
368.2886	11.89389
368.4558	14.61233
368.623	14.07582
368.7902	9.15292
368.9573	8.715409
369.1245	8.519236
369.2917	10.748
369.4588	9.477087
369.6259	14.87685
369.7931	13.77992
369.9602	12.68299
370.1274	12.22436
370.2945	10.16737
370.4616	10.18253
370.6287	5.496275
370.7958	10.9311
370.963	15.4892
371.1301	12.39389
371.2971	12.49028
371.4643	6.40848
371.6313	8.494719
371.7984	11.83243
371.9655	13.47283
372.1326	8.901992
372.2997	7.971839
372.4667	12.66808
372.6338	14.68706
372.8008	17.67108
372.9679	13.85504
373.1349	8.368917
373.3019	9.400902
373.469	12.22036
373.636	10.53722
373.803	14.29028
373.9701	15.01358
374.1371	12.36347
374.3041	10.96235
374.4711	10.79745
374.6381	13.62323
374.8051	13.49097
374.9721	10.4049
375.1391	11.88317
375.3061	12.44895
375.473	12.08927
375.64	11.66102
375.8069	9.254417
375.9739	11.64741
376.1409	12.18989
376.3078	9.247327
376.4748	10.7661
376.6417	15.14445
376.8087	17.31406
376.9756	14.24519
377.1425	10.56455
377.3094	11.12464
377.4763	15.42158
377.6432	17.89782
377.8102	14.62131
377.9771	16.1739
378.144	9.474648
378.3109	10.22359
378.4777	12.70441
378.6446	9.952879
378.8115	13.51024
378.9784	13.86215
379.1452	10.50254
379.3121	5.745587
379.4789	10.18012
379.6458	8.481994
379.8127	9.884761
379.9795	11.77578
380.1463	12.31767
380.3131	13.92239
380.48	12.8906
380.6468	12.65376
380.8136	7.859888
380.9804	11.67382
381.1472	13.40095
381.314	15.99987
381.4808	12.62119
381.6476	14.18724
381.8144	15.01711
381.9812	13.64406
382.148	12.587
382.3147	13.65228
382.4815	8.960849
382.6483	11.01072
382.815	12.57076
382.9818	13.34035
383.1485	11.72641
383.3153	12.57376
383.482	13.30798
383.6487	9.826942
383.8155	11.35955
383.9822	9.137958
384.1489	9.506662
384.3156	14.54337
384.4823	15.54008
384.649	11.527
384.8157	8.86012
384.9824	14.62122
385.1491	15.11202
385.3158	18.54365
385.4825	16.637
385.6491	11.56143
385.8158	15.88334
385.9825	12.77279
386.1491	13.96172
386.3157	11.06686
386.4824	16.6109
386.649	15.03439
386.8157	14.97882
386.9823	14.84523
387.1489	14.97718
387.3156	16.7966
387.4821	14.92546
387.6488	14.00294
387.8154	12.5438
387.982	15.00378
388.1486	18.15531
388.3152	15.54367
388.4818	13.00439
388.6483	13.84973
388.8149	12.90579
388.9815	9.852767
389.148	20.07438
389.3146	18.44604
389.4811	18.10973
389.6477	15.53797
389.8142	10.71219
389.9808	12.15191
390.1473	10.31276
390.3138	13.6955
390.4804	16.00322
390.6469	13.95806
390.8134	11.82619
390.9799	17.46186
391.1464	17.73295
391.3129	16.31996
391.4794	15.52585
391.6459	17.76361
391.8124	17.40057
391.9789	15.32376
392.1453	17.92899
392.3118	13.8529
392.4782	15.3247
392.6447	12.82252
392.8112	12.21791
392.9776	13.82461
393.144	12.09172
393.3105	9.650711
393.4769	10.86762
393.6433	9.732873
393.8098	14.01344
393.9762	13.43364
394.1426	13.37055
394.309	17.4358
394.4754	16.1047
394.6418	19.28003
394.8082	17.22789
394.9746	17.27652
395.141	19.30284
395.3073	18.5173
395.4737	16.29967
395.64	20.74753
395.8064	18.68651
395.9728	16.62681
396.1391	14.33869
396.3055	14.42578
396.4718	15.10608
396.6381	13.86388
396.8045	12.74887
396.9708	13.94531
397.1371	12.87318
397.3034	16.41366
397.4697	14.78594
397.636	15.29032
397.8023	20.06419
397.9686	26.03155
398.1349	23.74238
398.3012	20.38951
398.4675	20.07295
398.6337	18.61739
398.8	21.5176
398.9662	21.71253
399.1325	17.18568
399.2988	21.95015
399.465	21.94223
399.6313	26.51493
399.7975	22.37931
399.9637	21.5638
400.1299	24.67491
400.2961	23.73495
400.4624	25.07475
400.6286	26.27009
400.7948	21.26148
400.961	23.13
401.1272	20.99682
401.2934	22.4227
401.4595	21.96442
401.6257	20.33879
401.7919	22.97675
401.9581	18.85094
402.1242	22.26089
402.2904	28.29144
402.4565	21.03583
402.6227	24.07835
402.7888	21.52056
402.955	23.27437
403.1211	23.38278
403.2872	22.40924
403.4533	23.05683
403.6194	24.94762
403.7856	25.03906
403.9517	21.81363
404.1177	26.22497
404.2838	20.44321
404.4499	24.9491
404.616	23.67607
404.7821	23.27608
404.9482	27.53769
405.1142	27.02136
405.2803	24.10179
405.4464	23.69027
405.6124	22.09304
405.7784	21.38844
405.9445	21.45626
406.1105	22.30776
406.2766	23.4883
406.4426	21.20179
406.6086	20.95439
406.7746	28.47198
406.9406	29.50778
407.1066	24.90324
407.2726	23.29979
407.4386	23.88075
407.6046	27.36456
407.7706	23.08213
407.9366	27.4456
408.1025	27.06038
408.2685	27.66809
408.4344	25.51971
408.6004	22.25145
408.7664	29.53893
408.9323	30.83263
409.0983	33.23062
409.2642	28.63989
409.4301	25.4429
409.596	29.45869
409.762	30.37548
409.9279	30.77879
410.0938	24.7672
410.2597	20.59085
410.4256	24.67589
410.5915	29.24978
410.7574	30.05697
410.9232	31.69314
411.0891	33.31316
411.255	32.9705
411.4209	33.00709
411.5867	30.42855
411.7526	27.78302
411.9184	28.47973
412.0843	30.19775
412.2501	36.14386
412.4159	28.60681
412.5818	30.5037
412.7476	33.11886
412.9134	26.8517
413.0792	25.48962
413.245	33.74528
413.4108	32.88681
413.5766	34.93305
413.7424	32.19958
413.9082	33.37418
414.074	31.64076
414.2397	33.96833
414.4055	28.01701
414.5713	29.56109
414.737	33.45617
414.9028	30.12968
415.0685	32.34885
415.2343	33.40715
415.4	32.75296
415.5658	33.05236
415.7315	32.70054
415.8972	34.11415
416.0629	35.32174
416.2286	35.55744
416.3943	33.33381
416.56	27.89745
416.7257	29.75207
416.8914	31.70691
417.0571	33.94308
417.2228	34.0465
417.3884	32.5354
417.5541	30.91837
417.7198	34.95352
417.8854	32.35984
418.0511	36.23545
418.2167	35.17666
418.3824	33.1548
418.548	34.51768
418.7136	29.68163
418.8792	33.73879
419.0449	35.8238
419.2105	35.734
419.3761	33.90591
419.5417	37.55766
419.7073	32.5123
419.8729	31.49058
420.0385	36.06423
420.204	33.11349
420.3696	36.00785
420.5352	39.31493
420.7007	42.2113
420.8663	40.72462
421.0319	41.62968
421.1974	34.57714
421.3629	37.83694
421.5285	33.83828
421.694	37.6127
421.8595	43.03594
422.0251	38.54585
422.1906	40.19413
422.3561	38.7208
422.5216	35.44358
422.6871	33.95786
422.8526	36.2998
423.0181	42.9261
423.1835	41.97929
423.349	38.74286
423.5145	34.63468
423.68	38.95667
423.8454	42.36564
424.0109	40.42862
424.1763	38.68507
424.3418	39.03654
424.5072	34.56407
424.6726	36.48529
424.838	43.3542
425.0035	43.82214
425.1689	44.41938
425.3343	44.42736
425.4997	43.56785
425.6651	40.2085
425.8305	39.72455
425.9959	32.67221
426.1613	40.14474
426.3267	38.02404
426.492	41.37462
426.6574	45.65821
426.8228	47.44934
426.9881	39.20179
427.1534	35.09142
427.3188	38.2438
427.4841	36.80576
427.6495	36.25251
427.8148	39.73127
427.9801	42.83635
428.1454	42.56433
428.3107	46.67712
428.476	44.61237
428.6414	41.59763
428.8066	36.76834
428.9719	39.68485
429.1372	40.91513
429.3025	38.91209
429.4678	37.62857
429.633	43.46365
429.7983	42.37707
429.9636	35.22075
430.1288	29.13895
430.294	37.05547
430.4593	34.87091
430.6245	33.39667
430.7897	30.90049
430.955	30.25123
431.1202	34.07613
431.2854	38.38567
431.4506	44.0186
431.6158	50.00183
431.781	53.83085
431.9462	55.58806
432.1114	54.13588
432.2766	37.99245
432.4417	40.40348
432.6069	43.55153
432.772	46.1683
432.9372	44.49319
433.1024	46.25352
433.2675	47.45222
433.4326	49.33631
433.5977	47.14329
433.7629	45.21532
433.928	41.80714
434.0931	39.25019
434.2582	39.34178
434.4233	45.01961
434.5884	50.93442
434.7535	48.65896
434.9186	49.015
435.0837	51.04278
435.2488	48.15923
435.4138	46.637
435.5789	50.0989
435.744	52.31129
435.909	54.99172
436.0741	54.33429
436.2391	58.41237
436.4042	58.58812
436.5692	58.09251
436.7342	57.53348
436.8992	54.6419
437.0643	53.02271
437.2293	49.7427
437.3943	50.84402
437.5593	51.32724
437.7243	51.13763
437.8893	51.78934
438.0542	51.60999
438.2192	50.59417
438.3842	50.84755
438.5491	45.42374
438.7141	53.57432
438.8791	54.87503
439.044	59.79778
439.209	57.90745
439.3739	50.42176
439.5388	59.99442
439.7037	64.08305
439.8687	53.49121
440.0336	53.58749
440.1985	55.41361
440.3634	55.54763
440.5283	47.71213
440.6932	53.0737
440.8581	56.18163
441.0229	57.62242
441.1878	56.78183
441.3527	63.92769
441.5175	54.6929
441.6824	61.94624
441.8472	64.20411
442.0121	61.59076
442.1769	62.46179
442.3418	62.93439
442.5066	62.25389
442.6714	63.32641
442.8362	61.31153
443.001	59.03342
443.1659	55.20227
443.3307	61.4922
443.4955	58.39914
443.6602	59.38472
443.825	65.17977
443.9898	71.04846
444.1546	67.58549
444.3193	61.02595
444.4841	53.7635
444.6488	63.89312
444.8136	70.04594
444.9783	69.15085
445.1431	66.29399
445.3078	64.80184
445.4725	60.71678
445.6372	59.51649
445.802	62.0802
445.9667	58.92031
446.1314	59.45894
446.2961	62.0896
446.4608	59.1766
446.6255	62.27058
446.7901	68.88261
446.9548	65.01048
447.1195	67.82565
447.2841	67.43719
447.4488	64.00928
447.6134	66.34983
447.7781	74.27612
447.9427	68.50116
448.1074	67.90685
448.272	67.42896
448.4366	65.01762
448.6012	68.70808
448.7658	72.71568
448.9305	68.21916
449.095	69.36604
449.2596	66.72015
449.4242	67.1273
449.5888	71.62951
449.7534	69.97629
449.9179	71.23128
450.0825	75.57743
450.2471	77.56113
450.4116	77.26569
450.5762	77.83472
450.7407	77.76038
450.9052	78.14549
451.0698	75.07449
451.2343	74.97131
451.3988	75.9658
451.5633	73.36172
451.7278	75.82349
451.8923	75.17205
452.0568	73.83685
452.2213	79.69297
452.3858	71.55282
452.5503	71.02361
452.7148	67.59132
452.8792	64.87645
453.0437	66.76467
453.2081	68.76418
453.3726	69.36491
453.537	63.12454
453.7015	68.14587
453.8659	73.89024
454.0303	79.29895
454.1947	78.26057
454.3592	78.00093
454.5236	79.23174
454.688	75.02873
454.8524	71.12232
455.0168	73.74947
455.1811	72.65037
455.3455	73.12978
455.5099	73.25005
455.6743	71.80272
455.8386	77.20459
456.003	76.85359
456.1673	77.03296
456.3317	77.80666
456.496	77.75204
456.6603	76.13962
456.8246	74.59843
456.989	83.58085
457.1533	87.67841
457.3176	76.55409
457.4819	79.32005
457.6462	84.66478
457.8105	81.40753
457.9748	81.27711
458.1391	77.46694
458.3033	78.25111
458.4676	87.18736
458.6319	80.43044
458.7961	79.03789
458.9604	80.03835
459.1246	81.56733
459.2888	80.23343
459.4531	78.50011
459.6173	75.24931
459.7815	75.66508
459.9457	80.3769
460.11	79.07721
460.2741	82.29121
460.4384	80.73651
460.6025	74.77222
460.7667	84.08374
460.9309	79.70135
461.0951	78.60174
461.2592	80.1875
461.4234	90.05067
461.5876	84.66639
461.7517	81.21266
461.9159	81.8938
462.08	81.14185
462.2441	83.4467
462.4082	80.50359
462.5724	81.35072
462.7365	83.58375
462.9006	85.99388
463.0647	80.54405
463.2288	85.43881
463.3929	85.6141
463.557	82.81063
463.721	80.45992
463.8851	82.38326
464.0492	83.62972
464.2132	84.33853
464.3773	80.48868
464.5414	77.70187
464.7054	82.93772
464.8694	80.57767
465.0334	78.10165
465.1975	83.72072
465.3615	84.34109
465.5255	80.32731
465.6895	84.478
465.8535	83.19326
466.0175	81.77836
466.1815	83.28601
466.3455	87.31248
466.5095	84.13432
466.6734	76.9636
466.8374	81.74887
467.0014	83.6534
467.1653	85.494
467.3293	80.97169
467.4932	79.6936
467.6571	82.40364
467.8211	84.27422
467.985	82.77397
468.1489	88.78822
468.3128	86.34057
468.4767	89.36799
468.6406	86.65778
468.8045	81.77041
468.9684	82.66274
469.1323	82.43904
469.2962	89.20776
469.46	87.04622
469.6239	82.07228
469.7878	87.69059
469.9516	80.15919
470.1154	76.78045
470.2793	79.59354
470.4431	83.48766
470.607	85.95026
470.7708	85.36736
470.9346	83.88313
471.0984	85.95853
471.2622	83.8987
471.426	84.71664
471.5898	89.51717
471.7536	86.35741
471.9174	89.47456
472.0811	85.71765
472.2449	89.65457
472.4087	95.45383
472.5724	95.73215
472.7362	90.00313
472.8999	84.28632
473.0637	83.30733
473.2274	85.17681
473.3911	86.30676
473.5548	85.25423
473.7185	82.60379
473.8822	84.025
474.0459	89.69695
474.2096	91.76904
474.3733	89.49216
474.537	86.62299
474.7007	88.65987
474.8643	93.28288
475.028	92.62818
475.1917	89.97028
475.3553	93.08559
475.519	91.76359
475.6826	90.75807
475.8463	91.59842
476.0099	89.37966
476.1735	87.21004
476.3371	88.34943
476.5007	84.96381
476.6643	91.73436
476.8279	83.79081
476.9915	83.01833
477.1551	89.0346
477.3187	94.78967
477.4823	97.58527
477.6458	94.14959
477.8094	91.11091
477.9729	91.24961
478.1365	88.50428
478.3	85.24304
478.4636	86.70914
478.6271	85.36243
478.7906	91.64861
478.9541	92.90221
479.1176	91.7869
479.2812	93.29102
479.4447	94.72279
479.6082	98.36162
479.7716	96.19279
479.9351	91.92548
480.0986	89.11436
480.2621	89.47268
480.4255	91.36663
480.589	93.24635
480.7524	92.32238
480.9159	95.47087
481.0793	93.77151
481.2428	89.00846
481.4062	93.98667
481.5696	92.17991
481.733	90.42773
481.8964	96.70488
482.0598	94.88611
482.2232	89.37698
482.3866	91.11424
482.55	92.58286
482.7134	95.0883
482.8768	91.35436
483.0401	93.46264
483.2035	91.04369
483.3668	92.48497
483.5302	91.22878
483.6935	92.72389
483.8568	88.21149
484.0202	90.86536
484.1835	92.0453
484.3468	90.66036
484.5101	90.71799
484.6734	94.94065
484.8367	92.18452
485	90.28082
485.1633	90.25389
485.3266	89.26955
485.4899	89.97031
485.6531	84.82294
485.8164	80.53864
485.9796	74.62903
486.1429	71.40047
486.3061	73.43233
486.4694	81.39846
486.6326	83.44019
486.7958	88.99239
486.959	89.04784
487.1223	87.21812
487.2855	84.67144
487.4486	83.3548
487.6118	85.80131
487.775	89.78359
487.9382	91.82001
488.1014	98.62267
488.2646	96.22426
488.4277	90.65319
488.5909	88.31216
488.754	90.8175
488.9171	91.46465
489.0803	94.40456
489.2434	91.33588
489.4066	93.73779
489.5697	101.8066
489.7328	101.1797
489.8959	101.1135
490.059	94.44666
490.2221	96.75919
490.3852	96.05146
490.5482	93.71655
490.7113	92.10354
490.8744	90.68184
491.0374	95.04371
491.2005	93.62127
491.3636	93.60592
491.5266	98.99841
491.6896	92.65659
491.8527	84.65538
492.0157	87.70408
492.1787	89.89602
492.3417	90.28874
492.5047	93.39148
492.6677	99.1733
492.8307	97.97279
492.9937	96.73061
493.1567	98.66199
493.3196	96.11788
493.4826	101.9518
493.6456	104.623
493.8085	93.92765
493.9715	94.20853
494.1344	98.04063
494.2974	99.81874
494.4603	100.8707
494.6232	101.4256
494.7861	100.5844
494.949	92.73678
495.1119	101.6212
495.2748	101.7609
495.4377	102.6336
495.6006	96.51757
495.7635	94.04884
495.9264	94.06823
496.0892	94.93507
496.2521	99.55446
496.4149	99.91684
496.5778	98.15915
496.7407	99.86368
496.9035	98.86861
497.0663	101.6746
497.2291	106.7497
497.3919	98.88702
497.5547	101.4933
497.7176	103.2019
497.8804	106.5882
498.0432	99.0173
498.2059	94.74763
498.3687	89.95383
498.5315	92.65755
498.6942	98.58115
498.857	99.38144
499.0198	102.613
499.1825	103.9821
499.3452	108.5952
499.508	107.2747
499.6707	106.6706
499.8334	103.5105
499.9962	105.212
500.1589	104.1758
500.3216	101.2415
500.4843	104.333
500.6469	96.02273
500.8096	98.21655
500.9723	103.9656
501.135	99.8924
501.2976	100.6717
501.4603	103.1216
501.623	102.7669
501.7856	104.2048
501.9482	100.7932
502.1109	106.4568
502.2735	106.4662
502.4361	107.3053
502.5987	112.7734
502.7614	111.1174
502.924	111.2372
503.0865	111.3533
503.2491	109.5569
503.4117	107.4289
503.5743	107.8332
503.7368	110.2133
503.8994	103.1066
504.062	107.9394
504.2245	104.1159
504.3871	111.2168
504.5496	111.6595
504.7121	117.7812
504.8746	115.3439
505.0372	110.8351
505.1997	114.0155
505.3622	110.2636
505.5247	117.3674
505.6872	114.3605
505.8497	119.5784
506.0121	129.8351
506.1746	124.3589
506.3371	120.3276
506.4995	117.4167
506.662	116.4859
506.8244	116.4382
506.9869	117.6122
507.1493	125.5708
507.3117	122.2999
507.4742	117.8304
507.6366	118.821
507.799	120.9201
507.9614	118.0381
508.1238	121.4853
508.2862	123.6749
508.4485	119.8776
508.6109	126.7572
508.7733	128.2617
508.9357	125.2811
509.098	124.0973
509.2604	131.8238
509.4227	128.0302
509.5851	124.4441
509.7474	126.0855
509.9097	122.5566
510.072	124.8297
510.2343	130.0213
510.3966	134.788
510.5589	131.2737
510.7212	126.6101
510.8835	131.1776
511.0458	125.51
511.2081	127.5472
511.3703	133.996
511.5326	130.0984
511.6949	136.4276
511.8571	141.5554
512.0193	137.7218
512.1816	130.5532
512.3438	133.8928
512.506	138.6189
512.6682	135.6037
512.8304	132.4585
512.9926	134.1333
513.1548	139.5267
513.317	137.086
513.4792	138.0589
513.6414	141.1918
513.8035	129.1364
513.9657	137.0457
514.1279	128.7771
514.29	133.1481
514.4521	132.2934
514.6143	136.5279
514.7764	135.6184
514.9385	139.8526
515.1006	133.6789
515.2628	136.5312
515.4249	138.2404
515.587	140.4464
515.7491	145.1374
515.9111	144.6188
516.0732	141.1048
516.2353	142.6403
516.3973	139.927
516.5594	130.1953
516.7214	124.4057
516.8835	118.2921
517.0455	124.9566
517.2076	122.6063
517.3696	130.4229
517.5316	137.1391
517.6937	148.96
517.8557	156.2998
518.0176	153.3191
518.1796	145.0829
518.3416	125.1271
518.5036	127.7894
518.6656	138.1873
518.8275	149.9545
518.9895	156.7358
519.1514	154.3039
519.3134	148.8114
519.4753	151.8562
519.6373	154.7437
519.7992	162.1413
519.9611	174.2671
520.123	166.2247
520.2849	164.2781
520.4468	161.9072
520.6087	155.998
520.7706	163.5934
520.9325	165.7153
521.0944	170.0315
521.2562	180.3931
521.4181	176.1262
521.58	171.2331
521.7418	170.433
521.9036	172.6248
522.0655	175.9895
522.2273	182.3176
522.3891	181.973
522.551	171.7012
522.7128	167.9719
522.8746	168.782
523.0363	181.3181
523.1981	182.3238
523.3599	171.4821
523.5217	184.0088
523.6835	186.7117
523.8452	181.9495
524.007	189.5764
524.1687	190.4768
524.3304	193.1293
524.4922	193.9969
524.6539	197.8343
524.8157	189.7661
524.9774	190.2847
525.1391	192.2386
525.3008	193.8328
525.4625	197.441
525.6241	205.4919
525.7858	208.4875
525.9475	204.2151
526.1092	206.3362
526.2709	190.1002
526.4325	182.2013
526.5942	179.6086
526.7558	180.7719
526.9174	181.162
527.079	179.5311
527.2407	187.4098
527.4023	199.0905
527.5639	195.8955
527.7255	205.7763
527.8871	205.1533
528.0487	204.039
528.2103	201.2052
528.3718	205.2139
528.5334	208.5668
528.695	214.883
528.8565	225.6143
529.0181	224.8197
529.1796	217.2731
529.3412	223.5315
529.5027	222.7298
529.6642	221.2801
529.8257	212.537
529.9872	210.0084
530.1487	213.5577
530.3102	225.9501
530.4717	229.599
530.6332	231.0055
530.7947	231.7165
530.9562	234.7304
531.1176	232.7894
531.2791	236.1018
531.4405	233.1429
531.6019	227.2065
531.7634	228.0036
531.9248	228.223
532.0862	225.6206
532.2477	220.2055
532.4091	213.4769
532.5704	209.98
532.7319	208.6484
532.8932	206.3953
533.0546	205.8531
533.216	224.2209
533.3774	233.8535
533.5388	229.175
533.7001	229.0441
533.8615	226.1276
534.0228	224.4469
534.1841	223.0943
534.3455	223.4936
534.5068	225.1294
534.6681	219.943
534.8293	226.2798
534.9907	223.5654
535.152	229.0787
535.3132	233.3168
535.4745	232.0989
535.6358	237.4947
535.7971	239.9091
535.9583	243.2912
536.1196	239.6233
536.2808	232.9815
536.4421	229.2357
536.6033	221.5083
536.7645	216.1849
536.9258	217.625
537.087	215.9482
537.2482	218.1745
537.4094	218.1511
537.5706	228.8968
537.7318	225.3637
537.8929	234.0943
538.0541	236.3289
538.2153	232.3639
538.3764	232.7421
538.5376	232.2608
538.6987	238.0195
538.8599	241.8953
539.021	232.25
539.1821	232.2507
539.3432	227.3919
539.5043	230.8955
539.6655	227.4395
539.8265	221.4413
539.9876	223.1453
540.1487	226.6893
540.3098	223.6608
540.4708	216.3197
540.6319	217.7871
540.793	221.5402
540.954	223.0513
541.1151	223.3198
541.2761	233.4461
541.4371	231.1745
541.5981	233.7403
541.7592	232.5351
541.9202	228.5603
542.0812	231.2383
542.2422	233.6182
542.4031	234.1821
542.5641	230.61
542.7251	235.5447
542.886	234.3703
543.0471	231.28
543.208	227.6703
543.369	231.8811
543.5298	224.5761
543.6908	235.3865
543.8517	238.873
544.0126	242.2711
544.1736	242.364
544.3345	236.214
544.4954	236.0047
544.6563	231.6563
544.8171	220.1168
544.978	232.4039
545.1389	236.3232
545.2997	237.918
545.4606	233.2063
545.6215	225.5679
545.7823	233.4017
545.9432	240.2214
546.104	234.395
546.2648	237.1723
546.4256	231.5661
546.5864	234.1354
546.7473	237.1464
546.908	243.9815
547.0688	245.1774
547.2296	249.7568
547.3904	242.0456
547.5511	232.6407
547.7119	221.652
547.8727	231.0148
548.0334	233.7632
548.1942	237.0231
548.3549	243.3117
548.5156	241.41
548.6763	240.0066
548.837	241.4116
548.9977	235.2562
549.1584	236.4745
549.3192	232.291
549.4798	240.9774
549.6405	240.9206
549.8011	241.4585
549.9619	246.1389
550.1225	242.1
550.2831	234.7945
550.4438	234.5501
550.6044	232.066
550.765	237.4912
550.9257	241.1878
551.0863	236.5021
551.2469	237.1755
551.4075	240.2817
551.5681	242.6899
551.7287	240.9648
551.8893	245.1514
552.0498	249.5972
552.2104	238.6662
552.371	236.1997
552.5315	242.2735
552.6921	235.5192
552.8526	233.6791
553.0131	238.1516
553.1736	243.6236
553.3342	234.5987
553.4947	236.5275
553.6552	240.3029
553.8157	242.6363
553.9762	240.6243
554.1367	239.611
554.2971	241.159
554.4576	238.4235
554.618	245.986
554.7785	248.7428
554.939	245.5332
555.0994	242.7782
555.2598	233.9943
555.4203	233.6682
555.5807	236.4056
555.7411	234.88
555.9015	231.1639
556.0619	234.495
556.2223	230.5674
556.3827	230.7497
556.5431	223.6269
556.7034	229.4158
556.8638	229.4521
557.0242	228.0871
557.1845	227.8365
557.3448	225.9316
557.5052	222.5237
557.6655	227.2239
557.8259	231.919
557.9861	231.8411
558.1465	230.4217
558.3068	225.6282
558.467	220.2619
558.6274	218.546
558.7877	211.1171
558.9479	209.4028
559.1082	214.0126
559.2684	214.4528
559.4287	224.4951
559.5889	218.191
559.7491	223.726
559.9094	219.4626
560.0696	215.7677
560.2299	216.3088
560.3901	214.8663
560.5502	215.8717
560.7104	225.6935
560.8707	230.5787
561.0308	227.2736
561.191	225.6273
561.3511	217.8813
561.5114	212.4662
561.6714	202.845
561.8316	199.8949
561.9918	208.8752
562.1519	212.6692
562.312	216.0316
562.4722	217.0196
562.6323	215.7203
562.7924	218.3016
562.9525	221.1318
563.1125	217.0981
563.2726	219.496
563.4327	214.5526
563.5928	220.5886
563.7528	216.4402
563.9129	211.4883
564.0729	203.5562
564.233	209.8072
564.393	208.3574
564.553	212.6036
564.7131	205.0413
564.873	206.8382
565.0331	211.2293
565.1931	208.0477
565.353	214.3027
565.5131	205.0356
565.673	206.0883
565.833	202.8608
565.9929	200.7142
566.1529	195.2674
566.3129	199.9861
566.4728	206.0992
566.6328	206.5993
566.7927	203.7411
566.9526	199.6077
567.1125	203.5247
567.2724	202.3674
567.4323	202.618
567.5922	200.7607
567.7521	203.1602
567.9119	201.9757
568.0718	205.5419
568.2317	200.9484
568.3915	198.345
568.5514	194.6033
568.7112	198.1689
568.871	198.5359
569.0309	195.9552
569.1907	198.8025
569.3505	196.5025
569.5103	190.6121
569.6701	185.484
569.8299	192.4373
569.9897	190.3896
570.1495	190.9863
570.3092	187.1183
570.469	185.3809
570.6287	187.5165
570.7885	183.3683
570.9482	177.743
571.108	175.3169
571.2677	176.5491
571.4274	180.5153
571.5871	188.7448
571.7468	189.4098
571.9066	186.8203
572.0662	191.5724
572.2259	189.272
572.3856	192.5272
572.5452	190.1629
572.7049	186.3253
572.8646	181.084
573.0242	185.3256
573.1838	186.148
573.3435	182.3165
573.5031	188.8928
573.6627	192.2728
573.8223	184.5784
573.9819	185.7523
574.1415	186.866
574.3011	179.695
574.4607	184.8185
574.6203	180.5983
574.7798	182.3787
574.9394	177.3624
575.099	181.2215
575.2585	169.3603
575.418	174.4842
575.5776	180.5524
575.7371	181.5491
575.8966	171.1615
576.0562	175.1504
576.2156	175.2867
576.3751	171.4261
576.5346	167.029
576.6941	169.9278
576.8536	176.023
577.0131	180.4332
577.1725	181.783
577.332	174.0597
577.4914	174.533
577.6508	173.0581
577.8103	170.8011
577.9697	172.9335
578.1291	166.8157
578.2885	165.8854
578.4479	160.9914
578.6073	164.4574
578.7667	167.2591
578.9261	163.4341
579.0854	165.1898
579.2448	167.6824
579.4042	169.8649
579.5635	172.1529
579.7229	166.2104
579.8822	162.9885
580.0416	163.8197
580.2009	161.1946
580.3602	165.4492
580.5195	157.3191
580.6788	162.6773
580.8381	166.0462
580.9974	160.8428
581.1566	160.8228
581.3159	162.3765
581.4752	154.4123
581.6345	159.5265
581.7937	161.4222
581.9529	161.9293
582.1122	160.7374
582.2714	153.2496
582.4306	154.9221
582.5898	154.1151
582.749	158.9344
582.9082	163.6562
583.0674	170.0341
583.2266	156.0708
583.3857	155.8026
583.5449	156.5648
583.7041	151.6214
583.8633	152.9961
584.0224	153.2593
584.1815	152.0767
584.3407	152.6703
584.4998	155.4685
584.6589	157.1551
584.818	156.4045
584.9771	155.8484
585.1362	159.2007
585.2953	153.4189
585.4544	144.9404
585.6135	143.1802
585.7725	149.541
585.9316	151.7699
586.0906	146.1103
586.2497	150.287
586.4087	150.5812
586.5677	140.5613
586.7267	145.537
586.8858	147.3917
587.0448	148.6479
587.2038	148.3109
587.3628	146.9614
587.5218	141.5411
587.6807	149.2619
587.8397	147.5872
587.9987	142.605
588.1577	144.2504
588.3166	140.9784
588.4755	135.8229
588.6345	139.1559
588.7934	135.6309
588.9523	133.2753
589.1112	130.8352
589.2701	131.4501
589.429	132.1348
589.5879	128.812
589.7468	129.2985
589.9056	129.0505
590.0645	132.4117
590.2234	133.4683
590.3822	138.7734
590.5411	132.8251
590.6999	140.4535
590.8588	137.1673
591.0176	137.7576
591.1764	132.9135
591.3352	135.1164
591.494	142.1206
591.6528	138.9094
591.8116	130.1413
591.9703	133.9023
592.1291	137.5499
592.2878	141.4506
592.4467	135.1553
592.6053	139.6336
592.7641	140.8805
592.9229	139.452
593.0816	138.4261
593.2403	133.601
593.399	135.948
593.5577	132.1891
593.7164	131.5681
593.8751	133.6615
594.0338	130.4257
594.1924	130.8343
594.3511	129.8542
594.5098	134.8103
594.6684	131.1347
594.8271	129.2112
594.9857	131.7246
595.1443	137.78
595.303	137.5312
595.4615	133.7305
595.6202	125.6901
595.7787	133.8467
595.9374	133.6791
596.0959	135.4889
596.2545	136.964
596.4131	132.5014
596.5717	136.4426
596.7302	135.6273
596.8887	142.1105
597.0473	141.3171
597.2058	140.8843
597.3644	138.8597
597.5229	141.1929
597.6814	134.8721
597.8399	137.6843
597.9984	136.3089
598.1569	138.5431
598.3154	137.3248
598.4738	131.0791
598.6323	139.7084
598.7908	132.7811
598.9492	137.1526
599.1076	130.2584
599.2661	137.8527
599.4245	131.1938
599.5829	130.8452
599.7413	138.1069
599.8997	131.9914
600.0581	131.0214
600.2165	132.1727
600.3749	134.0623
600.5333	128.0807
600.6917	131.4068
600.85	134.4324
601.0084	135.2156
601.1667	134.8651
601.325	132.0717
601.4833	133.252
601.6417	129.9972
601.8	128.2325
601.9583	129.5693
602.1166	129.2589
602.2749	129.2145
602.4332	134.6383
602.5914	133.4872
602.7498	131.1561
602.908	133.0674
603.0662	126.9189
603.2245	126.4177
603.3828	131.2848
603.541	130.9495
603.6992	129.8051
603.8574	134.0882
604.0156	132.0715
604.1738	131.1661
604.332	132.5183
604.4902	134.7286
604.6484	127.3398
604.8065	130.3068
604.9647	128.9943
605.1229	128.2953
605.281	130.946
605.4391	130.0735
605.5973	126.837
605.7554	130.0154
605.9135	130.2334
606.0717	120.8414
606.2297	122.8445
606.3878	125.3377
606.5459	133.9725
606.704	130.6678
606.8621	130.1342
607.0201	134.4518
607.1782	129.6947
607.3362	124.6422
607.4943	129.4852
607.6523	126.8146
607.8104	129.6243
607.9684	122.7812
608.1264	121.8039
608.2844	129.4671
608.4424	124.9257
608.6003	119.0021
608.7584	119.1604
608.9163	120.0356
609.0743	124.4816
609.2322	120.0383
609.3902	123.1722
609.5482	124.3571
609.7061	123.4051
609.864	124.7089
610.0219	120.449
610.1798	123.2317
610.3377	121.3237
610.4956	116.8826
610.6535	120.4061
610.8114	118.9638
610.9693	124.0049
611.1271	120.682
611.285	113.9882
611.4429	119.2684
611.6007	119.3806
611.7585	120.4252
611.9164	122.1923
612.0742	120.4968
612.232	115.9316
612.3898	115.2348
612.5476	121.0805
612.7054	117.3432
612.8632	115.5677
613.0209	116.0097
613.1787	123.454
613.3365	116.9938
613.4942	117.774
613.652	112.252
613.8097	110.0515
613.9674	112.313
614.1252	115.9654
614.2829	115.6637
614.4406	111.0362
614.5983	111.9767
614.756	111.3909
614.9136	112.0224
615.0714	113.0978
615.229	107.7784
615.3867	111.9039
615.5443	108.7548
615.702	109.9007
615.8596	112.9262
616.0172	111.7682
616.1748	111.5198
616.3325	112.1385
616.4901	112.9209
616.6476	109.4689
616.8052	113.5495
616.9628	102.7006
617.1204	106.2395
617.278	105.469
617.4355	107.3738
617.5931	106.4288
617.7506	107.0305
617.9081	107.669
618.0657	110.7061
618.2232	114.5419
618.3807	113.6881
618.5382	107.2411
618.6957	106.7628
618.8532	102.3203
619.0107	100.7388
619.1682	106.7525
619.3256	111.603
619.4831	110.0362
619.6406	108.8778
619.798	112.8163
619.9554	114.2187
620.1129	113.7469
620.2703	108.6167
620.4277	105.4205
620.5851	111.1637
620.7425	107.5937
620.8998	105.4227
621.0573	103.7686
621.2146	105.7579
621.372	106.3923
621.5294	108.1177
621.6867	99.68207
621.8441	104.8298
622.0013	107.0678
622.1587	105.5705
622.316	107.6342
622.4733	110.3479
622.6306	102.3482
622.7879	108.5974
622.9452	105.8105
623.1025	101.6397
623.2598	103.2512
623.4171	103.7312
623.5743	105.2138
623.7316	108.0534
623.8888	105.227
624.046	104.051
624.2032	104.2121
624.3605	104.4165
624.5176	106.2372
624.6749	103.5623
624.8321	95.76707
624.9893	103.337
625.1464	102.8828
625.3036	108.6456
625.4608	104.8245
625.6179	98.69682
625.7751	95.57938
625.9322	96.93295
626.0894	108.9902
626.2465	106.6992
626.4036	106.3066
626.5607	102.6267
626.7178	104.6304
626.8749	103.4756
627.032	104.3952
627.189	101.9529
627.3461	100.7251
627.5032	101.8855
627.6602	106.8527
627.8173	99.16949
627.9743	98.92018
628.1313	100.5052
628.2884	95.6215
628.4454	99.95893
628.6024	102.6547
628.7594	98.57629
628.9164	100.8433
629.0734	99.62781
629.2303	101.5731
629.3873	96.50735
629.5443	100.0393
629.7012	92.53246
629.8582	98.99763
630.0151	95.00422
630.172	91.48697
630.3289	94.01895
630.4858	92.87518
630.6428	95.66216
630.7996	101.6885
630.9565	100.4592
631.1134	99.41197
631.2703	98.32698
631.4272	91.57875
631.584	95.92953
631.7408	98.6745
631.8977	101.9329
632.0546	100.5747
632.2114	98.01097
632.3682	99.62575
632.525	99.20753
632.6818	105.6001
632.8386	97.42793
632.9954	96.3558
633.1522	93.28295
633.3089	99.54547
633.4657	100.7805
633.6224	93.38473
633.7792	88.35823
633.9359	94.86082
634.0927	92.90166
634.2494	93.50975
634.4061	93.27873
634.5628	95.95058
634.7195	91.90633
634.8762	92.32065
635.0329	96.65795
635.1895	97.24226
635.3462	95.80368
635.5029	95.86257
635.6595	98.25469
635.8162	96.58054
635.9728	94.7309
636.1295	91.54585
636.2861	93.3794
636.4427	97.11569
636.5992	93.64822
636.7559	99.44848
636.9124	98.18089
637.069	95.65771
637.2256	94.49055
637.3821	96.39207
637.5387	98.83524
637.6953	94.92892
637.8518	92.07253
638.0084	92.84376
638.1649	89.18911
638.3214	89.55456
638.4779	96.54796
638.6344	96.23036
638.7909	92.89155
638.9474	94.09235
639.1038	94.94577
639.2603	97.34749
639.4167	88.40459
639.5732	85.47604
639.7297	95.79724
639.8861	94.94581
640.0425	87.66141
640.199	89.02718
640.3553	89.71348
640.5118	96.90254
640.6682	96.89979
640.8245	89.81441
640.981	87.89375
641.1373	91.08237
641.2936	90.86974
641.45	91.50679
641.6064	90.05444
641.7627	87.0398
641.9191	84.66837
642.0754	88.134
642.2317	84.22161
642.388	87.1838
642.5443	91.34405
642.7006	89.5218
642.8569	87.36653
643.0131	88.04176
643.1694	86.47382
643.3257	88.46595
643.4819	88.76114
643.6382	86.55523
643.7944	77.14652
643.9506	77.14146
644.1069	87.89529
644.2631	84.90929
644.4193	83.11298
644.5754	84.87489
644.7316	92.64561
644.8878	92.19898
645.044	82.9608
645.2002	83.06853
645.3563	84.44068
645.5125	79.58299
645.6686	80.6969
645.8248	81.10604
645.9809	80.20486
646.137	81.1126
646.2931	79.5262
646.4492	79.34754
646.6053	80.11693
646.7614	81.85764
646.9174	79.98435
647.0735	79.85635
647.2296	77.69584
647.3856	75.61432
647.5417	72.70734
647.6977	79.30935
647.8537	81.46555
648.0098	82.43407
648.1658	81.50039
648.3218	73.17374
648.4777	78.11889
648.6337	74.01897
648.7897	78.18293
648.9457	81.23789
649.1016	79.29902
649.2576	73.89126
649.4135	77.37961
649.5695	76.82111
649.7254	74.05411
649.8813	69.02685
650.0372	76.31149
650.1932	74.17258
650.3491	73.97151
650.5049	74.37473
650.6608	74.86459
650.8167	79.96633
650.9725	76.94871
651.1284	72.80714
651.2842	76.25188
651.4401	69.66415
651.5959	73.35441
651.7518	76.35102
651.9076	78.58302
652.0634	75.35152
652.2192	74.93141
652.3749	73.97996
652.5308	73.33672
652.6865	72.5891
652.8423	77.13778
652.998	75.29969
653.1538	72.60793
653.3096	70.01197
653.4653	75.21905
653.621	76.33558
653.7767	79.60187
653.9324	74.49878
654.0881	78.94053
654.2438	73.21545
654.3995	75.18362
654.5552	76.90356
654.7109	76.89747
654.8665	68.40137
655.0222	69.2755
655.1778	69.19697
655.3334	72.1881
655.4891	77.67477
655.6447	71.58023
655.8003	70.04467
655.9559	68.13279
656.1115	67.64096
656.2671	66.31945
656.4227	58.63633
656.5782	71.42876
656.7338	68.03558
656.8893	66.88273
657.0449	71.92556
657.2004	73.18598
657.356	65.63974
657.5115	65.58953
657.667	76.42326
657.8225	71.97497
657.978	67.58029
658.1335	68.98409
658.289	76.38289
658.4445	71.90675
658.5999	74.589
658.7554	68.71275
658.9108	71.31417
659.0663	71.3987
659.2217	67.03071
659.3771	66.31322
659.5325	68.9311
659.6879	67.80041
659.8433	68.58692
659.9987	69.98024
660.1541	74.925
660.3095	72.27259
660.4648	69.49883
660.6202	68.20134
660.7756	65.65656
660.9309	65.1538
661.0862	66.18866
661.2416	64.72086
661.3969	69.55521
661.5522	72.82064
661.7075	69.32874
661.8628	73.25689
662.0181	72.40714
662.1733	71.05356
662.3286	65.53263
662.4839	65.89722
662.6391	61.08245
662.7944	66.34104
662.9496	68.01541
663.1048	67.61901
663.26	68.05441
663.4152	63.11449
663.5704	63.24688
663.7256	69.51395
663.8808	72.73467
664.036	62.4196
664.1912	62.85201
664.3463	64.49796
664.5015	62.37447
664.6566	62.80173
664.8118	68.96077
664.9669	64.98518
665.122	65.50981
665.2771	63.144
665.4322	67.55882
665.5873	66.03564
665.7424	68.26005
665.8975	65.57169
666.0526	63.60979
666.2076	62.54019
666.3627	68.00633
666.5177	64.46861
666.6727	64.11179
666.8278	60.23109
666.9828	58.32089
667.1378	61.26775
667.2928	60.3848
667.4478	59.79409
667.6028	65.93108
667.7578	61.93964
667.9127	61.3707
668.0677	68.63012
668.2226	64.50487
668.3776	61.98626
668.5325	61.76438
668.6874	63.64733
668.8423	62.47332
668.9973	57.09483
669.1522	64.05324
669.3071	68.38984
669.4619	66.63111
669.6168	67.56477
669.7717	62.4091
669.9265	63.49232
670.0814	60.60848
670.2362	55.59575
670.3911	58.50684
670.5459	61.909
670.7007	61.91481
670.8555	60.68981
671.0103	57.7428
671.1651	58.13795
671.3199	59.4107
671.4747	59.84476
671.6295	61.79753
671.7842	57.28271
671.939	60.11171
672.0937	60.75388
672.2484	57.59901
672.4031	58.27209
672.5579	60.17204
672.7126	61.4562
672.8673	63.30479
673.022	63.17963
673.1767	62.13265
673.3314	60.73227
673.486	69.67215
673.6407	63.3466
673.7953	59.39405
673.95	62.11475
674.1046	61.1884
674.2592	56.0136
674.4138	53.93089
674.5684	61.08267
674.723	57.89393
674.8776	58.19146
675.0322	60.32215
675.1868	58.24791
675.3414	64.67975
675.4959	61.0878
675.6505	60.52788
675.805	60.725
675.9595	58.16654
676.1141	61.86299
676.2686	61.29062
676.4231	58.4718
676.5776	60.10836
676.7321	60.73658
676.8866	58.30459
677.041	62.58931
677.1955	59.46396
677.35	57.27457
677.5044	56.34215
677.6589	57.79782
677.8133	56.0806
677.9677	57.44592
678.1221	60.23944
678.2766	59.29916
678.4309	58.74285
678.5853	57.82286
678.7397	54.06227
678.8941	59.15883
679.0485	61.49173
679.2028	63.27537
679.3571	62.31626
679.5115	55.96468
679.6658	61.83266
679.8201	58.89601
679.9744	55.20454
680.1288	52.25556
680.2831	51.55304
680.4373	52.58859
680.5916	58.06773
680.7459	57.94867
680.9001	54.77471
681.0544	57.20923
681.2087	58.44733
681.3629	59.84233
681.5171	61.01348
681.6713	51.05755
681.8256	57.27233
681.9797	58.59492
682.134	60.24883
682.2881	61.39408
682.4423	57.12814
682.5965	59.34983
682.7507	61.00406
682.9048	54.50283
683.059	58.2183
683.2131	62.44773
683.3672	56.60133
683.5213	55.55963
683.6754	56.32224
683.8295	59.32913
683.9836	53.25026
684.1377	51.78261
684.2918	53.44086
684.4459	54.55252
684.5999	60.46803
684.754	62.09367
684.908	59.48814
685.062	57.60039
685.2161	56.69445
685.3701	61.37133
685.5241	54.19078
685.6781	54.91246
685.8321	61.08555
685.9861	58.45215
686.14	56.47285
686.294	61.98481
686.4479	58.46635
686.6019	52.40549
686.7559	45.57248
686.9098	46.7452
687.0637	47.14178
687.2176	50.93078
687.3715	52.86942
687.5254	54.06116
687.6793	54.7875
687.8332	58.4685
687.9871	54.41491
688.1409	52.76176
688.2947	57.66205
688.4486	53.53321
688.6024	55.58509
688.7563	54.70609
688.9101	52.08076
689.0639	56.25078
689.2177	60.25208
689.3715	61.32241
689.5253	58.81807
689.6791	59.3945
689.8328	57.52674
689.9866	62.69775
690.1403	61.13008
690.2941	61.93295
690.4478	65.96481
690.6015	61.60658
690.7552	60.10411
690.9089	61.79412
691.0626	62.59693
691.2164	67.11089
691.37	64.38181
691.5237	62.0002
691.6774	57.51709
691.831	63.16776
691.9847	66.34798
692.1383	68.68415
692.2919	70.11977
692.4456	62.26792
692.5992	67.49649
692.7527	65.69093
692.9064	67.58758
693.0599	68.95847
693.2136	67.44276
693.3671	70.56132
693.5207	69.38563
693.6742	69.78223
693.8278	63.79012
693.9813	66.82632
694.1348	70.13441
694.2883	70.13066
694.4418	73.52945
694.5953	68.23604
694.7488	71.68647
694.9023	71.66604
695.0558	72.3121
695.2093	73.6263
695.3627	73.22387
695.5162	73.83566
695.6696	73.89935
695.8231	70.5626
695.9764	74.3343
696.1299	79.53931
696.2833	85.57509
696.4367	80.35862
696.5901	81.40864
696.7435	84.81165
696.8968	79.82783
697.0502	80.18944
697.2036	78.76026
697.3569	80.49957
697.5102	79.58735
697.6635	82.62312
697.8168	83.40366
697.9702	90.13147
698.1235	83.80253
698.2768	85.11843
698.4301	85.97701
698.5833	85.38428
698.7366	83.5961
698.8898	79.88646
699.0431	82.17104
699.1964	84.45583
699.3495	79.65016
699.5028	83.85138
699.656	88.55423
699.8092	90.41104
699.9624	86.16286
700.1156	89.13321
700.2688	93.55672
700.4219	89.74484
700.5751	88.94041
700.7283	87.47465
700.8814	94.16001
701.0345	90.36208
701.1877	88.64311
701.3408	96.38649
701.4939	95.60075
701.647	96.75982
701.8001	97.76746
701.9532	96.25684
702.1063	97.0773
702.2593	98.35196
702.4124	95.17507
702.5654	98.94435
702.7184	102.2651
702.8715	101.4919
703.0245	98.14319
703.1776	99.93684
703.3305	103.944
703.4835	104.2871
703.6365	99.19914
703.7895	101.2345
703.9424	104.8857
704.0954	104.8666
704.2484	104.6198
704.4013	105.2245
704.5543	110.2981
704.7072	110.1194
704.8601	106.3502
705.013	106.7738
705.1659	102.9995
705.3188	106.8873
705.4717	108.5978
705.6246	108.4388
705.7774	107.7276
705.9303	110.0466
706.0831	116.2705
706.236	115.3016
706.3888	115.8212
706.5416	121.0316
706.6944	112.5416
706.8472	112.1225
707	112.3029
707.1528	115.0212
707.3056	116.9877
707.4583	119.1181
707.6111	117.9051
707.7639	121.2366
707.9166	114.9758
708.0693	120.3286
708.222	121.4082
708.3748	121.1861
708.5275	122.1574
708.6802	115.2265
708.8328	125.5779
708.9855	121.9697
709.1382	125.84
709.2909	131.5886
709.4435	134.4915
709.5962	128.767
709.7488	135.4301
709.9014	129.401
710.054	126.2112
710.2067	127.5574
710.3593	127.0798
710.5118	132.4129
710.6644	126.0896
710.817	129.1725
710.9695	134.9245
711.1221	129.3853
711.2747	125.0765
711.4272	132.7384
711.5797	129.3669
711.7322	133.3354
711.8848	133.326
712.0373	134.9113
712.1898	136.2763
712.3422	131.7818
712.4948	128.2904
712.6472	134.1397
712.7996	134.1089
712.9521	135.2396
713.1046	132.6624
713.257	134.9016
713.4094	138.1505
713.5618	139.4481
713.7142	144.2182
713.8666	142.6335
714.019	139.7823
714.1714	141.8283
714.3237	140.1909
714.4761	142.1359
714.6285	140.8077
714.7808	143.4589
714.9331	138.933
715.0854	135.9424
715.2378	134.9235
715.3901	140.4586
715.5424	144.8649
715.6947	145.2849
715.8469	146.165
715.9992	142.7482
716.1515	139.5005
716.3037	133.9255
716.456	131.0732
716.6082	126.7432
716.7604	133.721
716.9127	128.2011
717.0649	128.9555
717.2171	129.6509
717.3693	126.059
717.5214	125.7727
717.6736	126.7181
717.8258	125.6033
717.978	131.2715
718.1301	132.2222
718.2822	131.6987
718.4344	118.6546
718.5865	120.5355
718.7386	122.8498
718.8907	121.6787
719.0428	129.2536
719.1949	125.1931
719.3469	123.5961
719.499	122.7877
719.6511	129.3191
719.8031	126.7486
719.9551	124.3807
720.1072	122.8053
720.2592	129.7192
720.4112	124.4495
720.5632	125.9445
720.7152	128.3658
720.8672	139.0097
721.0192	145.3493
721.1711	147.3144
721.3231	152.0156
721.475	151.9461
721.627	158.345
721.7789	157.723
721.9308	154.4748
722.0828	151.6367
722.2347	154.7928
722.3866	155.1997
722.5385	157.1638
722.6903	155.0791
722.8422	155.0767
722.9941	155.9897
723.1459	154.0003
723.2977	146.1941
723.4496	141.321
723.6014	141.4185
723.7532	148.3835
723.905	145.0912
724.0568	143.2378
724.2086	138.8676
724.3604	141.1414
724.5121	144.8155
724.6639	152.2164
724.8157	147.4516
724.9674	147.7746
725.1191	145.4037
725.2709	134.4392
725.4226	140.7352
725.5743	149.6938
725.726	159.3218
725.8777	157.7043
726.0294	153.9051
726.181	159.4801
726.3327	151.0448
726.4844	151.5332
726.636	155.6817
726.7877	155.3567
726.9393	156.3598
727.0909	163.0753
727.2425	159.3129
727.3941	156.2574
727.5457	150.391
727.6973	148.8369
727.8488	149.297
728.0004	159.8927
728.1519	162.5312
728.3035	162.3199
728.455	171.2512
728.6066	168.6569
728.7581	162.3478
728.9095	156.3401
729.0611	148.9291
729.2126	143.9807
729.364	154.347
729.5155	162.4975
729.667	162.1739
729.8184	172.0783
729.9698	170.1633
730.1213	165.5858
730.2727	165.2268
730.4241	161.8897
730.5756	166.413
730.7269	173.6881
730.8784	168.0052
731.0297	167.8961
731.1811	166.937
731.3325	163.3006
731.4838	172.6402
731.6351	171.8722
731.7865	166.3301
731.9378	171.6109
732.0891	170.4837
732.2404	177.3196
732.3917	181.812
732.543	181.8484
732.6943	183.9277
732.8456	182.7233
732.9968	178.7215
733.1481	181.7372
733.2993	181.2477
733.4506	184.649
733.6018	186.5372
733.753	189.9489
733.9042	197.1726
734.0554	197.6756
734.2066	194.8865
734.3578	194.7778
734.509	191.0638
734.6602	189.7348
734.8113	184.8388
734.9624	192.8112
735.1136	188.3856
735.2647	187.1901
735.4158	186.224
735.5669	191.4552
735.718	194.6953
735.8691	195.2175
736.0201	194.3691
736.1713	192.0047
736.3223	183.4361
736.4733	189.4872
736.6244	188.9744
736.7755	189.5303
736.9265	186.5675
737.0775	194.5897
737.2285	195.5012
737.3795	199.5296
737.5305	201.4705
737.6815	199.0172
737.8324	195.7453
737.9834	196.2706
738.1343	197.556
738.2853	194.7622
738.4362	189.5549
738.5871	194.5722
738.738	192.0951
738.8889	181.7774
739.0399	188.3084
739.1907	188.3061
739.3416	191.7077
739.4925	202.4672
739.6433	195.0351
739.7942	194.1261
739.945	198.5166
740.0958	193.893
740.2467	195.0709
740.3975	197.6431
740.5483	193.6294
740.6991	194.7829
740.8499	193.7452
741.0007	193.1661
741.1514	188.979
741.3022	197.0009
741.4529	192.0184
741.6036	197.4414
741.7544	197.1815
741.9051	194.9162
742.0558	190.2496
742.2065	188.1181
742.3572	191.0556
742.5079	190.3495
742.6586	195.4643
742.8093	198.3948
742.9599	201.4429
743.1105	207.8752
743.2612	207.1783
743.4118	205.4535
743.5624	207.3399
743.7131	201.9543
743.8636	194.8752
744.0142	190.1793
744.1648	192.7711
744.3154	192.7862
744.4659	191.7407
744.6165	198.1365
744.767	198.1639
744.9176	203.1945
745.0681	197.4224
745.2186	201.749
745.3691	205.1722
745.5197	200.1835
745.6702	198.0111
745.8206	199.02
745.9711	198.8967
746.1215	194.2736
746.272	196.6104
746.4224	203.7141
746.5729	198.0691
746.7233	198.7746
746.8737	198.611
747.0241	205.4219
747.1745	204.0667
747.3249	193.8938
747.4753	193.481
747.6257	199.3375
747.776	196.1429
747.9264	193.9745
748.0767	197.9604
748.2271	200.0562
748.3774	194.49
748.5276	196.9516
748.678	196.3569
748.8282	191.1206
748.9786	192.9979
749.1288	197.4984
749.2791	187.6001
749.4294	188.3922
749.5796	191.4695
749.7299	191.0985
749.8801	193.9273
750.0303	187.9438
750.1805	183.4406
750.3307	183.8521
750.4809	189.8954
750.6311	191.8552
750.7813	189.8085
750.9314	186.648
751.0816	192.9675
751.2318	186.5705
751.3818	184.1908
751.532	188.2869
751.6821	181.9449
751.8322	190.4698
751.9823	187.6318
752.1324	188.0292
752.2825	188.0546
752.4326	183.258
752.5826	180.576
752.7327	184.2702
752.8827	181.4457
753.0327	180.0264
753.1827	185.4775
753.3328	186.2556
753.4828	186.1241
753.6328	185.4569
753.7828	190.4623
753.9327	186.4146
754.0827	185.2568
754.2327	184.1524
754.3826	181.2997
754.5325	186.6078
754.6825	186.7363
754.8324	184.3786
754.9823	187.5818
755.1322	180.3457
755.2821	178.701
755.432	175.8789
755.5818	169.7466
755.7318	179.0766
755.8816	180.8653
756.0314	180.2283
756.1813	175.8891
756.3311	173.2213
756.4809	174.8655
756.6307	175.3551
756.7805	175.3343
756.9303	178.8206
757.0801	174.0456
757.2299	175.4496
757.3796	174.201
757.5294	164.2546
757.6791	169.9055
757.8289	174.0475
757.9786	173.6954
758.1283	169.5334
758.278	180.4163
758.4277	174.6322
758.5773	170.0448
758.7271	172.024
758.8767	171.9686
759.0264	165.357
759.176	160.8289
759.3256	147.5055
759.4753	120.7623
759.6249	98.38268
759.7745	75.51857
759.9241	61.45876
760.0737	55.30516
760.2233	48.72211
760.3729	49.55057
760.5224	47.43906
760.6719	44.33004
760.8215	46.94197
760.971	51.09028
761.1205	54.14893
761.2701	64.99228
761.4196	77.59235
761.5691	88.85897
761.7186	105.8918
761.868	116.228
762.0175	118.7734
762.167	108.1758
762.3164	96.65181
762.4659	89.27496
762.6153	81.27362
762.7647	83.75189
762.9141	85.27829
763.0635	86.83147
763.2129	82.19392
763.3623	82.22579
763.5117	83.47772
763.661	86.49139
763.8104	85.37814
763.9597	87.4587
764.1091	89.50137
764.2584	94.92559
764.4077	97.22452
764.557	98.10156
764.7063	100.5286
764.8556	109.6763
765.0049	108.3401
765.1541	109.2899
765.3034	113.941
765.4526	112.6807
765.6019	113.4765
765.7511	118.8427
765.9003	120.2172
766.0496	120.8322
766.1987	125.0861
766.348	123.6736
766.4971	128.1362
766.6463	126.5426
766.7955	134.0051
766.9446	134.605
767.0938	135.9375
767.2429	138.7536
767.392	142.5677
767.5411	138.0968
767.6902	138.1451
767.8394	137.5495
767.9884	134.8696
768.1375	143.3539
768.2866	142.3141
768.4356	137.6315
768.5847	145.9987
768.7337	144.0586
768.8828	141.7992
769.0317	141.9458
769.1808	140.2597
769.3298	145.3376
769.4788	141.0118
769.6277	140.494
769.7767	142.547
769.9257	140.2852
770.0746	142.7989
770.2236	143.9922
770.3725	144.4568
770.5214	144.072
770.6703	142.0677
770.8193	142.8623
770.9681	143.1576
771.1171	141.009
771.2659	138.8686
771.4148	141.9383
771.5637	142.704
771.7125	140.9142
771.8613	145.4775
772.0101	142.2003
772.159	145.7451
772.3078	149.0287
772.4566	146.6484
772.6054	145.112
772.7542	139.2225
772.903	143.0331
773.0517	144.4487
773.2004	139.42
773.3492	142.0082
773.4979	141.6962
773.6467	141.2873
773.7953	135.8597
773.944	137.0898
774.0928	130.3584
774.2415	142.9103
774.3901	144.0215
774.5388	139.7417
774.6874	133.6039
774.8361	131.532
774.9847	135.9328
775.1334	132.9922
775.282	136.4608
775.4305	138.5859
775.5792	139.3353
775.7277	139.3024
775.8763	135.625
776.0249	137.3881
776.1735	139.6808
776.322	137.567
776.4705	134.3288
776.6191	136.2207
776.7676	137.3343
776.9161	138.3158
777.0646	138.454
777.2131	134.0878
777.3616	132.8953
777.5101	130.2133
777.6585	129.221
777.8069	132.0397
777.9554	133.5969
778.1038	129.5373
778.2523	125.2353
778.4007	129.8309
778.5491	134.9505
778.6974	135.4036
778.8459	137.5012
778.9942	132.3351
779.1426	133.7686
779.291	131.4999
779.4393	131.4165
779.5876	127.9242
779.736	126.1134
779.8843	126.9426
780.0326	125.4372
780.1809	129.7285
780.3292	129.8229
780.4775	133.6022
780.6257	127.0104
780.774	126.0045
780.9222	122.5573
781.0704	129.0471
781.2187	122.8728
781.3669	126.0227
781.5151	124.826
781.6633	127.777
781.8115	124.5488
781.9597	124.5207
782.1078	127.3296
782.256	132.8352
782.4042	131.0303
782.5523	127.621
782.7004	126.092
782.8486	125.8761
782.9967	121.0671
783.1448	125.5087
783.2929	123.1972
783.441	121.1518
783.5891	127.1626
783.7371	127.6901
783.8851	120.7666
784.0332	121.9886
784.1812	124.7313
784.3293	127.5522
784.4773	126.437
784.6253	126.7847
784.7733	119.8647
784.9213	120.5399
785.0692	126.881
785.2172	120.597
785.3652	123.3841
785.5131	123.1499
785.6611	127.7662
785.809	123.7599
785.9569	118.1836
786.1048	121.4966
786.2527	123.9185
786.4006	124.3301
786.5485	120.0874
786.6964	122.2378
786.8442	120.2422
786.9921	116.7227
787.1399	122.0812
787.2877	126.5546
787.4355	117.4121
787.5833	120.8568
787.7311	120.9639
787.8789	123.2264
788.0267	119.6292
788.1745	119.2107
788.3223	109.8831
788.47	108.8664
788.6177	114.7474
788.7654	116.8865
788.9132	114.6832
789.0609	112.3903
789.2086	115.8358
789.3563	118.1185
789.504	113.017
789.6517	115.2104
789.7993	117.4777
789.947	113.2901
790.0946	109.4493
790.2422	112.9725
790.3898	115.7081
790.5375	115.3979
790.6851	118.148
790.8326	108.4242
790.9802	112.4343
791.1278	105.2681
791.2754	110.4788
791.423	115.0176
791.5705	114.9449
791.718	112.1199
791.8655	111.8644
792.0131	111.4013
792.1606	106.864
792.308	113.3291
792.4556	112.2853
792.603	112.3471
792.7505	114.9223
792.8979	114.4241
793.0454	110.5861
793.1928	107.6883
793.3403	111.3853
793.4877	108.6522
793.6351	115.1871
793.7825	114.8827
793.9299	113.2503
794.0772	109.0711
794.2246	108.3672
794.3719	108.1912
794.5193	107.7867
794.6666	104.6155
794.814	106.1968
794.9613	111.9808
795.1086	113.7757
795.2559	110.3829
795.4032	114.6964
795.5505	113.4286
795.6978	110.6213
795.845	109.0538
795.9922	103.9219
796.1395	105.6205
796.2867	102.8303
796.4339	98.58232
796.5811	103.5373
796.7283	103.2836
796.8755	105.4903
797.0227	105.3014
797.1699	106.5214
797.317	99.07114
797.4642	101.4742
797.6113	102.252
797.7584	102.5529
797.9056	105.3346
798.0527	112.24
798.1998	107.4098
798.3469	106.4057
798.494	105.1038
798.641	101.6112
798.7881	101.9983
798.9351	105.6482
799.0822	104.4578
799.2292	102.6581
799.3762	101.3722
799.5232	98.62447
799.6702	95.92991
799.8172	100.8178
799.9642	107.5485
800.1111	107.5029
800.2581	99.28371
800.4051	99.51518
800.552	98.09177
800.6989	99.81479
800.8458	100.888
800.9927	102.0821
801.1396	103.2363
801.2866	100.1234
801.4334	99.0401
801.5803	97.70765
801.7272	99.6731
801.874	96.0407
802.0209	100.6842
802.1677	94.83572
802.3145	94.47034
802.4613	94.30471
802.6081	93.50906
802.7549	94.23968
802.9017	94.06532
803.0485	97.13728
803.1952	97.10615
803.342	93.65494
803.4887	95.30722
803.6354	97.40688
803.7822	93.68559
803.9289	97.95232
804.0756	96.71265
804.2223	98.19202
804.369	96.62547
804.5156	94.34134
804.6623	91.24902
804.8089	87.62937
804.9556	92.39857
805.1022	93.81396
805.2488	97.76447
805.3954	100.21
805.542	91.79385
805.6886	95.5563
805.8352	95.39935
805.9818	95.04656
806.1283	94.35387
806.2749	92.70917
806.4214	97.43893
806.5679	96.06517
806.7145	97.11803
806.861	98.08113
807.0074	96.33218
807.154	93.08141
807.3004	95.88995
807.4469	89.04312
807.5934	89.47104
807.7398	88.37527
807.8862	92.02621
808.0327	98.1526
808.1791	93.14996
808.3255	90.31639
808.4719	91.5985
808.6183	90.82781
808.7647	90.19254
808.9111	88.31978
809.0574	90.39707
809.2037	88.23112
809.3501	87.28992
809.4965	86.10944
809.6428	84.54727
809.7891	86.20331
809.9354	82.99791
810.0817	82.54842
810.2279	74.96148
810.3742	81.57209
810.5204	84.97583
810.6667	87.5938
810.8129	86.35836
810.9592	82.47207
811.1054	82.98103
811.2516	79.7616
811.3978	78.40454
811.5439	81.27279
811.6901	85.08936
811.8363	84.81702
811.9825	84.455
812.1286	82.53141
812.2748	81.83058
812.4209	80.13214
812.567	79.22427
812.7131	84.79144
812.8592	83.49016
813.0053	78.14548
813.1514	76.69251
813.2974	72.5236
813.4435	72.88727
813.5895	74.89417
813.7356	75.83308
813.8816	75.66667
814.0276	77.3104
814.1736	70.58759
814.3196	70.83897
814.4656	71.34568
814.6116	74.41624
814.7576	68.47548
814.9035	64.2738
815.0494	69.99197
815.1954	70.5755
815.3413	73.65022
815.4872	66.96989
815.6331	69.02663
815.779	69.96561
815.9249	65.33038
816.0707	58.59679
816.2166	58.57684
816.3625	57.94338
816.5083	61.78647
816.6542	67.26022
816.8	66.5456
816.9458	63.85257
817.0916	65.11909
817.2374	65.66369
817.3832	71.6408
817.5289	67.97985
817.6747	65.84457
817.8204	62.12454
817.9662	58.26286
818.1119	63.51327
818.2576	65.53358
818.4034	66.16655
818.5491	70.01405
818.6948	67.81494
818.8405	64.29237
818.9861	63.54497
819.1318	64.29072
819.2774	64.76369
819.423	65.10036
819.5687	65.48505
819.7143	66.67026
819.8599	56.72417
820.0055	61.54499
820.1511	64.74826
820.2967	66.84567
820.4422	73.71807
820.5878	74.50539
820.7333	72.56872
820.8788	72.79141
821.0244	68.36005
821.1699	67.40778
821.3154	63.34702
821.4609	66.27385
821.6064	71.06833
821.7519	67.46508
821.8973	63.96996
822.0428	59.51034
822.1882	65.42887
822.3337	63.49078
822.4791	59.85396
822.6245	56.2905
822.7699	46.5641
822.9153	48.49598
823.0607	50.35027
823.2061	49.97042
823.3514	47.66577
823.4968	55.1101
823.6422	57.73977
823.7875	65.66139
823.9328	70.68252
824.0781	67.44205
824.2234	63.39387
824.3687	65.67933
824.514	61.55738
824.6592	68.67638
824.8045	67.34658
824.9498	67.55209
825.095	67.1322
825.2402	65.9387
825.3854	66.33171
825.5306	65.23131
825.6758	60.85036
825.821	53.94404
825.9662	57.01129
826.1114	60.67955
826.2565	66.16154
826.4017	63.63052
826.5468	61.82104
826.692	61.90682
826.837	65.57049
826.9822	69.79868
827.1273	63.91728
827.2723	60.46417
827.4174	58.52843
827.5625	56.39825
827.7075	56.40073
827.8526	54.45861
827.9976	60.33482
828.1426	58.61206
828.2877	64.65403
828.4327	61.33337
828.5776	61.59002
828.7227	56.51891
828.8676	53.32631
829.0126	55.6524
829.1575	61.66056
829.3024	59.54861
829.4474	57.23598
829.5923	60.87024
829.7372	59.27735
829.8821	62.1175
830.027	62.45158
830.1719	54.21139
830.3168	59.94153
830.4616	59.62497
830.6064	63.82882
830.7513	60.84369
830.8961	54.99085
831.041	59.21173
831.1857	60.43584
831.3306	58.69633
831.4753	58.27628
831.6201	55.71989
831.7649	59.54921
831.9096	58.80395
832.0544	56.90126
832.1991	54.03872
832.3438	55.4753
832.4885	60.12605
832.6332	59.26346
832.778	58.71392
832.9226	57.36034
833.0673	54.76836
833.2119	50.94954
833.3566	51.91242
833.5012	55.39496
833.6459	56.04029
833.7905	54.36317
833.9351	56.9676
834.0797	53.81454
834.2243	54.59808
834.3688	61.47161
834.5134	58.96251
834.658	59.6713
834.8026	61.52061
834.9471	66.21426
835.0916	63.73248
835.2361	55.35975
835.3806	58.89551
835.5251	60.59742
835.6696	56.8185
835.8141	57.20749
835.9586	58.66269
836.103	57.86026
836.2474	53.16347
836.3918	56.56872
836.5363	59.52433
836.6807	62.01161
836.8251	63.53455
836.9695	61.58131
837.1138	60.60517
837.2582	61.02997
837.4026	60.01964
837.5469	58.83105
837.6913	61.40281
837.8356	60.65816
837.9799	63.415
838.1242	58.19294
838.2686	62.41903
838.4128	61.09925
838.5571	57.85975
838.7014	55.26289
838.8456	58.37314
838.9899	61.26701
839.1341	62.44974
839.2783	61.11065
839.4225	52.36999
839.5667	55.76025
839.7109	53.55831
839.8551	57.87873
839.9993	55.12791
840.1434	56.68941
840.2876	61.3943
840.4317	62.1186
840.5759	59.41968
840.72	66.80121
840.8641	61.72455
841.0082	63.53646
841.1523	55.56359
841.2963	53.45117
841.4404	54.08073
841.5845	52.09469
841.7285	51.36973
841.8726	55.34541
842.0165	57.48243
842.1606	56.40645
842.3046	58.87778
842.4485	57.84119
842.5925	59.3009
842.7365	55.01317
842.8805	55.25665
843.0244	57.20849
843.1684	55.74159
843.3123	58.25455
843.4562	58.73074
843.6002	55.65074
843.744	54.63292
843.8879	56.98074
844.0318	59.1543
844.1757	57.90261
844.3195	54.38244
844.4634	57.53258
844.6072	62.02529
844.751	54.59312
844.8948	52.36012
845.0386	50.85716
845.1824	57.36642
845.3262	58.52367
845.47	59.41098
845.6138	55.58451
845.7575	57.63741
845.9012	54.769
846.045	56.44067
846.1887	55.86072
846.3324	48.90171
846.4761	54.88044
846.6198	57.53421
846.7635	51.88301
846.9071	52.34922
847.0508	53.37504
847.1944	54.02433
847.3381	55.66972
847.4817	51.49097
847.6253	49.66718
847.7689	55.5541
847.9125	56.50127
848.0561	48.09569
848.1996	54.6168
848.3432	55.59455
848.4868	60.27523
848.6303	55.7576
848.7738	53.0652
848.9174	53.02114
849.0609	55.63775
849.2043	57.22529
849.3478	54.36969
849.4913	56.04977
849.6348	53.44161
849.7782	48.94385
849.9217	42.85839
850.0651	49.08915
850.2086	45.9155
850.3519	50.07961
850.4954	51.02441
850.6387	55.26221
850.7821	57.55761
850.9255	50.89602
851.0688	55.09148
851.2122	51.25644
851.3555	45.82322
851.4988	50.14035
851.6422	54.13262
851.7855	53.67241
851.9288	51.60446
852.0721	50.77032
852.2153	53.43795
852.3586	43.54902
852.5018	48.2903
852.6451	45.56802
852.7883	48.67002
852.9315	54.19778
853.0748	54.7523
853.218	52.41073
853.3611	52.98587
853.5043	51.1161
853.6475	52.18053
853.7906	50.94997
853.9338	43.76929
854.0769	38.56706
854.22	29.94583
854.3632	38.5756
854.5063	42.45977
854.6494	40.66023
854.7924	46.35653
854.9355	46.23868
855.0786	45.127
855.2216	47.33127
855.3647	45.6056
855.5077	46.86443
855.6507	44.91065
855.7937	49.65979
855.9367	51.26377
856.0797	53.10883
856.2227	46.75241
856.3657	47.82872
856.5086	50.05836
856.6516	49.96426
856.7945	49.00915
856.9374	49.69509
857.0803	44.06059
857.2232	44.59377
857.3661	47.41191
857.509	49.64594
857.6519	46.80438
857.7947	52.67813
857.9376	51.20639
858.0804	48.86916
858.2232	48.53362
858.366	47.36684
858.5089	45.90948
858.6516	48.029
858.7944	52.64308
858.9372	50.79754
859.08	45.66351
859.2227	43.49158
859.3654	50.81186
859.5082	50.07305
859.6509	47.56079
859.7936	40.17122
859.9363	47.64663
860.079	41.91653
860.2217	45.10496
860.3643	46.95599
860.507	44.31966
860.6496	44.22931
860.7922	44.86572
860.9349	45.39769
861.0775	44.33133
861.2201	48.10708
861.3627	44.20936
861.5052	45.29988
861.6478	49.69545
861.7904	51.92365
861.9329	45.54954
862.0755	46.38446
862.218	44.59375
862.3605	42.42992
862.503	39.0952
862.6455	42.84063
862.788	48.0393
862.9305	45.50161
863.0729	44.71119
863.2154	49.22675
863.3578	42.97141
863.5002	46.32501
863.6426	44.32943
863.7851	47.01336
863.9275	47.71998
864.0698	46.96838
864.2122	45.03104
864.3546	43.05758
864.4969	43.14637
864.6393	46.77876
864.7816	44.63427
864.924	46.10173
865.0662	46.1213
865.2086	44.30268
865.3508	42.55941
865.4931	40.17471
865.6354	38.01364
865.7776	43.72766
865.9199	40.46624
866.0621	38.45616
866.2043	34.21291
866.3466	30.0686
866.4888	30.41059
866.6309	35.67674
866.7731	32.62685
866.9153	42.38901
867.0574	46.03909
867.1996	44.44636
867.3417	43.22108
867.4839	40.43122
867.626	39.85882
867.7681	44.00097
867.9102	46.73641
868.0522	40.81728
868.1943	42.39324
868.3364	45.19049
868.4785	41.80655
868.6205	42.46889
868.7625	42.73247
868.9045	38.96127
869.0465	41.51429
869.1885	43.20681
869.3305	41.1632
869.4725	46.34514
869.6144	41.82561
869.7564	42.2842
869.8983	41.5786
870.0403	39.54077
870.1822	46.67484
870.3241	41.96972
870.466	42.86275
870.6079	40.83911
870.7498	40.54947
870.8916	38.44019
871.0335	36.55418
871.1754	36.5961
871.3171	39.42423
871.459	37.10257
871.6008	41.99162
871.7426	39.30123
871.8844	43.03134
872.0262	40.83062
872.1679	40.77516
872.3097	39.79319
872.4514	43.12967
872.5931	34.51334
872.7349	40.54628
872.8766	31.14505
873.0183	34.9214
873.16	33.94316
873.3017	34.31079
873.4434	35.66488
873.585	36.99786
873.7266	34.8301
873.8683	37.36283
874.0099	39.88951
874.1516	34.48375
874.2932	33.94517
874.4348	39.05703
874.5763	36.27493
874.7179	37.3709
874.8594	38.39799
875.001	37.10428
875.1425	39.64553
875.2841	35.7744
875.4256	36.03524
875.5671	34.84021
875.7086	36.00161
875.85	35.2756
875.9915	33.4273
876.133	31.35541
876.2744	34.40405
876.4159	32.97312
876.5573	36.73814
876.6987	37.95563
876.8401	39.27866
876.9815	38.40393
877.1229	34.0098
877.2643	37.45952
877.4056	33.63961
877.547	31.46039
877.6884	33.46721
877.8297	35.42977
877.971	36.3049
878.1123	35.48837
878.2536	35.60626
878.3949	34.04831
878.5362	34.03987
878.6774	36.14917
878.8187	31.81689
878.9599	29.61161
879.1011	37.82439
879.2424	37.07611
879.3836	35.64387
879.5248	41.08
879.666	38.83287
879.8071	38.00138
879.9483	37.08655
880.0895	40.24042
880.2306	37.06752
880.3718	34.67627
880.5129	32.136
880.654	31.85408
880.7951	35.47247
880.9362	35.3841
881.0773	32.83023
881.2183	36.13036
881.3594	34.64533
881.5004	38.11882
881.6414	35.14523
881.7825	35.63116
881.9235	37.07894
882.0645	43.0036
882.2054	37.35742
882.3464	36.90437
882.4874	35.31794
882.6284	33.54429
882.7693	33.47366
882.9103	31.68893
883.0512	34.43424
883.1921	33.19378
883.333	40.8277
883.4739	33.25411
883.6147	32.65793
883.7556	30.31507
883.8965	39.8714
884.0374	33.693
884.1782	33.57739
884.319	34.14579
884.4598	35.52134
884.6006	34.54544
884.7414	34.78097
884.8822	37.22701
885.0229	34.94508
885.1637	30.26739
885.3044	30.55775
885.4452	35.31171
885.5859	29.61171
885.7266	35.19328
885.8673	34.41993
886.008	31.15143
886.1487	33.87486
886.2894	36.21722
886.43	37.40029
886.5707	31.19213
886.7113	30.70508
886.8519	29.82621
886.9926	29.88628
887.1331	26.86143
887.2737	34.73092
887.4143	33.47317
887.5549	33.43111
887.6954	33.66447
887.836	34.25906
887.9765	33.42542
888.1171	32.17336
888.2576	33.6956
888.3981	33.1783
888.5386	32.85606
888.679	30.26709
888.8195	27.44332
888.96	30.23894
889.1004	27.44345
889.2408	29.28984
889.3813	30.96701
889.5217	31.76614
889.6621	27.64892
889.8025	26.26925
889.9429	28.01871
890.0833	31.34554
890.2236	33.631
890.364	33.6304
890.5043	34.04734
890.6446	31.62396
890.7849	33.33821
890.9252	29.19814
891.0655	30.5135
891.2058	29.99288
891.3461	30.44695
891.4863	34.2886
891.6266	32.81684
891.7668	25.00839
891.907	29.27784
892.0472	29.25172
892.1874	28.26453
892.3276	26.73451
892.4678	33.35318
892.608	32.19963
892.7481	25.17434
892.8883	28.78636
893.0284	28.55968
893.1685	29.20432
893.3087	30.45842
893.4487	25.60505
893.5889	26.1363
893.7289	27.61607
893.869	29.18926
894.009	31.80925
894.1491	30.58697
894.2891	26.83807
894.4291	29.52427
894.5692	28.53502
894.7092	26.86209
894.8491	24.21889
894.9891	25.94494
895.1291	27.61663
895.269	30.83755
895.409	26.34418
895.549	23.33546
895.6888	30.60227
895.8288	29.78508
895.9687	26.35545
896.1086	20.84918
896.2484	28.00439
896.3883	25.9326
896.5281	24.44471
896.668	23.60164
896.8079	20.67438
896.9476	24.37503
897.0875	25.65249
897.2272	20.71509
897.3671	21.70963
897.5068	20.7531
897.6466	23.78753
897.7864	23.74255
897.9261	24.25284
898.0658	25.55943
898.2056	18.80466
898.3453	21.17974
898.4849	25.28958
898.6246	18.67886
898.7643	21.29787
898.904	24.55614
899.0436	21.63357
899.1833	17.67728
899.3229	20.04687
899.4625	23.74258
899.6021	24.10462
899.7417	26.42871
899.8813	26.59333
900.0209	24.81322
900.1605	22.64834
900.3	21.93756
900.4395	23.09071
900.579	18.67162
900.7186	20.82164
900.8581	25.03607
900.9976	20.25091
901.1371	20.59083
901.2766	17.40385
901.416	22.63873
901.5555	21.31012
901.6949	20.86764
901.8344	22.392
901.9738	23.74049
902.1132	26.61795
902.2526	25.6728
902.3919	23.4277
902.5313	21.25749
902.6707	23.06779
