SPECTRUM DATA FILE
SpectrumCount:	1
PixelCount:	3648
UserName:	ToughBook User
SampleName:	
LightSource:	
Comments:	
DeviceName:	Qwave
DeviceManufacturer:	Broadcom
DeviceSerialNo:	11311

Name:	last spectrum
Date:	2024-05-02T14:42:14.7947174+02:00
ExposureTime:	0.02
TemporalAvg:	1
IntensityUnit:	normalizedCounts
CCDLoadLevel:	0.05350634
Temperature:	30.95038
DiagramColor:	200
ProcessingSteps:	335

Wavelength [nm]	Intensity1
334.421	2.938001
334.5891	5.81943
334.7573	6.539382
334.9254	9.331593
335.0935	5.150312
335.2616	6.081825
335.4297	4.170589
335.5978	6.521295
335.7659	9.792067
335.934	7.825174
336.1021	4.938323
336.2701	5.027891
336.4382	8.279779
336.6063	7.94533
336.7744	7.816105
336.9424	6.930106
337.1105	5.395113
337.2785	10.26812
337.4466	4.458699
337.6146	5.990598
337.7827	8.957976
337.9507	3.744526
338.1187	2.975816
338.2867	5.740118
338.4548	2.794017
338.6228	7.828837
338.7908	8.427692
338.9588	1.747687
339.1268	6.417822
339.2948	5.047417
339.4628	8.941709
339.6308	7.340997
339.7988	2.509223
339.9667	6.041468
340.1347	6.516303
340.3027	5.625638
340.4707	2.633625
340.6386	5.915706
340.8066	7.429613
340.9745	8.934827
341.1425	6.561652
341.3104	3.370581
341.4784	6.237886
341.6463	4.494599
341.8142	5.372827
341.9821	6.191412
342.1501	8.256254
342.318	6.903486
342.4859	4.710081
342.6538	4.096578
342.8217	2.834441
342.9896	6.380682
343.1575	8.867842
343.3254	6.82575
343.4933	8.330278
343.6612	4.017243
343.829	6.161041
343.9969	9.461052
344.1648	9.008476
344.3326	9.232667
344.5005	2.509905
344.6683	4.649673
344.8362	8.322145
345.004	8.532016
345.1719	6.556568
345.3397	6.397655
345.5075	1.884605
345.6754	4.154983
345.8432	2.501858
346.011	6.470014
346.1788	11.70136
346.3466	8.902141
346.5144	5.553762
346.6822	3.996151
346.85	6.153552
347.0178	4.863802
347.1856	4.493752
347.3534	8.118398
347.5211	7.366323
347.6889	2.203657
347.8567	9.63775
348.0244	8.195929
348.1922	6.10758
348.3599	4.898033
348.5277	2.545973
348.6954	1.263322
348.8632	3.234075
349.0309	7.648109
349.1986	3.920782
349.3663	-0.1949822
349.5341	-1.294529
349.7018	4.072043
349.8695	8.761192
350.0372	8.669691
350.2049	9.155492
350.3726	7.524367
350.5403	7.004834
350.7079	8.754293
350.8756	8.543949
351.0433	4.258787
351.211	8.866957
351.3786	8.616416
351.5463	5.673507
351.714	7.217621
351.8816	8.158548
352.0493	3.419838
352.2169	8.277327
352.3846	9.349134
352.5522	9.368771
352.7198	5.036165
352.8875	9.362816
353.0551	10.80956
353.2227	6.325861
353.3903	3.706124
353.5579	7.217756
353.7255	6.492016
353.8931	10.87173
354.0607	14.07823
354.2283	9.203828
354.3958	5.951403
354.5634	7.187415
354.731	3.140046
354.8986	4.931083
355.0661	10.3299
355.2337	9.110885
355.4012	5.543342
355.5688	8.894594
355.7363	11.98524
355.9039	9.390582
356.0714	9.945605
356.239	8.120715
356.4065	5.079404
356.574	7.219424
356.7415	5.503094
356.909	6.751118
357.0765	4.804202
357.244	10.08064
357.4115	12.18835
357.579	7.43575
357.7465	7.48617
357.914	6.201286
358.0815	7.651302
358.249	4.012153
358.4164	9.234333
358.5839	6.550645
358.7513	4.288815
358.9188	6.023566
359.0862	11.3997
359.2537	7.903918
359.4211	5.449776
359.5886	3.796207
359.756	8.324566
359.9234	10.85302
360.0909	4.626012
360.2583	9.014408
360.4257	5.950688
360.5931	7.406384
360.7605	7.94107
360.9279	11.86417
361.0953	10.43983
361.2627	7.977336
361.4301	4.093571
361.5974	5.125128
361.7648	8.781536
361.9322	6.646778
362.0995	7.127886
362.2669	5.118635
362.4343	8.700331
362.6016	8.249041
362.769	7.302034
362.9363	11.10746
363.1036	10.33492
363.271	7.970999
363.4383	7.909944
363.6056	8.676899
363.7729	9.030106
363.9402	9.036725
364.1075	7.94931
364.2748	10.07595
364.4421	5.356603
364.6094	8.218119
364.7767	10.41377
364.944	9.753703
365.1113	8.784533
365.2786	7.597059
365.4458	11.35205
365.6131	10.63907
365.7803	12.72966
365.9476	13.52721
366.1148	8.453887
366.2821	9.591933
366.4493	9.339477
366.6166	8.389839
366.7838	9.136929
366.951	5.550003
367.1182	5.776996
367.2855	7.595742
367.4527	8.610467
367.6199	11.42536
367.7871	12.87484
367.9543	8.986006
368.1215	12.95148
368.2886	12.09444
368.4558	11.47707
368.623	7.761172
368.7902	6.126142
368.9573	10.91565
369.1245	6.169047
369.2917	9.729607
369.4588	9.728685
369.6259	5.622174
369.7931	4.563868
369.9602	3.029422
370.1274	7.005182
370.2945	8.104307
370.4616	9.389721
370.6287	12.59119
370.7958	10.99542
370.963	8.803734
371.1301	11.38606
371.2971	11.50719
371.4643	10.29671
371.6313	8.489401
371.7984	9.220999
371.9655	7.62685
372.1326	8.033572
372.2997	6.77329
372.4667	10.05685
372.6338	11.84333
372.8008	9.693932
372.9679	6.114805
373.1349	11.1609
373.3019	12.29062
373.469	11.71129
373.636	11.04689
373.803	6.120545
373.9701	11.56837
374.1371	4.971208
374.3041	5.627233
374.4711	8.421117
374.6381	6.687963
374.8051	9.219029
374.9721	10.99325
375.1391	13.13265
375.3061	7.21671
375.473	8.031212
375.64	8.342367
375.8069	10.63243
375.9739	7.815319
376.1409	8.936918
376.3078	7.64868
376.4748	8.78447
376.6417	12.84933
376.8087	11.0393
376.9756	13.39692
377.1425	9.323138
377.3094	13.5731
377.4763	12.79984
377.6432	11.62782
377.8102	8.244814
377.9771	10.01139
378.144	10.89627
378.3109	6.567755
378.4777	8.318277
378.6446	8.00146
378.8115	12.18953
378.9784	11.78851
379.1452	9.821067
379.3121	13.39484
379.4789	12.26812
379.6458	10.43374
379.8127	10.48346
379.9795	7.013704
380.1463	10.43592
380.3131	9.093951
380.48	9.380848
380.6468	9.708557
380.8136	11.96711
380.9804	14.51605
381.1472	12.05705
381.314	8.140376
381.4808	12.16407
381.6476	10.33711
381.8144	7.050789
381.9812	11.27896
382.148	12.05975
382.3147	5.595109
382.4815	7.638866
382.6483	8.805562
382.815	7.9965
382.9818	9.019686
383.1485	11.48841
383.3153	9.91843
383.482	7.782577
383.6487	10.45908
383.8155	6.415529
383.9822	7.312636
384.1489	11.36112
384.3156	9.264441
384.4823	13.70197
384.649	11.81035
384.8157	9.3881
384.9824	9.757303
385.1491	10.92763
385.3158	9.806993
385.4825	7.922347
385.6491	11.88124
385.8158	11.03937
385.9825	10.04539
386.1491	7.797922
386.3157	14.18182
386.4824	15.42505
386.649	13.0437
386.8157	4.213777
386.9823	7.094202
387.1489	14.11603
387.3156	12.93331
387.4821	7.249844
387.6488	10.64161
387.8154	9.144232
387.982	8.497087
388.1486	12.77744
388.3152	9.284065
388.4818	9.159002
388.6483	8.211395
388.8149	10.16788
388.9815	12.80346
389.148	7.111318
389.3146	7.721866
389.4811	12.95448
389.6477	14.14619
389.8142	12.04102
389.9808	4.617763
390.1473	10.49811
390.3138	11.73346
390.4804	6.20841
390.6469	8.382207
390.8134	15.03459
390.9799	14.83158
391.1464	10.77046
391.3129	14.4252
391.4794	14.54002
391.6459	11.08045
391.8124	12.01399
391.9789	15.40323
392.1453	11.41336
392.3118	13.47537
392.4782	11.25715
392.6447	13.08086
392.8112	15.50901
392.9776	13.50003
393.144	13.17951
393.3105	12.46797
393.4769	11.63306
393.6433	9.766412
393.8098	7.429494
393.9762	7.022651
394.1426	13.39375
394.309	15.1623
394.4754	12.0989
394.6418	14.87297
394.8082	15.56944
394.9746	14.22466
395.141	14.63269
395.3073	12.23184
395.4737	16.65339
395.64	14.1727
395.8064	16.67259
395.9728	18.59915
396.1391	14.26527
396.3055	9.386801
396.4718	8.381463
396.6381	13.49378
396.8045	12.08452
396.9708	12.56702
397.1371	15.78253
397.3034	12.79832
397.4697	14.40582
397.636	14.6699
397.8023	18.50706
397.9686	15.89091
398.1349	19.86775
398.3012	15.44981
398.4675	14.61271
398.6337	15.36724
398.8	15.05788
398.9662	15.83873
399.1325	15.41916
399.2988	17.54339
399.465	18.70933
399.6313	17.08694
399.7975	20.44003
399.9637	20.29551
400.1299	21.26242
400.2961	18.62918
400.4624	19.70174
400.6286	17.88312
400.7948	16.10375
400.961	18.7959
401.1272	20.46483
401.2934	20.98358
401.4595	19.85687
401.6257	18.60332
401.7919	21.42113
401.9581	18.91296
402.1242	18.05163
402.2904	20.49877
402.4565	16.67782
402.6227	15.94578
402.7888	21.19373
402.955	18.74044
403.1211	13.50839
403.2872	21.2432
403.4533	19.54162
403.6194	18.85423
403.7856	21.59874
403.9517	18.28473
404.1177	17.53388
404.2838	18.63338
404.4499	20.35005
404.616	16.69355
404.7821	19.45527
404.9482	13.61943
405.1142	16.09058
405.2803	21.87356
405.4464	22.55216
405.6124	20.39124
405.7784	17.62317
405.9445	19.63851
406.1105	18.87744
406.2766	18.51789
406.4426	18.3199
406.6086	19.44376
406.7746	22.40744
406.9406	20.13665
407.1066	20.68492
407.2726	25.21121
407.4386	23.13617
407.6046	20.03215
407.7706	18.88585
407.9366	22.80844
408.1025	22.30066
408.2685	24.53533
408.4344	23.79478
408.6004	22.19851
408.7664	25.65636
408.9323	27.91807
409.0983	22.1365
409.2642	23.2775
409.4301	22.81806
409.596	23.42937
409.762	21.50868
409.9279	19.39447
410.0938	20.96126
410.2597	20.89207
410.4256	24.85917
410.5915	22.18909
410.7574	23.64625
410.9232	30.32416
411.0891	28.86543
411.255	23.45519
411.4209	20.90856
411.5867	26.62351
411.7526	25.5492
411.9184	24.14605
412.0843	20.66058
412.2501	22.16414
412.4159	21.69838
412.5818	25.50451
412.7476	23.68934
412.9134	27.54488
413.0792	21.99687
413.245	25.56618
413.4108	24.60141
413.5766	17.20178
413.7424	22.20609
413.9082	24.14281
414.074	26.64941
414.2397	22.20055
414.4055	22.26268
414.5713	24.88637
414.737	23.35855
414.9028	29.0305
415.0685	27.7378
415.2343	25.68634
415.4	27.21685
415.5658	26.10726
415.7315	27.6685
415.8972	31.4429
416.0629	26.51982
416.2286	24.68441
416.3943	24.13282
416.56	23.8728
416.7257	25.15164
416.8914	30.37303
417.0571	26.60692
417.2228	26.82197
417.3884	24.65149
417.5541	27.24511
417.7198	24.18036
417.8854	23.9151
418.0511	24.28865
418.2167	30.31469
418.3824	26.49373
418.548	25.67145
418.7136	28.48154
418.8792	26.35229
419.0449	22.65164
419.2105	24.72716
419.3761	26.59505
419.5417	25.61371
419.7073	26.88878
419.8729	28.51981
420.0385	27.21437
420.204	24.52371
420.3696	26.1754
420.5352	29.33931
420.7007	31.07459
420.8663	32.82929
421.0319	32.70598
421.1974	33.24689
421.3629	33.25336
421.5285	30.03551
421.694	30.07277
421.8595	31.87796
422.0251	30.42576
422.1906	29.56979
422.3561	32.5416
422.5216	27.41235
422.6871	30.79257
422.8526	30.71741
423.0181	27.66856
423.1835	33.38573
423.349	30.06698
423.5145	31.43116
423.68	31.32137
423.8454	32.68009
424.0109	33.52706
424.1763	35.41412
424.3418	35.39429
424.5072	30.73003
424.6726	32.84874
424.838	32.4662
425.0035	28.59942
425.1689	31.10601
425.3343	38.25468
425.4997	34.85271
425.6651	33.19008
425.8305	37.78921
425.9959	33.17493
426.1613	37.93954
426.3267	36.7705
426.492	34.4535
426.6574	33.31092
426.8228	29.20126
426.9881	36.3923
427.1534	31.38078
427.3188	30.74969
427.4841	32.24676
427.6495	29.71968
427.8148	31.17408
427.9801	37.60678
428.1454	37.48144
428.3107	35.67481
428.476	33.20347
428.6414	32.60974
428.8066	36.3926
428.9719	29.49647
429.1372	28.2346
429.3025	35.34057
429.4678	35.40987
429.633	33.79273
429.7983	30.73115
429.9636	26.77196
430.1288	31.09299
430.294	25.69995
430.4593	29.66484
430.6245	27.31487
430.7897	29.73766
430.955	28.82754
431.1202	26.9899
431.2854	31.50345
431.4506	32.65662
431.6158	37.72562
431.781	43.72125
431.9462	42.99451
432.1114	39.86684
432.2766	33.06046
432.4417	31.22992
432.6069	32.859
432.772	37.97118
432.9372	39.07438
433.1024	37.52824
433.2675	42.68093
433.4326	41.0301
433.5977	37.08263
433.7629	32.25364
433.928	32.50479
434.0931	28.78851
434.2582	35.4295
434.4233	43.48376
434.5884	41.94096
434.7535	44.17592
434.9186	42.59072
435.0837	46.20941
435.2488	38.89676
435.4138	38.85144
435.5789	40.50985
435.744	45.94415
435.909	46.98323
436.0741	41.62255
436.2391	43.49438
436.4042	47.37608
436.5692	51.28181
436.7342	48.91903
436.8992	41.45216
437.0643	49.5554
437.2293	52.46392
437.3943	44.78811
437.5593	39.37323
437.7243	41.82784
437.8893	42.53603
438.0542	44.77216
438.2192	39.99582
438.3842	35.82118
438.5491	33.7336
438.7141	37.87225
438.8791	37.41153
439.044	39.73328
439.209	46.38243
439.3739	39.70012
439.5388	42.32235
439.7037	48.95591
439.8687	48.35443
440.0336	45.22802
440.1985	44.41816
440.3634	45.72791
440.5283	44.76366
440.6932	46.08529
440.8581	48.13869
441.0229	45.976
441.1878	46.2555
441.3527	46.27088
441.5175	47.5353
441.6824	46.22106
441.8472	54.09341
442.0121	56.26527
442.1769	55.73258
442.3418	53.64838
442.5066	51.96628
442.6714	48.43523
442.8362	49.84484
443.001	52.56245
443.1659	49.22372
443.3307	50.15517
443.4955	48.52662
443.6602	51.98621
443.825	51.5678
443.9898	51.0162
444.1546	52.15617
444.3193	50.73616
444.4841	50.82825
444.6488	54.73621
444.8136	51.6584
444.9783	53.3616
445.1431	54.40253
445.3078	48.25075
445.4725	43.85696
445.6372	47.23954
445.802	48.40237
445.9667	46.22194
446.1314	44.63534
446.2961	46.4758
446.4608	47.54792
446.6255	54.97663
446.7901	49.43534
446.9548	48.7745
447.1195	50.10271
447.2841	61.13755
447.4488	58.49492
447.6134	60.11472
447.7781	52.8467
447.9427	55.70621
448.1074	56.75526
448.272	60.68763
448.4366	54.69958
448.6012	55.37277
448.7658	54.22587
448.9305	51.90942
449.095	57.20122
449.2596	55.3658
449.4242	53.41636
449.5888	53.98175
449.7534	55.8447
449.9179	62.84222
450.0825	58.53824
450.2471	58.57371
450.4116	59.78882
450.5762	62.08833
450.7407	63.17103
450.9052	61.40733
451.0698	60.68596
451.2343	65.07767
451.3988	59.99673
451.5633	56.30786
451.7278	58.96528
451.8923	64.0901
452.0568	64.09608
452.2213	60.37499
452.3858	64.06929
452.5503	60.88643
452.7148	59.72074
452.8792	57.19664
453.0437	56.69586
453.2081	57.3331
453.3726	57.55594
453.537	60.18613
453.7015	60.19813
453.8659	61.91456
454.0303	60.35455
454.1947	59.34115
454.3592	59.29076
454.5236	59.55444
454.688	61.31709
454.8524	59.23133
455.0168	56.30811
455.1811	63.28335
455.3455	58.75912
455.5099	59.14089
455.6743	61.42262
455.8386	69.53526
456.003	65.84585
456.1673	62.82892
456.3317	63.58597
456.496	62.55546
456.6603	64.90372
456.8246	57.17313
456.989	66.87243
457.1533	63.75145
457.3176	62.96407
457.4819	67.80901
457.6462	66.01713
457.8105	63.95203
457.9748	61.25218
458.1391	61.92072
458.3033	67.08337
458.4676	69.32287
458.6319	63.39386
458.7961	63.24863
458.9604	61.8952
459.1246	64.59087
459.2888	63.15636
459.4531	55.43045
459.6173	60.37197
459.7815	67.55036
459.9457	71.82378
460.11	67.4233
460.2741	67.49556
460.4384	68.7372
460.6025	62.93697
460.7667	68.44024
460.9309	69.64749
461.0951	69.46608
461.2592	67.63565
461.4234	68.61776
461.5876	69.15356
461.7517	69.30751
461.9159	67.63184
462.08	74.56881
462.2441	61.06197
462.4082	65.87101
462.5724	62.14339
462.7365	71.8626
462.9006	67.40849
463.0647	67.04369
463.2288	69.38494
463.3929	69.15047
463.557	64.59347
463.721	68.757
463.8851	67.03527
464.0492	64.67777
464.2132	59.96743
464.3773	62.20456
464.5414	62.1162
464.7054	64.55109
464.8694	60.56121
465.0334	66.10522
465.1975	66.95264
465.3615	66.58064
465.5255	67.76862
465.6895	64.56989
465.8535	71.20883
466.0175	70.76112
466.1815	71.42032
466.3455	65.23289
466.5095	62.36801
466.6734	63.12231
466.8374	64.26634
467.0014	67.56568
467.1653	68.30552
467.3293	61.50257
467.4932	60.25872
467.6571	63.25502
467.8211	68.8485
467.985	69.2887
468.1489	67.22009
468.3128	66.60317
468.4767	73.35172
468.6406	69.18896
468.8045	65.73918
468.9684	74.32128
469.1323	65.83113
469.2962	67.09946
469.46	68.60742
469.6239	72.8793
469.7878	75.15678
469.9516	69.61171
470.1154	63.34444
470.2793	63.00568
470.4431	64.43018
470.607	68.14249
470.7708	63.80523
470.9346	65.10746
471.0984	67.38294
471.2622	69.88602
471.426	70.42467
471.5898	69.84875
471.7536	66.81952
471.9174	72.34608
472.0811	70.5737
472.2449	74.31815
472.4087	73.45568
472.5724	70.46575
472.7362	68.05604
472.8999	70.9539
473.0637	66.79903
473.2274	68.22273
473.3911	70.91314
473.5548	71.43087
473.7185	69.42114
473.8822	70.69091
474.0459	70.27496
474.2096	74.67522
474.3733	70.77045
474.537	66.76651
474.7007	73.09784
474.8643	72.08456
475.028	68.52901
475.1917	72.42422
475.3553	73.82869
475.519	68.7704
475.6826	71.5423
475.8463	77.11729
476.0099	74.01942
476.1735	68.03071
476.3371	68.26922
476.5007	72.88512
476.6643	68.1445
476.8279	69.00607
476.9915	68.59509
477.1551	73.1124
477.3187	74.66442
477.4823	73.25897
477.6458	72.30906
477.8094	75.75929
477.9729	76.68877
478.1365	78.81422
478.3	78.08904
478.4636	73.855
478.6271	71.97175
478.7906	70.36238
478.9541	72.75872
479.1176	71.7579
479.2812	70.89526
479.4447	75.68183
479.6082	81.44595
479.7716	74.58118
479.9351	71.52247
480.0986	72.57169
480.2621	70.92573
480.4255	74.50853
480.589	69.26008
480.7524	72.01575
480.9159	76.78437
481.0793	74.69342
481.2428	71.00622
481.4062	71.59996
481.5696	75.17122
481.733	69.37753
481.8964	77.158
482.0598	78.5297
482.2232	70.88542
482.3866	72.06617
482.55	69.12491
482.7134	70.90202
482.8768	75.08685
483.0401	76.53893
483.2035	75.97945
483.3668	74.65327
483.5302	74.67426
483.6935	76.25851
483.8568	72.67288
484.0202	72.15605
484.1835	77.04433
484.3468	77.08084
484.5101	74.15847
484.6734	69.2399
484.8367	72.86321
485	69.71554
485.1633	70.98087
485.3266	70.61783
485.4899	69.51427
485.6531	68.13878
485.8164	61.25143
485.9796	65.00262
486.1429	57.38088
486.3061	61.81428
486.4694	67.74229
486.6326	70.26208
486.7958	69.85532
486.959	69.01851
487.1223	66.02323
487.2855	67.53137
487.4486	68.15549
487.6118	69.86923
487.775	74.85082
487.9382	72.0312
488.1014	76.81111
488.2646	78.94116
488.4277	72.72977
488.5909	68.89108
488.754	67.38512
488.9171	69.01946
489.0803	67.68764
489.2434	71.83054
489.4066	73.93668
489.5697	83.3222
489.7328	79.37167
489.8959	82.34907
490.059	77.99969
490.2221	79.38683
490.3852	76.03329
490.5482	74.09432
490.7113	76.42735
490.8744	80.02442
491.0374	80.72931
491.2005	75.84209
491.3636	76.79693
491.5266	78.06431
491.6896	80.63234
491.8527	77.87212
492.0157	68.37989
492.1787	66.03534
492.3417	74.45054
492.5047	80.57575
492.6677	78.10854
492.8307	75.42847
492.9937	81.39224
493.1567	79.12471
493.3196	74.24013
493.4826	72.92514
493.6456	74.67735
493.8085	72.76585
493.9715	75.51899
494.1344	78.43089
494.2974	79.82729
494.4603	81.59826
494.6232	75.05239
494.7861	86.06691
494.949	80.89502
495.1119	74.91736
495.2748	81.77771
495.4377	77.58206
495.6006	74.02716
495.7635	75.33855
495.9264	76.97876
496.0892	75.39274
496.2521	77.12078
496.4149	83.58606
496.5778	85.76295
496.7407	85.1692
496.9035	82.33136
497.0663	80.43041
497.2291	81.90195
497.3919	83.32953
497.5547	83.65254
497.7176	83.09682
497.8804	82.76752
498.0432	81.37771
498.2059	79.2319
498.3687	78.66114
498.5315	84.04609
498.6942	82.58826
498.857	82.22167
499.0198	78.95889
499.1825	85.60359
499.3452	84.65072
499.508	83.60122
499.6707	85.39691
499.8334	79.78912
499.9962	80.84398
500.1589	81.96924
500.3216	84.58195
500.4843	78.20849
500.6469	71.28287
500.8096	81.92953
500.9723	89.21641
501.135	86.17791
501.2976	79.58273
501.4603	81.02114
501.623	82.43692
501.7856	81.36726
501.9482	81.40018
502.1109	90.14698
502.2735	90.95302
502.4361	84.71458
502.5987	86.61486
502.7614	87.54459
502.924	90.77578
503.0865	95.98925
503.2491	90.48409
503.4117	88.94073
503.5743	89.46112
503.7368	90.26396
503.8994	87.49255
504.062	81.89767
504.2245	82.46604
504.3871	87.40976
504.5496	89.11607
504.7121	96.13599
504.8746	95.38758
505.0372	95.82722
505.1997	86.84195
505.3622	92.24119
505.5247	91.25299
505.6872	97.79576
505.8497	101.7097
506.0121	102.4018
506.1746	101.3205
506.3371	98.83625
506.4995	96.61098
506.662	98.99946
506.8244	97.46629
506.9869	97.37309
507.1493	97.49178
507.3117	102.3608
507.4742	101.568
507.6366	94.50982
507.799	99.87624
507.9614	98.95872
508.1238	95.70861
508.2862	98.88079
508.4485	102.3797
508.6109	102.8372
508.7733	103.5474
508.9357	105.5131
509.098	101.7934
509.2604	107.1023
509.4227	110.1521
509.5851	105.6841
509.7474	101.0139
509.9097	102.1761
510.072	107.0271
510.2343	114.7036
510.3966	106.3025
510.5589	110.5206
510.7212	109.725
510.8835	110.1767
511.0458	106.9788
511.2081	114.4551
511.3703	115.8365
511.5326	113.4636
511.6949	116.219
511.8571	112.3336
512.0193	111.192
512.1816	112.1077
512.3438	111.8424
512.506	111.5147
512.6682	111.046
512.8304	115.3564
512.9926	115.3792
513.1548	116.8101
513.317	115.3819
513.4792	113.4148
513.6414	121.8563
513.8035	111.3603
513.9657	113.0301
514.1279	113.2446
514.29	113.6974
514.4521	116.6937
514.6143	115.7489
514.7764	118.4443
514.9385	120.9402
515.1006	121.3169
515.2628	122.2602
515.4249	121.5716
515.587	126.3888
515.7491	126.6235
515.9111	126.7356
516.0732	126.2274
516.2353	131.1509
516.3973	124.1563
516.5594	112.6244
516.7214	102.4833
516.8835	113.1932
517.0455	110.5003
517.2076	111.029
517.3696	109.6601
517.5316	115.3419
517.6937	128.4363
517.8557	133.2669
518.0176	135.2589
518.1796	130.2146
518.3416	113.1506
518.5036	113.1131
518.6656	124.0321
518.8275	139.5315
518.9895	139.6794
519.1514	135.291
519.3134	130.8304
519.4753	131.7224
519.6373	133.364
519.7992	141.4834
519.9611	146.9921
520.123	154.6311
520.2849	149.8405
520.4468	144.2445
520.6087	136.2371
520.7706	139.3819
520.9325	144.2134
521.0944	148.751
521.2562	158.8623
521.4181	156.3008
521.58	151.1219
521.7418	151.2608
521.9036	154.3779
522.0655	164.8853
522.2273	160.8368
522.3891	153.0017
522.551	156.8108
522.7128	159.9804
522.8746	159.8455
523.0363	156.9079
523.1981	161.4899
523.3599	164.291
523.5217	165.0801
523.6835	169.3722
523.8452	176.9654
524.007	172.315
524.1687	179.3735
524.3304	181.5947
524.4922	178.0643
524.6539	179.1105
524.8157	179.9925
524.9774	173.3313
525.1391	175.2423
525.3008	179.7823
525.4625	181.9504
525.6241	184.4798
525.7858	185.4032
525.9475	190.8412
526.1092	185.3053
526.2709	176.8079
526.4325	168.1942
526.5942	162.9234
526.7558	164.3666
526.9174	166.0534
527.079	171.0709
527.2407	176.5977
527.4023	180.7467
527.5639	187.8172
527.7255	195.5832
527.8871	198.0138
528.0487	198.7414
528.2103	191.7729
528.3718	200.5168
528.5334	198.0445
528.695	202.1755
528.8565	215.8074
529.0181	218.9243
529.1796	216.3112
529.3412	210.7471
529.5027	208.2934
529.6642	208.8148
529.8257	200.8988
529.9872	193.5686
530.1487	208.0976
530.3102	215.0233
530.4717	212.8803
530.6332	217.0466
530.7947	214.0892
530.9562	215.9162
531.1176	224.4631
531.2791	220.9473
531.4405	214.5045
531.6019	218.284
531.7634	224.4906
531.9248	228.6121
532.0862	217.6673
532.2477	213.4746
532.4091	211.9954
532.5704	205.8486
532.7319	203.2944
532.8932	196.4751
533.0546	197.8826
533.216	211.3474
533.3774	225.5331
533.5388	215.6069
533.7001	217.2734
533.8615	211.0396
534.0228	207.0605
534.1841	212.2358
534.3455	216.732
534.5068	223.4053
534.6681	215.2522
534.8293	212.4234
534.9907	218.5517
535.152	218.7179
535.3132	222.5944
535.4745	226.7152
535.6358	232.3751
535.7971	225.1295
535.9583	231.1656
536.1196	227.9487
536.2808	228.9156
536.4421	217.3343
536.6033	222.3909
536.7645	216.1113
536.9258	203.0348
537.087	209.4455
537.2482	207.6934
537.4094	214.5239
537.5706	224.7562
537.7318	224.3165
537.8929	226.9169
538.0541	224.0139
538.2153	225.8261
538.3764	221.2609
538.5376	226.7109
538.6987	224.114
538.8599	226.8669
539.021	220.8841
539.1821	223.1799
539.3432	219.8409
539.5043	219.4093
539.6655	209.4281
539.8265	217.2636
539.9876	217.728
540.1487	220.7367
540.3098	216.6022
540.4708	207.9263
540.6319	207.4608
540.793	208.2489
540.954	213.944
541.1151	221.3208
541.2761	222.2898
541.4371	229.2341
541.5981	225.8747
541.7592	215.3621
541.9202	217.609
542.0812	226.1744
542.2422	218.0876
542.4031	220.1996
542.5641	221.554
542.7251	223.2926
542.886	228.6713
543.0471	218.9332
543.208	222.7228
543.369	222.6296
543.5298	220.1357
543.6908	230.6584
543.8517	230.8644
544.0126	230.9849
544.1736	232.5385
544.3345	235.7919
544.4954	226.7269
544.6563	220.6301
544.8171	224.8786
544.978	225.0917
545.1389	238.3733
545.2997	234.3607
545.4606	226.6616
545.6215	223.9958
545.7823	223.5954
545.9432	228.9489
546.104	230.9742
546.2648	227.612
546.4256	224.3313
546.5864	229.6314
546.7473	233.1581
546.908	236.0396
547.0688	229.0417
547.2296	230.7832
547.3904	229.9299
547.5511	224.2959
547.7119	220.0276
547.8727	226.9609
548.0334	228.3845
548.1942	234.3069
548.3549	229.5395
548.5156	227.7248
548.6763	231.7738
548.837	237.2868
548.9977	241.9867
549.1584	236.5663
549.3192	234.7803
549.4798	235.5129
549.6405	243.7906
549.8011	240.4895
549.9619	232.322
550.1225	234.9323
550.2831	237.8927
550.4438	234.5592
550.6044	232.838
550.765	231.0232
550.9257	230.9735
551.0863	230.6074
551.2469	226.9504
551.4075	230.3666
551.5681	231.0777
551.7287	239.2219
551.8893	238.8763
552.0498	242.932
552.2104	241.8855
552.371	239.0427
552.5315	235.079
552.6921	225.8986
552.8526	234.7834
553.0131	221.7342
553.1736	226.7116
553.3342	232.46
553.4947	229.4803
553.6552	226.1075
553.8157	236.9871
553.9762	238.6966
554.1367	231.46
554.2971	231.8268
554.4576	229.8337
554.618	232.3312
554.7785	231.4917
554.939	234.5618
555.0994	241.9108
555.2598	234.1595
555.4203	231.7872
555.5807	224.1749
555.7411	218.4227
555.9015	222.7103
556.0619	227.3457
556.2223	228.7571
556.3827	223.3222
556.5431	224.3831
556.7034	219.646
556.8638	212.8815
557.0242	214.3272
557.1845	215.7029
557.3448	211.3197
557.5052	212.7104
557.6655	219.0547
557.8259	219.2622
557.9861	222.6984
558.1465	222.4792
558.3068	219.71
558.467	215.3029
558.6274	207.1956
558.7877	200.5968
558.9479	204.6813
559.1082	209.3141
559.2684	212.1525
559.4287	211.3865
559.5889	217.8443
559.7491	213.3213
559.9094	206.9922
560.0696	206.6656
560.2299	201.8412
560.3901	203.4778
560.5502	207.9456
560.7104	207.6165
560.8707	218.8455
561.0308	215.9716
561.191	215.25
561.3511	211.314
561.5114	208.2569
561.6714	200.7054
561.8316	197.6401
561.9918	207.3099
562.1519	209.7026
562.312	207.4337
562.4722	200.9376
562.6323	203.8897
562.7924	208.7862
562.9525	206.6809
563.1125	212.2422
563.2726	211.9895
563.4327	202.5408
563.5928	202.2907
563.7528	200.1211
563.9129	198.5417
564.0729	202.1354
564.233	198.6622
564.393	199.6037
564.553	201.8839
564.7131	194.3657
564.873	195.4404
565.0331	198.8836
565.1931	195.8076
565.353	194.4802
565.5131	195.3648
565.673	186.4772
565.833	189.5041
565.9929	187.097
566.1529	187.6231
566.3129	184.3867
566.4728	181.7048
566.6328	188.0204
566.7927	187.4265
566.9526	185.5485
567.1125	187.3087
567.2724	193.2687
567.4323	190.3027
567.5922	192.9128
567.7521	192.1554
567.9119	188.3992
568.0718	182.8897
568.2317	186.004
568.3915	186.8009
568.5514	180.3908
568.7112	176.0245
568.871	179.6126
569.0309	176.7713
569.1907	176.2207
569.3505	178.3643
569.5103	174.6223
569.6701	174.6458
569.8299	175.1058
569.9897	171.9111
570.1495	174.7354
570.3092	174.4401
570.469	172.1275
570.6287	174.9182
570.7885	167.7748
570.9482	162.0467
571.108	161.909
571.2677	164.3872
571.4274	171.2092
571.5871	176.3519
571.7468	180.5199
571.9066	175.2375
572.0662	177.7314
572.2259	174.8496
572.3856	169.5009
572.5452	170.2686
572.7049	173.1867
572.8646	167.3443
573.0242	173.0204
573.1838	175.6075
573.3435	171.4313
573.5031	169.4035
573.6627	169.0086
573.8223	166.8717
573.9819	165.7975
574.1415	162.7273
574.3011	167.0375
574.4607	173.9691
574.6203	168.883
574.7798	159.0536
574.9394	155.5098
575.099	152.4423
575.2585	161.612
575.418	163.4386
575.5776	162.5018
575.7371	158.0584
575.8966	154.8788
576.0562	153.9911
576.2156	153.2056
576.3751	161.1884
576.5346	164.5432
576.6941	164.5313
576.8536	154.6108
577.0131	152.533
577.1725	153.983
577.332	151.2281
577.4914	153.1401
577.6508	150.7879
577.8103	148.8407
577.9697	153.2844
578.1291	147.5343
578.2885	145.7771
578.4479	146.8871
578.6073	152.9248
578.7667	146.3149
578.9261	142.5756
579.0854	146.9698
579.2448	146.4853
579.4042	153.4514
579.5635	151.4941
579.7229	145.7587
579.8822	148.7526
580.0416	150.9484
580.2009	146.6951
580.3602	143.9659
580.5195	146.0825
580.6788	145.7986
580.8381	147.1318
580.9974	147.7532
581.1566	144.8626
581.3159	147.3928
581.4752	146.5982
581.6345	140.6355
581.7937	142.9852
581.9529	138.7171
582.1122	139.6869
582.2714	142.4714
582.4306	141.7393
582.5898	146.0402
582.749	144.4802
582.9082	142.3175
583.0674	145.827
583.2266	142.3698
583.3857	141.1794
583.5449	136.3705
583.7041	130.8514
583.8633	135.9324
584.0224	135.4527
584.1815	133.5076
584.3407	132.3186
584.4998	131.9274
584.6589	136.1795
584.818	135.0326
584.9771	133.756
585.1362	131.4558
585.2953	132.6929
585.4544	137.4656
585.6135	129.009
585.7725	125.8318
585.9316	126.028
586.0906	128.4168
586.2497	130.5263
586.4087	131.9183
586.5677	134.299
586.7267	132.9066
586.8858	130.6804
587.0448	126.4703
587.2038	126.2022
587.3628	125.5442
587.5218	130.3748
587.6807	128.1324
587.8397	123.0279
587.9987	127.2816
588.1577	124.7062
588.3166	124.4959
588.4755	119.0177
588.6345	117.5231
588.7934	119.3029
588.9523	118.5929
589.1112	119.737
589.2701	118.5138
589.429	111.1035
589.5879	112.4895
589.7468	114.14
589.9056	113.7067
590.0645	116.0951
590.2234	120.0686
590.3822	120.8658
590.5411	124.7825
590.6999	124.6634
590.8588	120.7171
591.0176	117.9568
591.1764	119.6427
591.3352	118.7633
591.494	115.7427
591.6528	116.148
591.8116	116.1964
591.9703	112.6576
592.1291	112.8153
592.2878	116.6555
592.4467	112.4616
592.6053	119.7556
592.7641	114.1868
592.9229	119.5244
593.0816	113.9086
593.2403	112.5903
593.399	119.4517
593.5577	120.1217
593.7164	116.4363
593.8751	111.2991
594.0338	113.6691
594.1924	121.552
594.3511	115.2297
594.5098	107.7836
594.6684	111.7492
594.8271	118.077
594.9857	115.5479
595.1443	113.1518
595.303	118.5303
595.4615	123.7832
595.6202	113.3221
595.7787	115.0981
595.9374	112.803
596.0959	115.8739
596.2545	118.0093
596.4131	115.3705
596.5717	112.8126
596.7302	121.617
596.8887	118.125
597.0473	117.8739
597.2058	119.6467
597.3644	116.1998
597.5229	115.7576
597.6814	111.4282
597.8399	116.2272
597.9984	114.8141
598.1569	112.6775
598.3154	111.5163
598.4738	112.1682
598.6323	118.9158
598.7908	113.6449
598.9492	106.8577
599.1076	114.3737
599.2661	112.034
599.4245	111.3098
599.5829	116.2401
599.7413	116.0383
599.8997	118.3478
600.0581	113.3086
600.2165	112.4348
600.3749	117.1296
600.5333	117.6669
600.6917	114.3587
600.85	112.8276
601.0084	114.5139
601.1667	108.3296
601.325	108.9474
601.4833	114.388
601.6417	109.7742
601.8	113.8368
601.9583	111.9996
602.1166	112.9069
602.2749	110.3964
602.4332	113.3783
602.5914	113.5503
602.7498	112.0481
602.908	108.9238
603.0662	112.9635
603.2245	114.8433
603.3828	113.0341
603.541	107.3291
603.6992	114.2282
603.8574	104.9376
604.0156	109.6921
604.1738	112.551
604.332	117.8199
604.4902	112.9794
604.6484	107.6263
604.8065	108.4276
604.9647	107.4573
605.1229	110.0737
605.281	107.0361
605.4391	107.7832
605.5973	107.4942
605.7554	105.7091
605.9135	111.2853
606.0717	110.8862
606.2297	106.8206
606.3878	106.8465
606.5459	103.0296
606.704	105.2758
606.8621	106.9726
607.0201	103.8017
607.1782	109.8778
607.3362	112.4932
607.4943	105.96
607.6523	104.0345
607.8104	109.2139
607.9684	106.5821
608.1264	108.4254
608.2844	103.6153
608.4424	105.9319
608.6003	106.3593
608.7584	103.838
608.9163	97.53831
609.0743	100.6277
609.2322	100.7621
609.3902	103.1107
609.5482	100.8601
609.7061	98.83004
609.864	100.1054
610.0219	100.6378
610.1798	103.1225
610.3377	102.559
610.4956	97.04607
610.6535	98.05064
610.8114	97.14083
610.9693	97.78802
611.1271	92.73661
611.285	97.49186
611.4429	96.39324
611.6007	99.67961
611.7585	95.0755
611.9164	94.82404
612.0742	98.21045
612.232	94.16017
612.3898	97.76808
612.5476	100.0595
612.7054	98.95235
612.8632	97.70744
613.0209	95.26917
613.1787	104.1448
613.3365	98.2011
613.4942	96.48649
613.652	95.75068
613.8097	92.6414
613.9674	96.30067
614.1252	96.7856
614.2829	95.94165
614.4406	96.55206
614.5983	97.216
614.756	94.81802
614.9136	93.20681
615.0714	93.66547
615.229	91.63646
615.3867	94.11633
615.5443	91.6443
615.702	87.15318
615.8596	90.97229
616.0172	90.39019
616.1748	88.90659
616.3325	91.1069
616.4901	84.43867
616.6476	85.21746
616.8052	85.79457
616.9628	89.34592
617.1204	88.76647
617.278	88.70457
617.4355	98.99986
617.5931	92.17812
617.7506	100.9661
617.9081	89.92132
618.0657	87.90469
618.2232	83.2603
618.3807	90.2331
618.5382	93.85861
618.6957	87.73883
618.8532	87.06503
619.0107	91.00006
619.1682	85.84976
619.3256	89.77879
619.4831	87.63964
619.6406	88.775
619.798	83.07533
619.9554	84.31974
620.1129	93.07578
620.2703	91.42737
620.4277	85.88
620.5851	87.50922
620.7425	85.88073
620.8998	90.89771
621.0573	89.7185
621.2146	89.33659
621.372	87.01952
621.5294	86.97114
621.6867	89.93894
621.8441	86.2384
622.0013	88.71313
622.1587	87.25439
622.316	85.81618
622.4733	83.93699
622.6306	86.87086
622.7879	90.41305
622.9452	85.12052
623.1025	83.01034
623.2598	81.90578
623.4171	80.67638
623.5743	80.40898
623.7316	83.9253
623.8888	84.25305
624.046	80.26471
624.2032	85.28379
624.3605	83.57434
624.5176	76.63078
624.6749	84.7194
624.8321	85.4696
624.9893	83.32399
625.1464	84.98954
625.3036	84.4957
625.4608	80.58469
625.6179	81.16132
625.7751	82.02125
625.9322	85.06884
626.0894	84.78548
626.2465	83.49832
626.4036	87.4749
626.5607	80.09793
626.7178	82.22698
626.8749	85.97147
627.032	83.53363
627.189	79.61761
627.3461	78.3017
627.5032	81.50314
627.6602	79.89138
627.8173	76.53591
627.9743	76.9775
628.1313	75.70529
628.2884	80.31281
628.4454	83.80329
628.6024	84.25056
628.7594	85.05225
628.9164	86.73
629.0734	84.80758
629.2303	78.53847
629.3873	81.55849
629.5443	86.13132
629.7012	87.2832
629.8582	75.81049
630.0151	79.60032
630.172	80.39644
630.3289	79.98201
630.4858	77.29628
630.6428	79.95704
630.7996	79.67111
630.9565	81.98075
631.1134	78.9349
631.2703	84.33405
631.4272	82.39039
631.584	79.16383
631.7408	79.19991
631.8977	80.03763
632.0546	80.45766
632.2114	79.27259
632.3682	80.94969
632.525	85.6132
632.6818	84.48778
632.8386	80.48278
632.9954	80.69003
633.1522	80.86778
633.3089	76.89862
633.4657	78.17294
633.6224	70.49682
633.7792	76.89505
633.9359	79.37446
634.0927	76.90135
634.2494	81.86823
634.4061	80.1692
634.5628	80.14007
634.7195	76.82732
634.8762	77.84303
635.0329	80.19769
635.1895	74.51242
635.3462	74.58215
635.5029	80.67839
635.6595	80.91194
635.8162	82.42966
635.9728	77.06137
636.1295	83.1543
636.2861	76.33627
636.4427	75.43004
636.5992	78.72446
636.7559	77.85194
636.9124	75.24924
637.069	73.9174
637.2256	81.34827
637.3821	77.60593
637.5387	71.66576
637.6953	73.16972
637.8518	74.32619
638.0084	77.45702
638.1649	74.27396
638.3214	79.95872
638.4779	76.50449
638.6344	73.82257
638.7909	74.64682
638.9474	81.22877
639.1038	79.0582
639.2603	78.9751
639.4167	75.13496
639.5732	72.25468
639.7297	73.36587
639.8861	76.57329
640.0425	70.58852
640.199	69.41101
640.3553	70.6991
640.5118	75.51708
640.6682	74.6675
640.8245	71.59641
640.981	67.34741
641.1373	70.29827
641.2936	73.00999
641.45	72.68171
641.6064	71.926
641.7627	69.51406
641.9191	62.69225
642.0754	64.97906
642.2317	68.07333
642.388	68.42126
642.5443	70.3445
642.7006	68.85966
642.8569	70.6824
643.0131	69.73981
643.1694	59.96934
643.3257	67.48804
643.4819	65.49081
643.6382	64.04425
643.7944	65.85667
643.9506	70.23344
644.1069	70.63706
644.2631	64.36269
644.4193	61.8375
644.5754	60.76664
644.7316	69.15438
644.8878	68.97094
645.044	66.07664
645.2002	73.16343
645.3563	68.87157
645.5125	66.05063
645.6686	66.49256
645.8248	64.07957
645.9809	63.29264
646.137	63.28087
646.2931	63.48174
646.4492	67.87986
646.6053	66.1544
646.7614	62.05381
646.9174	64.83316
647.0735	67.36781
647.2296	64.37589
647.3856	60.91999
647.5417	60.10309
647.6977	64.5001
647.8537	58.62201
648.0098	53.63058
648.1658	64.69292
648.3218	62.27585
648.4777	62.41573
648.6337	58.43193
648.7897	59.39991
648.9457	65.20034
649.1016	62.26775
649.2576	58.11187
649.4135	56.31502
649.5695	53.38773
649.7254	56.38667
649.8813	57.84754
650.0372	59.49814
650.1932	58.84111
650.3491	62.5986
650.5049	60.98586
650.6608	60.51834
650.8167	56.51781
650.9725	59.30253
651.1284	61.64383
651.2842	60.75733
651.4401	54.68242
651.5959	56.36065
651.7518	55.48294
651.9076	56.34788
652.0634	54.51002
652.2192	57.82925
652.3749	55.59918
652.5308	60.01901
652.6865	57.05564
652.8423	57.10168
652.998	54.57538
653.1538	52.57064
653.3096	56.25444
653.4653	54.55309
653.621	52.50818
653.7767	54.9837
653.9324	56.57942
654.0881	59.06039
654.2438	62.17469
654.3995	64.52354
654.5552	62.2301
654.7109	57.79655
654.8665	56.1113
655.0222	61.94059
655.1778	59.19809
655.3334	58.29436
655.4891	59.61613
655.6447	56.53182
655.8003	59.68931
655.9559	53.56791
656.1115	51.48184
656.2671	49.46348
656.4227	47.55298
656.5782	48.9306
656.7338	46.8747
656.8893	46.98851
657.0449	52.7793
657.2004	50.80336
657.356	55.08887
657.5115	54.35512
657.667	56.9897
657.8225	51.99348
657.978	59.65899
658.1335	58.08698
658.289	58.83183
658.4445	59.61652
658.5999	54.05031
658.7554	59.82123
658.9108	54.95509
659.0663	58.87181
659.2217	54.55354
659.3771	51.45784
659.5325	50.64561
659.6879	54.52029
659.8433	52.1338
659.9987	49.9897
660.1541	56.08144
660.3095	63.56278
660.4648	54.65619
660.6202	51.05563
660.7756	51.06983
660.9309	54.38646
661.0862	54.22575
661.2416	54.26655
661.3969	53.97982
661.5522	52.59801
661.7075	53.99182
661.8628	54.23058
662.0181	52.84471
662.1733	49.88478
662.3286	47.45522
662.4839	55.84272
662.6391	48.18813
662.7944	46.55851
662.9496	48.55069
663.1048	52.94408
663.26	47.90681
663.4152	48.65853
663.5704	49.85429
663.7256	56.00172
663.8808	51.21255
664.036	54.69505
664.1912	53.71367
664.3463	51.91621
664.5015	51.8732
664.6566	46.44447
664.8118	46.56422
664.9669	50.77351
665.122	49.02236
665.2771	52.9838
665.4322	52.92873
665.5873	47.27108
665.7424	51.02457
665.8975	49.69256
666.0526	46.01789
666.2076	44.23688
666.3627	46.39724
666.5177	45.90928
666.6727	56.22787
666.8278	55.03877
666.9828	49.43246
667.1378	47.59161
667.2928	45.5275
667.4478	50.98326
667.6028	47.55032
667.7578	46.12437
667.9127	48.93157
668.0677	48.83181
668.2226	47.17818
668.3776	51.65998
668.5325	50.30064
668.6874	46.58866
668.8423	47.19227
668.9973	48.66551
669.1522	48.00032
669.3071	51.65784
669.4619	50.94255
669.6168	48.31524
669.7717	53.0592
669.9265	47.00822
670.0814	48.10765
670.2362	47.24686
670.3911	43.01614
670.5459	45.06349
670.7007	45.92358
670.8555	50.70308
671.0103	44.36466
671.1651	43.79008
671.3199	40.50061
671.4747	47.45599
671.6295	48.05466
671.7842	43.07188
671.939	44.68292
672.0937	44.09688
672.2484	41.36062
672.4031	42.9559
672.5579	44.56011
672.7126	48.89319
672.8673	46.52596
673.022	47.30732
673.1767	45.49812
673.3314	46.91251
673.486	47.27478
673.6407	44.23829
673.7953	43.84405
673.95	46.12392
674.1046	51.24683
674.2592	48.13026
674.4138	47.87988
674.5684	50.24951
674.723	46.03233
674.8776	43.63256
675.0322	42.87376
675.1868	43.84829
675.3414	42.0526
675.4959	48.62022
675.6505	47.74884
675.805	40.12965
675.9595	46.05277
676.1141	46.98201
676.2686	47.6699
676.4231	45.87895
676.5776	37.56648
676.7321	40.35534
676.8866	42.07771
677.041	41.97284
677.1955	45.4267
677.35	51.65967
677.5044	50.95111
677.6589	47.73632
677.8133	43.63192
677.9677	43.19076
678.1221	36.23159
678.2766	44.71324
678.4309	44.65372
678.5853	46.76731
678.7397	42.52131
678.8941	45.99075
679.0485	41.85323
679.2028	41.55532
679.3571	44.19133
679.5115	43.53902
679.6658	39.85889
679.8201	42.81961
679.9744	44.93702
680.1288	42.56865
680.2831	42.05992
680.4373	45.48526
680.5916	49.18126
680.7459	46.1953
680.9001	42.1619
681.0544	47.60421
681.2087	45.83597
681.3629	42.92932
681.5171	45.22102
681.6713	43.5207
681.8256	44.47885
681.9797	42.46277
682.134	45.02638
682.2881	47.65399
682.4423	46.24681
682.5965	43.39218
682.7507	41.46268
682.9048	42.57803
683.059	44.06413
683.2131	46.74387
683.3672	52.37841
683.5213	45.45443
683.6754	42.70368
683.8295	40.05787
683.9836	47.45201
684.1377	41.56879
684.2918	47.53324
684.4459	46.41138
684.5999	46.10339
684.754	41.55872
684.908	51.69081
685.062	48.00919
685.2161	48.31356
685.3701	44.73055
685.5241	41.89287
685.6781	40.70918
685.8321	41.19101
685.9861	43.12997
686.14	41.64509
686.294	42.89733
686.4479	45.90836
686.6019	47.40028
686.7559	47.81021
686.9098	41.69951
687.0637	39.10017
687.2176	41.56841
687.3715	44.42082
687.5254	46.01598
687.6793	44.94226
687.8332	43.51154
687.9871	37.94365
688.1409	40.83487
688.2947	48.49559
688.4486	45.20623
688.6024	50.93226
688.7563	49.58331
688.9101	49.65439
689.0639	40.76303
689.2177	35.37203
689.3715	46.3684
689.5253	42.70267
689.6791	46.029
689.8328	45.26984
689.9866	42.18022
690.1403	49.62379
690.2941	48.57234
690.4478	49.4034
690.6015	52.93788
690.7552	51.78314
690.9089	46.20636
691.0626	50.49067
691.2164	50.67356
691.37	51.67983
691.5237	44.12374
691.6774	48.29224
691.831	53.46179
691.9847	49.17395
692.1383	51.50265
692.2919	55.60833
692.4456	55.67543
692.5992	54.94985
692.7527	47.25168
692.9064	54.13116
693.0599	53.75769
693.2136	52.46718
693.3671	57.46466
693.5207	53.60672
693.6742	52.27451
693.8278	58.65513
693.9813	54.76297
694.1348	49.62827
694.2883	54.16301
694.4418	57.18255
694.5953	61.08677
694.7488	64.62962
694.9023	60.37498
695.0558	60.07866
695.2093	60.15811
695.3627	58.6764
695.5162	63.67821
695.6696	57.06085
695.8231	59.81368
695.9764	64.30817
696.1299	63.91745
696.2833	67.04486
696.4367	66.61065
696.5901	66.42752
696.7435	68.49158
696.8968	71.66707
697.0502	69.84154
697.2036	70.53346
697.3569	68.07167
697.5102	69.73393
697.6635	67.62564
697.8168	67.30915
697.9702	70.88033
698.1235	75.06641
698.2768	74.91271
698.4301	74.39678
698.5833	78.90575
698.7366	76.93173
698.8898	67.25007
699.0431	74.45918
699.1964	72.30325
699.3495	73.81277
699.5028	77.42024
699.656	78.78133
699.8092	76.43112
699.9624	78.14804
700.1156	79.32009
700.2688	81.47607
700.4219	79.95929
700.5751	78.74819
700.7283	79.61452
700.8814	78.73045
701.0345	83.48544
701.1877	83.54243
701.3408	81.96136
701.4939	81.0601
701.647	85.56853
701.8001	85.92216
701.9532	90.12939
702.1063	90.18609
702.2593	89.70089
702.4124	92.2703
702.5654	93.49947
702.7184	91.50779
702.8715	88.71381
703.0245	92.07069
703.1776	96.04951
703.3305	98.4201
703.4835	96.66306
703.6365	94.97955
703.7895	95.35641
703.9424	100.7031
704.0954	104.6694
704.2484	101.272
704.4013	103.507
704.5543	101.2241
704.7072	107.2222
704.8601	107.5413
705.013	104.2854
705.1659	104.1767
705.3188	104.6227
705.4717	107.032
705.6246	105.625
705.7774	106.6352
705.9303	103.2962
706.0831	107.798
706.236	107.4454
706.3888	110.9365
706.5416	111.7702
706.6944	106.6984
706.8472	110.8295
707	119.1225
707.1528	121.6631
707.3056	116.873
707.4583	119.1047
707.6111	129.0723
707.7639	118.7234
707.9166	120.3417
708.0693	123.1679
708.222	124.7536
708.3748	122.4454
708.5275	120.4361
708.6802	117.302
708.8328	121.5272
708.9855	120.846
709.1382	120.4641
709.2909	121.5489
709.4435	126.2501
709.5962	126.5869
709.7488	127.8956
709.9014	126.9292
710.054	126.0831
710.2067	130.3893
710.3593	130.7733
710.5118	127.9974
710.6644	134.2668
710.817	130.8704
710.9695	126.8132
711.1221	130.7309
711.2747	130.7981
711.4272	131.3072
711.5797	135.6785
711.7322	132.5181
711.8848	135.267
712.0373	130.7986
712.1898	138.1272
712.3422	136.3046
712.4948	135.9148
712.6472	136.0921
712.7996	140.5829
712.9521	136.139
713.1046	137.8773
713.257	134.3882
713.4094	134.8261
713.5618	145.216
713.7142	140.4722
713.8666	143.6139
714.019	143.6526
714.1714	145.9359
714.3237	148.424
714.4761	139.4409
714.6285	137.9539
714.7808	144.1943
714.9331	138.6386
715.0854	142.3741
715.2378	144.2592
715.3901	149.2787
715.5424	149.1062
715.6947	147.7035
715.8469	151.8609
715.9992	153.6496
716.1515	153.8998
716.3037	142.0856
716.456	145.6161
716.6082	140.2007
716.7604	140.3934
716.9127	137.3978
717.0649	136.2113
717.2171	139.3998
717.3693	133.3422
717.5214	122.0248
717.6736	126.886
717.8258	127.6269
717.978	127.2442
718.1301	134.8296
718.2822	136.5286
718.4344	134.3857
718.5865	130.7419
718.7386	127.1731
718.8907	133.1566
719.0428	136.509
719.1949	138.5807
719.3469	130.5047
719.499	138.7232
719.6511	140.7119
719.8031	136.6879
719.9551	144.3144
720.1072	136.6046
720.2592	134.2838
720.4112	141.5354
720.5632	138.0862
720.7152	140.0139
720.8672	147.751
721.0192	150.2652
721.1711	161.2381
721.3231	167.6213
721.475	169.4864
721.627	167.2839
721.7789	169.1357
721.9308	164.9166
722.0828	169.8016
722.2347	166.4732
722.3866	160.4399
722.5385	163.7411
722.6903	162.9457
722.8422	174.4072
722.9941	170.8386
723.1459	164.3193
723.2977	156.9835
723.4496	154.4399
723.6014	153.3999
723.7532	164.657
723.905	164.2433
724.0568	158.8136
724.2086	157.961
724.3604	156.7973
724.5121	162.467
724.6639	165.5786
724.8157	171.2901
724.9674	176.8245
725.1191	168.0844
725.2709	162.4445
725.4226	162.4277
725.5743	166.419
725.726	167.0141
725.8777	172.1195
726.0294	173.1714
726.181	169.1686
726.3327	168.0499
726.4844	164.3106
726.636	174.1673
726.7877	181.6574
726.9393	190.3837
727.0909	189.6049
727.2425	182.8455
727.3941	175.5701
727.5457	169.5955
727.6973	164.0176
727.8488	169.8143
728.0004	175.3199
728.1519	184.8984
728.3035	191.813
728.455	192.2667
728.6066	197.0882
728.7581	192.8195
728.9095	175.0503
729.0611	178.5369
729.2126	180.8571
729.364	177.1143
729.5155	188.0686
729.667	194.2233
729.8184	200.7375
729.9698	197.6621
730.1213	192.6573
730.2727	188.379
730.4241	189.3103
730.5756	193.2188
730.7269	195.9598
730.8784	197.5451
731.0297	190.3468
731.1811	189.416
731.3325	200.5958
731.4838	204.3777
731.6351	197.908
731.7865	200.7616
731.9378	199.493
732.0891	206.9375
732.2404	213.9515
732.3917	212.586
732.543	210.7332
732.6943	211.2671
732.8456	218.0472
732.9968	218.3645
733.1481	216.9211
733.2993	218.7525
733.4506	218.227
733.6018	220.1418
733.753	226.5179
733.9042	229.9228
734.0554	227.5626
734.2066	227.6863
734.3578	228.8961
734.509	228.0556
734.6602	230.238
734.8113	224.1918
734.9624	218.0751
735.1136	224.1913
735.2647	227.7421
735.4158	226.9303
735.5669	229.9752
735.718	225.6086
735.8691	226.0875
736.0201	231.6416
736.1713	222.591
736.3223	229.4231
736.4733	233.4069
736.6244	233.5951
736.7755	231.5462
736.9265	232.9852
737.0775	239.5861
737.2285	236.0119
737.3795	231.9596
737.5305	242.8335
737.6815	245.5835
737.8324	244.8015
737.9834	241.7756
738.1343	237.143
738.2853	233.1285
738.4362	224.7103
738.5871	230.2484
738.738	233.7651
738.8889	232.6092
739.0399	234.1014
739.1907	234.7508
739.3416	234.1553
739.4925	236.121
739.6433	237.257
739.7942	240.4632
739.945	243.2522
740.0958	237.8256
740.2467	242.6326
740.3975	243.7813
740.5483	242.2611
740.6991	238.2343
740.8499	233.3334
741.0007	233.5855
741.1514	235.5905
741.3022	235.312
741.4529	241.2029
741.6036	237.4281
741.7544	238.4281
741.9051	237.9273
742.0558	240.3769
742.2065	239.1445
742.3572	237.2916
742.5079	239.7274
742.6586	243.7406
742.8093	242.5054
742.9599	237.2106
743.1105	242.1046
743.2612	246.111
743.4118	248.6219
743.5624	247.2987
743.7131	247.7504
743.8636	247.3865
744.0142	238.9997
744.1648	244.0389
744.3154	247.2659
744.4659	254.0835
744.6165	242.2697
744.767	239.8628
744.9176	246.957
745.0681	251.3561
745.2186	246.479
745.3691	244.5629
745.5197	245.1557
745.6702	248.3762
745.8206	242.2709
745.9711	243.5796
746.1215	242.2614
746.272	250.7552
746.4224	244.1105
746.5729	237.6999
746.7233	240.769
746.8737	245.5346
747.0241	240.3245
747.1745	243.7418
747.3249	248.187
747.4753	243.9328
747.6257	233.192
747.776	239.9376
747.9264	240.4525
748.0767	240.3103
748.2271	242.7459
748.3774	240.0345
748.5276	254.4233
748.678	245.2008
748.8282	234.7821
748.9786	241.1761
749.1288	244.4431
749.2791	236.2164
749.4294	235.154
749.5796	233.7504
749.7299	232.9475
749.8801	239.6009
750.0303	240.6685
750.1805	235.901
750.3307	237.004
750.4809	243.4714
750.6311	233.8733
750.7813	231.7456
750.9314	231.91
751.0816	230.148
751.2318	223.5288
751.3818	236.0722
751.532	233.7534
751.6821	233.7248
751.8322	237.0995
751.9823	231.08
752.1324	230.0983
752.2825	225.3376
752.4326	224.2492
752.5826	229.8758
752.7327	232.2678
752.8827	228.3435
753.0327	225.9656
753.1827	231.4237
753.3328	234.3447
753.4828	235.6688
753.6328	226.3255
753.7828	232.3766
753.9327	232.7217
754.0827	230.0078
754.2327	226.5537
754.3826	222.9962
754.5325	226.9212
754.6825	230.4459
754.8324	226.8694
754.9823	223.451
755.1322	230.5415
755.2821	227.4109
755.432	228.1808
755.5818	219.4883
755.7318	217.778
755.8816	214.0393
756.0314	216.9682
756.1813	220.8586
756.3311	221.2232
756.4809	224.7988
756.6307	215.2814
756.7805	218.2625
756.9303	212.2069
757.0801	216.9964
757.2299	213.5538
757.3796	215.7324
757.5294	212.4716
757.6791	219.045
757.8289	217.8344
757.9786	218.3271
758.1283	214.3334
758.278	204.6353
758.4277	213.2314
758.5773	208.1165
758.7271	208.3228
758.8767	209.5573
759.0264	208.8533
759.176	198.8944
759.3256	184.1757
759.4753	150.5278
759.6249	117.0506
759.7745	96.07481
759.9241	77.65141
760.0737	68.20395
760.2233	62.87183
760.3729	59.05503
760.5224	51.84459
760.6719	53.99365
760.8215	57.20511
760.971	61.03243
761.1205	64.14436
761.2701	74.4134
761.4196	86.32561
761.5691	101.8611
761.7186	125.1955
761.868	140.587
762.0175	141.6194
762.167	130.0503
762.3164	112.0151
762.4659	104.6527
762.6153	99.28941
762.7647	93.04301
762.9141	93.33398
763.0635	95.75795
763.2129	95.393
763.3623	90.82157
763.5117	102.5623
763.661	104.1366
763.8104	102.1342
763.9597	105.572
764.1091	114.2798
764.2584	111.4803
764.4077	122.0972
764.557	122.2747
764.7063	121.2575
764.8556	126.0319
765.0049	132.277
765.1541	137.6071
765.3034	137.0678
765.4526	143.8371
765.6019	140.9526
765.7511	141.4731
765.9003	146.3054
766.0496	141.4277
766.1987	148.3232
766.348	152.6775
766.4971	159.7473
766.6463	154.1958
766.7955	160.9631
766.9446	165.9893
767.0938	165.9547
767.2429	168.6062
767.392	174.5229
767.5411	171.0526
767.6902	169.9807
767.8394	168.6531
767.9884	176.0952
768.1375	178.8899
768.2866	173.1491
768.4356	175.2436
768.5847	169.7169
768.7337	174.8896
768.8828	177.828
769.0317	166.6831
769.1808	174.2503
769.3298	180.4805
769.4788	176.8142
769.6277	174.5637
769.7767	170.0153
769.9257	175.5642
770.0746	172.2258
770.2236	172.5906
770.3725	184.3857
770.5214	184.505
770.6703	176.8921
770.8193	172.0456
770.9681	173.4613
771.1171	170.6007
771.2659	168.4003
771.4148	174.5862
771.5637	174.1698
771.7125	170.4989
771.8613	178.0504
772.0101	174.6775
772.159	171.5204
772.3078	173.417
772.4566	175.3811
772.6054	175.144
772.7542	170.8456
772.903	169.271
773.0517	170.4037
773.2004	171.3014
773.3492	173.7351
773.4979	172.7855
773.6467	172.0932
773.7953	171.1888
773.944	165.0635
774.0928	164.616
774.2415	167.7374
774.3901	168.16
774.5388	167.3488
774.6874	166.807
774.8361	156.8989
774.9847	160.9489
775.1334	164.3487
775.282	166.6534
775.4305	172.423
775.5792	168.5354
775.7277	167.0519
775.8763	161.9008
776.0249	171.8353
776.1735	170.4984
776.322	175.2531
776.4705	170.9288
776.6191	171.6367
776.7676	169.7534
776.9161	166.2983
777.0646	163.9272
777.2131	161.267
777.3616	155.0832
777.5101	154.594
777.6585	156.7708
777.8069	159.3023
777.9554	157.4868
778.1038	155.9579
778.2523	156.2611
778.4007	166.9726
778.5491	160.989
778.6974	158.1877
778.8459	159.1324
778.9942	161.8411
779.1426	165.9172
779.291	161.9454
779.4393	154.3584
779.5876	160.3163
779.736	162.253
779.8843	157.6277
780.0326	157.3318
780.1809	159.5217
780.3292	155.151
780.4775	158.707
780.6257	156.2781
780.774	160.1348
780.9222	155.5415
781.0704	157.6014
781.2187	157.3636
781.3669	162.9769
781.5151	159.9059
781.6633	154.1237
781.8115	156.9346
781.9597	152.4432
782.1078	155.1175
782.256	157.7137
782.4042	161.2993
782.5523	154.1966
782.7004	153.9869
782.8486	153.1517
782.9967	155.3199
783.1448	151.558
783.2929	150.5517
783.441	152.6122
783.5891	152.3905
783.7371	149.1883
783.8851	152.4653
784.0332	156.8238
784.1812	162.3274
784.3293	151.9655
784.4773	145.419
784.6253	152.6749
784.7733	152.2776
784.9213	151.2891
785.0692	148.9816
785.2172	142.7555
785.3652	145.7673
785.5131	153.2448
785.6611	149.9422
785.809	154.923
785.9569	153.6935
786.1048	151.2825
786.2527	150.8752
786.4006	146.7691
786.5485	147.1391
786.6964	145.886
786.8442	146.333
786.9921	143.1226
787.1399	147.6198
787.2877	144.1123
787.4355	145.3099
787.5833	146.1358
787.7311	150.3633
787.8789	137.1438
788.0267	137.6653
788.1745	139.1031
788.3223	147.1294
788.47	141.5169
788.6177	143.0818
788.7654	144.3227
788.9132	139.7262
789.0609	142.0013
789.2086	138.5757
789.3563	132.827
789.504	135.0717
789.6517	140.0241
789.7993	134.7177
789.947	133.2535
790.0946	139.3517
790.2422	140.3374
790.3898	141.4098
790.5375	139.0789
790.6851	146.8752
790.8326	138.021
790.9802	139.9916
791.1278	138.5482
791.2754	137.1137
791.423	141.0917
791.5705	133.9101
791.718	133.7612
791.8655	135.5376
792.0131	145.8968
792.1606	140.7764
792.308	135.6403
792.4556	132.5466
792.603	129.0087
792.7505	137.664
792.8979	132.4011
793.0454	128.9962
793.1928	133.666
793.3403	132.8055
793.4877	132.4891
793.6351	133.9355
793.7825	140.6539
793.9299	136.7614
794.0772	139.6827
794.2246	131.5932
794.3719	136.3173
794.5193	131.7139
794.6666	128.9039
794.814	131.0906
794.9613	133.4204
795.1086	127.8245
795.2559	132.4743
795.4032	127.6134
795.5505	137.2426
795.6978	132.6138
795.845	130.222
795.9922	129.1692
796.1395	132.0992
796.2867	125.2459
796.4339	123.6065
796.5811	129.6835
796.7283	126.7967
796.8755	133.3811
797.0227	131.34
797.1699	128.5625
797.317	125.9549
797.4642	129.6628
797.6113	129.8763
797.7584	130.9809
797.9056	127.6201
798.0527	128.1116
798.1998	129.6929
798.3469	136.1874
798.494	133.0268
798.641	127.5874
798.7881	126.353
798.9351	126.6263
799.0822	122.9471
799.2292	126.3718
799.3762	125.4357
799.5232	126.7601
799.6702	124.3197
799.8172	115.5276
799.9642	118.0128
800.1111	115.7483
800.2581	119.887
800.4051	117.4358
800.552	122.0583
800.6989	119.3119
800.8458	113.5473
800.9927	121.5864
801.1396	116.2243
801.2866	118.0139
801.4334	119.8975
801.5803	120.2696
801.7272	124.9708
801.874	121.7554
802.0209	119.8345
802.1677	118.7809
802.3145	118.476
802.4613	113.0419
802.6081	109.8703
802.7549	117.5849
802.9017	111.7812
803.0485	113.3218
803.1952	117.9339
803.342	116.5708
803.4887	115.8882
803.6354	116.6406
803.7822	118.3211
803.9289	118.8535
804.0756	120.7055
804.2223	120.7118
804.369	113.3623
804.5156	110.3781
804.6623	107.4345
804.8089	115.4143
804.9556	120.5113
805.1022	121.7756
805.2488	116.1054
805.3954	114.8516
805.542	114.6452
805.6886	116.8352
805.8352	116.5269
805.9818	115.6482
806.1283	111.6749
806.2749	113.2077
806.4214	109.3065
806.5679	111.012
806.7145	114.9176
806.861	115.3206
807.0074	115.3926
807.154	112.9819
807.3004	111.0996
807.4469	113.286
807.5934	113.9204
807.7398	116.1777
807.8862	112.5455
808.0327	111.024
808.1791	109.4156
808.3255	104.0843
808.4719	104.8957
808.6183	107.1693
808.7647	107.5535
808.9111	108.0568
809.0574	107.1348
809.2037	106.6512
809.3501	109.8145
809.4965	101.3061
809.6428	103.2728
809.7891	106.9089
809.9354	104.7393
810.0817	101.1884
810.2279	102.3365
810.3742	100.4896
810.5204	104.6357
810.6667	109.4979
810.8129	104.3776
810.9592	102.573
811.1054	94.49174
811.2516	93.54557
811.3978	101.2624
811.5439	105.0247
811.6901	104.3909
811.8363	106.4595
811.9825	101.5919
812.1286	101.1814
812.2748	98.00353
812.4209	98.53022
812.567	97.66956
812.7131	94.22617
812.8592	94.31749
813.0053	92.90159
813.1514	91.67214
813.2974	91.18877
813.4435	91.4118
813.5895	82.71401
813.7356	88.6174
813.8816	88.08875
814.0276	85.66924
814.1736	84.22183
814.3196	84.19389
814.4656	80.454
814.6116	83.21432
814.7576	79.86005
814.9035	77.51238
815.0494	82.47938
815.1954	80.57021
815.3413	82.56293
815.4872	82.34471
815.6331	84.21351
815.779	86.98675
815.9249	82.90764
816.0707	79.51009
816.2166	73.50302
816.3625	68.35568
816.5083	73.32874
816.6542	73.50723
816.8	72.69154
816.9458	74.90176
817.0916	76.02435
817.2374	84.19778
817.3832	88.55026
817.5289	84.28734
817.6747	75.85
817.8204	71.2565
817.9662	71.98143
818.1119	76.08401
818.2576	79.9593
818.4034	81.24606
818.5491	80.57467
818.6948	80.04616
818.8405	74.75136
818.9861	75.01729
819.1318	75.61561
819.2774	73.94942
819.423	71.97571
819.5687	70.71537
819.7143	73.80904
819.8599	72.22287
820.0055	72.28783
820.1511	76.59011
820.2967	80.63191
820.4422	84.94547
820.5878	89.80885
820.7333	87.20313
820.8788	88.65695
821.0244	81.73924
821.1699	82.35871
821.3154	82.71122
821.4609	79.90609
821.6064	82.99218
821.7519	80.30176
821.8973	79.94061
822.0428	76.32602
822.1882	74.59341
822.3337	69.71201
822.4791	65.54733
822.6245	63.79177
822.7699	58.34161
822.9153	57.06618
823.0607	52.71896
823.2061	56.01965
823.3514	59.48669
823.4968	64.2805
823.6422	70.81996
823.7875	73.53214
823.9328	77.15636
824.0781	75.49667
824.2234	75.16355
824.3687	72.87182
824.514	75.56615
824.6592	82.88714
824.8045	83.26506
824.9498	86.41796
825.095	81.30628
825.2402	80.61044
825.3854	78.1246
825.5306	75.13298
825.6758	70.94616
825.821	69.6072
825.9662	70.38682
826.1114	75.3021
826.2565	76.76112
826.4017	78.80281
826.5468	76.93382
826.692	78.35973
826.837	80.1826
826.9822	76.58691
827.1273	76.29285
827.2723	71.69551
827.4174	69.77493
827.5625	68.2427
827.7075	66.03789
827.8526	70.86264
827.9976	76.55463
828.1426	69.66722
828.2877	65.70996
828.4327	76.27501
828.5776	70.39452
828.7227	71.06363
828.8676	69.93817
829.0126	71.65023
829.1575	67.79716
829.3024	70.71626
829.4474	69.85709
829.5923	67.55886
829.7372	69.94085
829.8821	71.68284
830.027	70.87498
830.1719	70.25227
830.3168	68.81898
830.4616	64.01617
830.6064	66.00186
830.7513	67.92892
830.8961	75.18246
831.041	73.50935
831.1857	71.32283
831.3306	68.25159
831.4753	75.3847
831.6201	69.88
831.7649	69.07366
831.9096	66.19657
832.0544	67.07706
832.1991	66.47852
832.3438	68.29996
832.4885	74.50702
832.6332	69.84921
832.778	64.88958
832.9226	65.89705
833.0673	66.85872
833.2119	71.16537
833.3566	70.34731
833.5012	71.01816
833.6459	70.31561
833.7905	71.71287
833.9351	68.47885
834.0797	71.89961
834.2243	67.1683
834.3688	66.25939
834.5134	67.82332
834.658	67.75781
834.8026	73.93792
834.9471	71.85764
835.0916	68.65383
835.2361	75.20995
835.3806	72.17106
835.5251	74.63262
835.6696	70.49033
835.8141	72.44837
835.9586	74.62264
836.103	70.88924
836.2474	72.42406
836.3918	69.86289
836.5363	68.35454
836.6807	68.94941
836.8251	79.05977
836.9695	71.971
837.1138	70.08311
837.2582	67.99943
837.4026	72.4114
837.5469	66.09901
837.6913	72.06403
837.8356	73.57124
837.9799	66.53469
838.1242	65.83872
838.2686	65.44576
838.4128	67.65324
838.5571	70.80771
838.7014	70.9525
838.8456	71.16925
838.9899	69.44489
839.1341	66.50387
839.2783	68.59428
839.4225	64.76701
839.5667	70.76462
839.7109	74.56046
839.8551	75.09866
839.9993	71.80467
840.1434	73.03624
840.2876	74.09055
840.4317	67.44919
840.5759	69.90428
840.72	69.6409
840.8641	67.4619
841.0082	67.34637
841.1523	69.91491
841.2963	65.0438
841.4404	71.37263
841.5845	73.39084
841.7285	70.7456
841.8726	66.46251
842.0165	67.05329
842.1606	64.85268
842.3046	65.37347
842.4485	68.89865
842.5925	68.68032
842.7365	71.07996
842.8805	67.95974
843.0244	69.918
843.1684	67.16062
843.3123	69.2578
843.4562	69.78134
843.6002	73.55588
843.744	67.02891
843.8879	67.25356
844.0318	61.50435
844.1757	65.52637
844.3195	66.74281
844.4634	67.0464
844.6072	68.76543
844.751	66.49088
844.8948	67.54233
845.0386	60.73634
845.1824	64.66145
845.3262	64.95301
845.47	71.19333
845.6138	72.06322
845.7575	67.82771
845.9012	66.25724
846.045	67.50174
846.1887	64.67443
846.3324	64.53426
846.4761	68.10905
846.6198	63.37975
846.7635	60.73159
846.9071	61.98226
847.0508	66.24475
847.1944	68.98328
847.3381	69.22739
847.4817	65.61145
847.6253	63.07491
847.7689	61.7124
847.9125	67.78785
848.0561	70.75395
848.1996	66.97985
848.3432	63.16949
848.4868	64.3031
848.6303	63.57835
848.7738	68.98325
848.9174	66.51395
849.0609	64.47015
849.2043	66.42127
849.3478	58.3164
849.4913	59.42276
849.6348	53.44815
849.7782	53.51207
849.9217	53.12001
850.0651	56.27627
850.2086	56.69463
850.3519	59.35993
850.4954	63.27192
850.6387	60.67971
850.7821	59.4164
850.9255	62.62678
851.0688	66.04335
851.2122	61.10086
851.3555	62.06584
851.4988	62.24644
851.6422	63.49089
851.7855	62.19759
851.9288	62.34769
852.0721	62.13746
852.2153	60.17388
852.3586	57.91988
852.5018	63.59443
852.6451	63.98069
852.7883	65.00143
852.9315	66.95533
853.0748	64.26526
853.218	60.16372
853.3611	60.16457
853.5043	55.62141
853.6475	60.74298
853.7906	52.34018
853.9338	50.00354
854.0769	49.47137
854.22	45.48043
854.3632	49.67394
854.5063	50.10657
854.6494	50.65801
854.7924	51.57088
854.9355	53.90061
855.0786	51.93476
855.2216	53.53184
855.3647	58.98481
855.5077	59.02762
855.6507	59.53592
855.7937	58.88855
855.9367	59.71465
856.0797	61.99015
856.2227	59.04188
856.3657	55.69887
856.5086	54.26266
856.6516	57.98787
856.7945	60.58183
856.9374	61.81519
857.0803	57.87444
857.2232	60.31971
857.3661	55.52328
857.509	57.83215
857.6519	56.73216
857.7947	59.71674
857.9376	62.05656
858.0804	56.41664
858.2232	56.80837
858.366	55.53423
858.5089	54.81273
858.6516	55.9456
858.7944	58.6135
858.9372	53.87283
859.08	58.97686
859.2227	57.02643
859.3654	57.43092
859.5082	54.93567
859.6509	63.08755
859.7936	56.58291
859.9363	53.16871
860.079	55.96673
860.2217	57.02554
860.3643	58.17554
860.507	57.05465
860.6496	57.72169
860.7922	59.41332
860.9349	60.78258
861.0775	54.10591
861.2201	54.28764
861.3627	52.32624
861.5052	51.54597
861.6478	62.2607
861.7904	53.88515
861.9329	54.41291
862.0755	58.44329
862.218	53.65716
862.3605	54.56321
862.503	48.01781
862.6455	50.98746
862.788	51.69018
862.9305	55.53183
863.0729	56.68173
863.2154	54.18101
863.3578	53.34135
863.5002	50.76183
863.6426	51.67609
863.7851	50.89003
863.9275	52.0165
864.0698	54.70385
864.2122	52.73513
864.3546	52.01571
864.4969	51.06995
864.6393	49.69764
864.7816	47.4208
864.924	52.27376
865.0662	54.96016
865.2086	52.50992
865.3508	49.02115
865.4931	49.37039
865.6354	48.49611
865.7776	50.9754
865.9199	45.92291
866.0621	41.00632
866.2043	40.11142
866.3466	40.68769
866.4888	39.39912
866.6309	47.81292
866.7731	46.88903
866.9153	45.63576
867.0574	53.24543
867.1996	52.38711
867.3417	50.19895
867.4839	50.57345
867.626	55.89486
867.7681	50.85052
867.9102	48.909
868.0522	54.01277
868.1943	49.09938
868.3364	51.99314
868.4785	52.32244
868.6205	48.60421
868.7625	47.77517
868.9045	49.36451
869.0465	50.85525
869.1885	49.8984
869.3305	49.02895
869.4725	46.91157
869.6144	46.16118
869.7564	45.84045
869.8983	47.1104
870.0403	49.99978
870.1822	47.96402
870.3241	48.79586
870.466	44.57254
870.6079	46.40447
870.7498	54.02341
870.8916	53.24993
871.0335	41.84447
871.1754	46.19499
871.3171	42.774
871.459	46.27565
871.6008	44.84557
871.7426	36.7323
871.8844	46.14936
872.0262	49.82132
872.1679	50.82043
872.3097	47.42374
872.4514	45.55636
872.5931	50.26134
872.7349	41.88435
872.8766	39.02401
873.0183	41.13047
873.16	45.3397
873.3017	45.91822
873.4434	44.83959
873.585	46.21938
873.7266	44.45219
873.8683	44.62784
874.0099	46.54303
874.1516	47.59574
874.2932	42.87657
874.4348	41.55184
874.5763	42.10224
874.7179	46.47756
874.8594	42.43111
875.001	45.42918
875.1425	45.26304
875.2841	44.81815
875.4256	43.50565
875.5671	45.34328
875.7086	42.35603
875.85	41.05254
875.9915	47.34356
876.133	46.01989
876.2744	42.90292
876.4159	43.09177
876.5573	42.90684
876.6987	43.51346
876.8401	44.3591
876.9815	45.58014
877.1229	43.01046
877.2643	40.56056
877.4056	44.80221
877.547	42.84713
877.6884	44.57057
877.8297	46.45845
877.971	42.72687
878.1123	42.27016
878.2536	40.81634
878.3949	41.99635
878.5362	44.02238
878.6774	43.73722
878.8187	43.34907
878.9599	44.77327
879.1011	43.03655
879.2424	38.79868
879.3836	39.97987
879.5248	43.67113
879.666	39.15107
879.8071	45.20107
879.9483	44.26699
880.0895	41.66857
880.2306	39.51348
880.3718	37.78372
880.5129	39.19292
880.654	39.36331
880.7951	40.17726
880.9362	43.52538
881.0773	39.9641
881.2183	41.04416
881.3594	36.86837
881.5004	42.37936
881.6414	43.89825
881.7825	42.60869
881.9235	40.92722
882.0645	38.46125
882.2054	42.55539
882.3464	41.20713
882.4874	41.73443
882.6284	42.50885
882.7693	41.41293
882.9103	43.7187
883.0512	46.54324
883.1921	42.30546
883.333	38.43831
883.4739	39.32233
883.6147	38.0675
883.7556	44.77882
883.8965	42.08918
884.0374	43.42356
884.1782	38.93229
884.319	39.26903
884.4598	39.60411
884.6006	37.37853
884.7414	38.60453
884.8822	41.37682
885.0229	41.06872
885.1637	39.74559
885.3044	40.56276
885.4452	42.99606
885.5859	44.46045
885.7266	36.56646
885.8673	42.32484
886.008	40.534
886.1487	37.61542
886.2894	40.97853
886.43	43.88125
886.5707	38.53107
886.7113	38.55822
886.8519	38.06693
886.9926	38.58254
887.1331	41.12125
887.2737	38.96601
887.4143	41.59077
887.5549	40.95926
887.6954	40.06452
887.836	40.26064
887.9765	39.33752
888.1171	34.36148
888.2576	36.45729
888.3981	39.03066
888.5386	37.39466
888.679	33.92324
888.8195	38.17208
888.96	35.97801
889.1004	39.21698
889.2408	31.93339
889.3813	35.31275
889.5217	39.49878
889.6621	37.16229
889.8025	33.92374
889.9429	33.50662
890.0833	38.3241
890.2236	43.67313
890.364	42.54853
890.5043	32.52426
890.6446	29.99264
890.7849	36.45621
890.9252	38.45383
891.0655	34.15191
891.2058	38.06696
891.3461	35.67227
891.4863	35.26985
891.6266	37.36798
891.7668	34.97689
891.907	36.29309
892.0472	30.98742
892.1874	32.06239
892.3276	34.81252
892.4678	32.73995
892.608	32.04367
892.7481	36.2328
892.8883	34.84224
893.0284	36.82326
893.1685	33.64278
893.3087	33.13947
893.4487	33.65792
893.5889	32.65329
893.7289	30.73053
893.869	36.6404
894.009	36.55633
894.1491	38.48872
894.2891	36.91282
894.4291	33.54985
894.5692	30.5299
894.7092	30.63203
894.8491	29.20905
894.9891	29.90747
895.1291	28.51551
895.269	25.4372
895.409	31.62135
895.549	30.50532
895.6888	30.57188
895.8288	29.25124
895.9687	33.15424
896.1086	31.16529
896.2484	26.60228
896.3883	26.00994
896.5281	25.53133
896.668	25.97468
896.8079	27.94016
896.9476	26.19484
897.0875	26.00968
897.2272	22.37192
897.3671	24.07796
897.5068	27.21761
897.6466	26.90934
897.7864	28.09229
897.9261	26.64257
898.0658	27.49893
898.2056	28.26863
898.3453	28.64984
898.4849	26.23456
898.6246	22.4612
898.7643	21.40218
898.904	21.67578
899.0436	20.4415
899.1833	21.81484
899.3229	24.23819
899.4625	31.42952
899.6021	31.09499
899.7417	27.36319
899.8813	29.74948
900.0209	23.32686
900.1605	29.12013
900.3	23.45286
900.4395	23.08001
900.579	27.19911
900.7186	21.68055
900.8581	27.87175
900.9976	22.27451
901.1371	22.4992
901.2766	24.03663
901.416	24.65752
901.5555	28.72398
901.6949	24.61668
901.8344	22.56954
901.9738	26.75043
902.1132	27.31817
902.2526	23.4688
902.3919	21.25151
902.5313	31.00688
902.6707	26.97923
