SPECTRUM DATA FILE
SpectrumCount:	1
PixelCount:	3648
UserName:	ToughBook User
SampleName:	
LightSource:	
Comments:	
DeviceName:	Qwave
DeviceManufacturer:	Broadcom
DeviceSerialNo:	11311

Name:	last spectrum
Date:	2024-05-02T14:43:12.1252885+02:00
ExposureTime:	0.02
TemporalAvg:	1
IntensityUnit:	normalizedCounts
CCDLoadLevel:	0.04836249
Temperature:	31.05875
DiagramColor:	200
ProcessingSteps:	335

Wavelength [nm]	Intensity1
334.421	9.014447
334.5891	9.165129
334.7573	7.896364
334.9254	5.379904
335.0935	6.910359
335.2616	6.137729
335.4297	9.75874
335.5978	6.509377
335.7659	5.766829
335.934	3.655209
336.1021	7.790102
336.2701	5.338307
336.4382	5.814113
336.6063	11.47836
336.7744	10.87542
336.9424	10.06088
337.1105	4.479759
337.2785	7.260984
337.4466	5.085569
337.6146	6.944337
337.7827	6.108227
337.9507	7.331653
338.1187	6.621261
338.2867	-0.3571742
338.4548	4.966675
338.6228	11.12371
338.7908	6.69702
338.9588	7.692978
339.1268	3.423997
339.2948	0.6684483
339.4628	1.427272
339.6308	8.780607
339.7988	15.71448
339.9667	10.56121
340.1347	6.896753
340.3027	7.626088
340.4707	7.172735
340.6386	3.66558
340.8066	3.05952
340.9745	4.359191
341.1425	1.351666
341.3104	5.802926
341.4784	7.172542
341.6463	5.822479
341.8142	5.77028
341.9821	6.917247
342.1501	5.284708
342.318	7.144593
342.4859	7.394207
342.6538	8.2281
342.8217	11.62841
342.9896	11.76928
343.1575	8.681554
343.3254	4.411101
343.4933	7.317231
343.6612	8.485005
343.829	2.526081
343.9969	9.977569
344.1648	7.266489
344.3326	9.319304
344.5005	6.468415
344.6683	6.286675
344.8362	5.428218
345.004	10.06628
345.1719	12.73017
345.3397	11.26566
345.5075	7.854648
345.6754	9.955444
345.8432	4.374591
346.011	3.452658
346.1788	8.81899
346.3466	5.219469
346.5144	6.221234
346.6822	4.421706
346.85	8.106537
347.0178	10.10738
347.1856	5.016526
347.3534	8.851111
347.5211	9.287363
347.6889	4.467818
347.8567	8.046501
348.0244	9.131677
348.1922	9.198335
348.3599	10.14731
348.5277	7.878352
348.6954	5.016942
348.8632	5.74021
349.0309	4.716657
349.1986	5.971169
349.3663	8.205037
349.5341	5.001789
349.7018	5.932034
349.8695	8.274453
350.0372	5.136753
350.2049	3.860875
350.3726	12.60581
350.5403	10.12241
350.7079	6.029901
350.8756	0.1290794
351.0433	5.53748
351.211	12.68257
351.3786	8.75681
351.5463	3.244929
351.714	7.328101
351.8816	11.69837
352.0493	5.54017
352.2169	7.833892
352.3846	4.447166
352.5522	6.121572
352.7198	9.261481
352.8875	9.862992
353.0551	7.027521
353.2227	12.70909
353.3903	9.464115
353.5579	3.991315
353.7255	3.009371
353.8931	8.428562
354.0607	6.539449
354.2283	8.327523
354.3958	7.577204
354.5634	9.234488
354.731	9.473072
354.8986	4.420977
355.0661	9.182884
355.2337	4.50594
355.4012	8.737289
355.5688	9.205899
355.7363	10.91212
355.9039	7.347607
356.0714	6.818073
356.239	6.797523
356.4065	7.095036
356.574	8.898848
356.7415	8.386575
356.909	4.982794
357.0765	10.58186
357.244	14.61691
357.4115	5.868851
357.579	9.298715
357.7465	6.157827
357.914	14.58333
358.0815	9.814242
358.249	6.276793
358.4164	10.73547
358.5839	11.23703
358.7513	7.879146
358.9188	14.61022
359.0862	7.358574
359.2537	13.347
359.4211	10.62155
359.5886	7.262954
359.756	4.998652
359.9234	6.794581
360.0909	8.691764
360.2583	10.80796
360.4257	6.314233
360.5931	7.568836
360.7605	11.75093
360.9279	10.04694
361.0953	6.270113
361.2627	11.1746
361.4301	12.39256
361.5974	5.758244
361.7648	9.185291
361.9322	8.384946
362.0995	2.53382
362.2669	7.002828
362.4343	8.866929
362.6016	7.552614
362.769	7.49657
362.9363	6.979765
363.1036	8.518477
363.271	9.786104
363.4383	9.13125
363.6056	8.176661
363.7729	10.10035
363.9402	10.95127
364.1075	9.918135
364.2748	6.343625
364.4421	8.730253
364.6094	11.60793
364.7767	9.40958
364.944	5.491434
365.1113	11.36942
365.2786	12.9444
365.4458	10.132
365.6131	11.60104
365.7803	11.40843
365.9476	6.987229
366.1148	9.566616
366.2821	8.927365
366.4493	11.12934
366.6166	7.647559
366.7838	7.889897
366.951	7.124236
367.1182	6.984609
367.2855	9.221871
367.4527	9.01836
367.6199	6.721554
367.7871	10.36855
367.9543	11.70778
368.1215	9.289845
368.2886	6.079973
368.4558	8.947928
368.623	12.28801
368.7902	11.96879
368.9573	10.69802
369.1245	10.77949
369.2917	11.36278
369.4588	14.04868
369.6259	10.45424
369.7931	11.68742
369.9602	8.621197
370.1274	9.855839
370.2945	6.014172
370.4616	7.923038
370.6287	12.39082
370.7958	11.64158
370.963	8.312378
371.1301	15.3236
371.2971	12.00645
371.4643	14.14209
371.6313	16.03417
371.7984	10.71038
371.9655	6.626091
372.1326	8.639822
372.2997	10.78451
372.4667	8.217362
372.6338	7.744107
372.8008	10.63679
372.9679	8.525752
373.1349	10.59503
373.3019	7.568547
373.469	7.782277
373.636	9.049869
373.803	11.68069
373.9701	11.03826
374.1371	8.608898
374.3041	8.859442
374.4711	13.71402
374.6381	12.41411
374.8051	13.10043
374.9721	13.70959
375.1391	6.08953
375.3061	10.27606
375.473	14.15499
375.64	12.43945
375.8069	8.915006
375.9739	15.98686
376.1409	13.15957
376.3078	13.82598
376.4748	8.724064
376.6417	8.842261
376.8087	11.96356
376.9756	13.44852
377.1425	11.98279
377.3094	13.67165
377.4763	10.2429
377.6432	8.790342
377.8102	7.942542
377.9771	7.539741
378.144	10.94601
378.3109	13.10049
378.4777	11.27117
378.6446	8.759061
378.8115	8.959951
378.9784	8.370007
379.1452	9.517892
379.3121	14.00262
379.4789	8.897559
379.6458	9.167285
379.8127	11.54824
379.9795	12.97069
380.1463	14.09643
380.3131	8.2203
380.48	5.893523
380.6468	7.447442
380.8136	10.07828
380.9804	9.090312
381.1472	14.82542
381.314	11.99767
381.4808	10.41899
381.6476	9.746323
381.8144	10.3145
381.9812	9.50127
382.148	13.8472
382.3147	8.316383
382.4815	10.08824
382.6483	9.145146
382.815	11.23287
382.9818	11.69116
383.1485	10.04724
383.3153	10.87593
383.482	7.715144
383.6487	12.82811
383.8155	10.00342
383.9822	12.72371
384.1489	9.620459
384.3156	7.310943
384.4823	17.45406
384.649	16.28876
384.8157	13.58966
384.9824	12.67785
385.1491	15.22816
385.3158	11.352
385.4825	11.9423
385.6491	13.25547
385.8158	11.99164
385.9825	10.64521
386.1491	15.165
386.3157	14.95132
386.4824	14.78835
386.649	15.48826
386.8157	9.540148
386.9823	12.09757
387.1489	11.80105
387.3156	20.30699
387.4821	17.66596
387.6488	12.98149
387.8154	12.39633
387.982	12.53416
388.1486	15.3197
388.3152	15.30785
388.4818	12.90876
388.6483	11.84341
388.8149	9.702093
388.9815	10.211
389.148	11.12277
389.3146	13.77382
389.4811	11.7117
389.6477	12.08491
389.8142	11.91057
389.9808	11.86479
390.1473	14.85502
390.3138	16.50366
390.4804	20.47761
390.6469	16.17483
390.8134	17.62216
390.9799	16.77196
391.1464	15.36324
391.3129	17.90055
391.4794	15.26408
391.6459	18.38611
391.8124	18.52655
391.9789	13.43242
392.1453	11.44649
392.3118	14.85834
392.4782	15.60356
392.6447	9.273888
392.8112	14.77841
392.9776	15.6413
393.144	16.23552
393.3105	10.04459
393.4769	10.7689
393.6433	14.56094
393.8098	15.30047
393.9762	14.94354
394.1426	16.75473
394.309	18.15454
394.4754	13.72816
394.6418	15.49362
394.8082	19.86565
394.9746	18.9477
395.141	18.15083
395.3073	13.7227
395.4737	14.41012
395.64	13.30574
395.8064	9.078692
395.9728	15.05054
396.1391	12.5501
396.3055	12.86557
396.4718	12.81145
396.6381	14.21647
396.8045	13.94242
396.9708	9.612626
397.1371	12.7747
397.3034	14.80826
397.4697	19.84281
397.636	18.37891
397.8023	14.20061
397.9686	16.50434
398.1349	20.06289
398.3012	22.28121
398.4675	23.21551
398.6337	18.09315
398.8	18.90639
398.9662	19.18565
399.1325	22.02268
399.2988	26.37673
399.465	23.61126
399.6313	21.75791
399.7975	19.67728
399.9637	19.34224
400.1299	16.60088
400.2961	22.45464
400.4624	20.20971
400.6286	18.65315
400.7948	25.73212
400.961	23.55993
401.1272	21.40769
401.2934	18.60989
401.4595	23.06855
401.6257	22.28904
401.7919	21.31698
401.9581	20.60889
402.1242	21.82611
402.2904	15.23923
402.4565	19.06632
402.6227	15.16778
402.7888	20.06274
402.955	23.86025
403.1211	21.24029
403.2872	18.98615
403.4533	18.91224
403.6194	23.68141
403.7856	22.44709
403.9517	18.13184
404.1177	21.93138
404.2838	15.81326
404.4499	18.24275
404.616	17.73169
404.7821	21.60136
404.9482	21.03141
405.1142	23.21077
405.2803	22.73003
405.4464	22.17321
405.6124	26.01895
405.7784	19.21213
405.9445	20.29849
406.1105	18.94844
406.2766	18.7719
406.4426	21.26446
406.6086	17.28741
406.7746	20.61575
406.9406	22.30707
407.1066	19.71492
407.2726	18.1858
407.4386	18.03206
407.6046	23.92277
407.7706	26.39129
407.9366	22.71202
408.1025	19.55487
408.2685	22.92479
408.4344	29.15169
408.6004	27.94586
408.7664	29.15744
408.9323	26.9309
409.0983	27.98281
409.2642	26.95
409.4301	27.56812
409.596	28.28071
409.762	21.12476
409.9279	21.91509
410.0938	17.73224
410.2597	23.21163
410.4256	23.66392
410.5915	22.99069
410.7574	29.86145
410.9232	28.33651
411.0891	25.95482
411.255	23.94487
411.4209	28.54474
411.5867	28.20428
411.7526	26.62064
411.9184	30.36801
412.0843	30.68806
412.2501	29.86929
412.4159	32.54143
412.5818	32.77447
412.7476	27.99317
412.9134	25.92757
413.0792	22.41014
413.245	23.13938
413.4108	25.23145
413.5766	32.93739
413.7424	30.14238
413.9082	29.03514
414.074	29.95703
414.2397	22.92602
414.4055	29.30084
414.5713	24.01114
414.737	33.77154
414.9028	31.5247
415.0685	30.56016
415.2343	24.27563
415.4	27.94586
415.5658	24.98526
415.7315	32.73342
415.8972	28.84311
416.0629	31.50348
416.2286	32.80893
416.3943	28.48864
416.56	30.3178
416.7257	27.07802
416.8914	27.92053
417.0571	27.25093
417.2228	24.96655
417.3884	23.71585
417.5541	23.24871
417.7198	25.52193
417.8854	26.46889
418.0511	26.49829
418.2167	25.85971
418.3824	27.32376
418.548	27.63107
418.7136	30.12064
418.8792	29.62608
419.0449	27.83021
419.2105	31.18936
419.3761	31.3489
419.5417	31.30482
419.7073	26.95916
419.8729	29.30234
420.0385	26.14989
420.204	30.80449
420.3696	27.20521
420.5352	26.68459
420.7007	30.18428
420.8663	35.28153
421.0319	32.17313
421.1974	30.53643
421.3629	27.98822
421.5285	28.81951
421.694	29.84188
421.8595	34.69659
422.0251	36.54807
422.1906	38.02738
422.3561	30.787
422.5216	27.27877
422.6871	23.95079
422.8526	31.51372
423.0181	31.59308
423.1835	34.81675
423.349	35.251
423.5145	36.41611
423.68	35.04337
423.8454	33.08101
424.0109	32.81229
424.1763	32.23601
424.3418	31.62259
424.5072	37.35334
424.6726	37.43219
424.838	34.10897
425.0035	33.5997
425.1689	35.40875
425.3343	33.21504
425.4997	35.83905
425.6651	37.98622
425.8305	41.51735
425.9959	33.79585
426.1613	29.4124
426.3267	36.15078
426.492	37.35213
426.6574	39.11552
426.8228	37.15934
426.9881	34.50953
427.1534	30.27361
427.3188	30.75762
427.4841	35.19794
427.6495	32.64565
427.8148	36.13359
427.9801	33.2151
428.1454	34.8256
428.3107	37.81432
428.476	36.28784
428.6414	35.04429
428.8066	33.0245
428.9719	32.6348
429.1372	40.62054
429.3025	37.21711
429.4678	36.89454
429.633	35.07412
429.7983	35.52735
429.9636	33.56055
430.1288	29.13492
430.294	34.00648
430.4593	33.27743
430.6245	34.46973
430.7897	29.18351
430.955	26.9476
431.1202	31.97133
431.2854	32.59547
431.4506	42.76224
431.6158	40.63026
431.781	43.95296
431.9462	48.8849
432.1114	48.04829
432.2766	40.85863
432.4417	39.69395
432.6069	37.18442
432.772	40.33857
432.9372	40.83254
433.1024	44.4967
433.2675	43.09555
433.4326	39.15701
433.5977	36.76075
433.7629	39.19247
433.928	35.35935
434.0931	33.58235
434.2582	39.24426
434.4233	38.06248
434.5884	38.82054
434.7535	42.62101
434.9186	46.82248
435.0837	41.3818
435.2488	38.99281
435.4138	41.09087
435.5789	39.58753
435.744	42.24473
435.909	45.79785
436.0741	46.72158
436.2391	44.26467
436.4042	47.25596
436.5692	42.50167
436.7342	44.9401
436.8992	42.92258
437.0643	49.68951
437.2293	46.34612
437.3943	48.98626
437.5593	43.4282
437.7243	43.54497
437.8893	45.74811
438.0542	42.77012
438.2192	42.27799
438.3842	42.03603
438.5491	43.35119
438.7141	43.91959
438.8791	45.17025
439.044	43.58834
439.209	45.25642
439.3739	51.70503
439.5388	45.95236
439.7037	49.72478
439.8687	54.24968
440.0336	51.36037
440.1985	45.58926
440.3634	47.37702
440.5283	46.26884
440.6932	42.19069
440.8581	44.94313
441.0229	48.4622
441.1878	55.2163
441.3527	50.60913
441.5175	51.11971
441.6824	55.13829
441.8472	53.37704
442.0121	58.63417
442.1769	57.92812
442.3418	53.78145
442.5066	52.9201
442.6714	56.17932
442.8362	55.58267
443.001	54.80641
443.1659	53.33566
443.3307	47.0731
443.4955	46.59671
443.6602	49.85176
443.825	58.96805
443.9898	62.99064
444.1546	51.78542
444.3193	52.08405
444.4841	56.38636
444.6488	56.29731
444.8136	51.77195
444.9783	54.52623
445.1431	55.13218
445.3078	55.83396
445.4725	60.26884
445.6372	57.66427
445.802	52.99399
445.9667	50.11727
446.1314	54.32009
446.2961	60.29094
446.4608	60.86738
446.6255	56.3474
446.7901	52.64351
446.9548	57.70396
447.1195	56.98698
447.2841	59.07926
447.4488	60.64936
447.6134	66.89385
447.7781	68.60643
447.9427	59.81699
448.1074	55.03222
448.272	61.251
448.4366	61.79324
448.6012	63.86808
448.7658	60.83762
448.9305	56.73461
449.095	58.25864
449.2596	54.54377
449.4242	59.15142
449.5888	58.45261
449.7534	55.26169
449.9179	58.45364
450.0825	57.95271
450.2471	63.03182
450.4116	64.01009
450.5762	67.88921
450.7407	61.46852
450.9052	63.39201
451.0698	65.63054
451.2343	68.18809
451.3988	67.58294
451.5633	66.83982
451.7278	67.40893
451.8923	67.65157
452.0568	63.28009
452.2213	65.39085
452.3858	64.74317
452.5503	65.23512
452.7148	63.07743
452.8792	57.76724
453.0437	59.25322
453.2081	58.10972
453.3726	60.18829
453.537	60.81883
453.7015	61.01112
453.8659	69.18944
454.0303	63.2709
454.1947	60.77661
454.3592	65.82382
454.5236	68.68713
454.688	64.91017
454.8524	61.77396
455.0168	63.98249
455.1811	69.3687
455.3455	65.71489
455.5099	62.9104
455.6743	69.27679
455.8386	65.37039
456.003	67.11056
456.1673	70.84318
456.3317	61.80622
456.496	66.7772
456.6603	68.43307
456.8246	65.30015
456.989	66.44395
457.1533	66.86774
457.3176	70.52288
457.4819	71.19712
457.6462	68.38138
457.8105	74.76558
457.9748	66.61735
458.1391	69.69588
458.3033	68.74814
458.4676	71.82404
458.6319	68.84979
458.7961	65.93358
458.9604	65.46471
459.1246	65.89156
459.2888	69.55515
459.4531	71.97541
459.6173	70.54643
459.7815	69.0026
459.9457	65.20955
460.11	69.74519
460.2741	70.96175
460.4384	70.58895
460.6025	68.38619
460.7667	68.13774
460.9309	72.81532
461.0951	72.4071
461.2592	67.79022
461.4234	65.16276
461.5876	72.36369
461.7517	70.86167
461.9159	65.67332
462.08	71.77242
462.2441	74.47426
462.4082	70.48906
462.5724	75.56827
462.7365	70.89728
462.9006	68.80248
463.0647	74.43845
463.2288	73.17677
463.3929	73.59449
463.557	69.16956
463.721	66.32614
463.8851	66.50829
464.0492	65.54479
464.2132	65.12268
464.3773	65.32507
464.5414	63.78284
464.7054	69.98667
464.8694	66.78153
465.0334	69.46293
465.1975	76.5078
465.3615	71.99126
465.5255	68.42689
465.6895	67.01273
465.8535	69.04457
466.0175	69.84114
466.1815	72.10452
466.3455	70.86218
466.5095	67.64495
466.6734	68.59502
466.8374	65.856
467.0014	66.81721
467.1653	70.48754
467.3293	72.70425
467.4932	67.91699
467.6571	71.50233
467.8211	69.05965
467.985	71.35621
468.1489	71.00009
468.3128	72.32891
468.4767	72.31021
468.6406	75.44791
468.8045	72.75086
468.9684	73.5423
469.1323	74.22128
469.2962	77.56055
469.46	79.76353
469.6239	73.33727
469.7878	70.9582
469.9516	73.27448
470.1154	66.55508
470.2793	67.41827
470.4431	68.53529
470.607	65.75898
470.7708	70.56934
470.9346	72.7939
471.0984	76.538
471.2622	76.57376
471.426	74.62265
471.5898	74.5654
471.7536	77.33473
471.9174	79.23408
472.0811	75.0454
472.2449	75.42175
472.4087	80.91937
472.5724	79.20701
472.7362	77.93977
472.8999	78.21177
473.0637	76.32749
473.2274	73.98041
473.3911	72.65723
473.5548	73.62154
473.7185	69.97021
473.8822	71.52309
474.0459	79.10036
474.2096	79.25324
474.3733	70.01743
474.537	74.55014
474.7007	78.65604
474.8643	81.80721
475.028	83.11295
475.1917	76.03139
475.3553	76.1655
475.519	75.20355
475.6826	75.28111
475.8463	74.58593
476.0099	69.65697
476.1735	71.67054
476.3371	71.5633
476.5007	72.19435
476.6643	73.31805
476.8279	72.20377
476.9915	71.4268
477.1551	79.17259
477.3187	80.43231
477.4823	77.53854
477.6458	80.07249
477.8094	72.91013
477.9729	76.56104
478.1365	77.74892
478.3	80.22391
478.4636	77.89944
478.6271	77.81686
478.7906	79.30866
478.9541	77.08183
479.1176	73.72958
479.2812	73.52174
479.4447	78.04016
479.6082	81.78828
479.7716	77.71103
479.9351	76.14759
480.0986	79.27107
480.2621	79.43861
480.4255	80.30425
480.589	78.51845
480.7524	75.97015
480.9159	74.13622
481.0793	74.99996
481.2428	71.48547
481.4062	76.90176
481.5696	79.70212
481.733	81.06653
481.8964	77.10797
482.0598	75.09811
482.2232	76.25794
482.3866	74.86021
482.55	77.75067
482.7134	77.85151
482.8768	76.09024
483.0401	76.23466
483.2035	71.07563
483.3668	77.60019
483.5302	84.78675
483.6935	79.79249
483.8568	76.37428
484.0202	76.68394
484.1835	80.68307
484.3468	75.98077
484.5101	74.66177
484.6734	77.74902
484.8367	77.58659
485	75.84166
485.1633	79.04167
485.3266	75.12329
485.4899	73.85652
485.6531	70.07764
485.8164	69.69207
485.9796	66.1569
486.1429	62.62008
486.3061	58.56564
486.4694	65.78896
486.6326	69.99546
486.7958	67.34407
486.959	72.73931
487.1223	74.70727
487.2855	72.66802
487.4486	73.37377
487.6118	78.03358
487.775	82.79612
487.9382	80.83733
488.1014	82.48315
488.2646	78.11024
488.4277	79.80308
488.5909	74.95103
488.754	72.83904
488.9171	75.47878
489.0803	76.4118
489.2434	71.04162
489.4066	76.16304
489.5697	82.70319
489.7328	81.96406
489.8959	82.79922
490.059	77.29105
490.2221	82.92976
490.3852	81.7674
490.5482	76.84099
490.7113	81.2132
490.8744	84.7169
491.0374	78.83282
491.2005	80.35392
491.3636	83.91183
491.5266	83.00503
491.6896	79.39864
491.8527	71.2378
492.0157	69.97117
492.1787	74.45123
492.3417	78.8433
492.5047	79.74454
492.6677	84.14809
492.8307	86.9976
492.9937	88.62605
493.1567	87.08578
493.3196	84.0259
493.4826	81.28497
493.6456	79.79164
493.8085	75.44331
493.9715	76.32738
494.1344	82.8372
494.2974	77.36733
494.4603	82.97089
494.6232	77.38941
494.7861	82.60363
494.949	84.59903
495.1119	85.56982
495.2748	87.8996
495.4377	86.07999
495.6006	81.3509
495.7635	78.28338
495.9264	84.4129
496.0892	84.41982
496.2521	83.99732
496.4149	86.99034
496.5778	86.89418
496.7407	83.88745
496.9035	85.22372
497.0663	89.36452
497.2291	84.36555
497.3919	83.06088
497.5547	82.9128
497.7176	87.36827
497.8804	84.77432
498.0432	84.13296
498.2059	81.34378
498.3687	80.05331
498.5315	83.76504
498.6942	89.87537
498.857	90.14191
499.0198	90.45719
499.1825	84.74321
499.3452	90.25044
499.508	88.67206
499.6707	85.34052
499.8334	92.21508
499.9962	86.70956
500.1589	83.07888
500.3216	85.8706
500.4843	83.47736
500.6469	86.66146
500.8096	88.57421
500.9723	90.73016
501.135	82.27755
501.2976	86.37798
501.4603	90.91145
501.623	86.05751
501.7856	78.16872
501.9482	86.28663
502.1109	87.14176
502.2735	87.72455
502.4361	87.39657
502.5987	88.88527
502.7614	84.32999
502.924	91.85075
503.0865	94.42364
503.2491	96.80087
503.4117	95.58469
503.5743	90.55732
503.7368	91.91893
503.8994	95.12419
504.062	88.48805
504.2245	87.58964
504.3871	97.84331
504.5496	97.92266
504.7121	99.7552
504.8746	99.76257
505.0372	93.65163
505.1997	97.68511
505.3622	93.64017
505.5247	101.7855
505.6872	102.3117
505.8497	103.6328
506.0121	105.6294
506.1746	106.2667
506.3371	99.96073
506.4995	97.90074
506.662	100.4374
506.8244	100.7641
506.9869	102.172
507.1493	100.4919
507.3117	97.13773
507.4742	99.31712
507.6366	97.89017
507.799	96.14969
507.9614	101.7399
508.1238	101.3614
508.2862	98.8781
508.4485	109.4873
508.6109	105.9717
508.7733	114.416
508.9357	114.3876
509.098	111.8712
509.2604	105.285
509.4227	109.7083
509.5851	110.2383
509.7474	104.5704
509.9097	101.9462
510.072	102.874
510.2343	105.2843
510.3966	108.3982
510.5589	111.9118
510.7212	110.9794
510.8835	110.102
511.0458	108.4089
511.2081	108.6193
511.3703	114.292
511.5326	113.1604
511.6949	110.5039
511.8571	114.3349
512.0193	112.0298
512.1816	116.2446
512.3438	109.3139
512.506	113.2576
512.6682	119.3352
512.8304	111.7441
512.9926	109.4104
513.1548	118.6082
513.317	112.0636
513.4792	115.6857
513.6414	113.5112
513.8035	114.6753
513.9657	115.4263
514.1279	112.633
514.29	118.2569
514.4521	121.5004
514.6143	120.1157
514.7764	120.3858
514.9385	118.3299
515.1006	126.6594
515.2628	126.1135
515.4249	123.4963
515.587	122.0052
515.7491	120.5271
515.9111	128.8546
516.0732	131.5891
516.2353	132.8775
516.3973	123.1697
516.5594	114.6794
516.7214	110.3045
516.8835	106.1713
517.0455	105.4845
517.2076	103.2412
517.3696	110.1679
517.5316	122.3191
517.6937	130.5619
517.8557	134.8834
518.0176	134.3785
518.1796	126.2275
518.3416	114.3392
518.5036	118.1997
518.6656	123.0833
518.8275	130.2539
518.9895	137.0729
519.1514	139.3591
519.3134	136.4414
519.4753	130.6201
519.6373	133.7915
519.7992	142.9651
519.9611	144.3797
520.123	151.5131
520.2849	149.4915
520.4468	139.4638
520.6087	141.6153
520.7706	139.2635
520.9325	146.6423
521.0944	152.3103
521.2562	151.7765
521.4181	155.3674
521.58	150.6347
521.7418	150.8154
521.9036	157.1925
522.0655	152.9093
522.2273	156.9157
522.3891	156.9386
522.551	154.2625
522.7128	155.7814
522.8746	157.9385
523.0363	156.3503
523.1981	153.103
523.3599	157.8565
523.5217	154.4652
523.6835	160.2037
523.8452	164.5365
524.007	168.3604
524.1687	172.5181
524.3304	168.7333
524.4922	176.8548
524.6539	175.5439
524.8157	173.2931
524.9774	169.4972
525.1391	171.526
525.3008	168.8038
525.4625	171.352
525.6241	175.4403
525.7858	175.3632
525.9475	182.5091
526.1092	178.8931
526.2709	170.6939
526.4325	161.2965
526.5942	157.534
526.7558	156.599
526.9174	158.0445
527.079	162.5716
527.2407	165.3967
527.4023	175.2094
527.5639	180.818
527.7255	190.2974
527.8871	193.1315
528.0487	187.8595
528.2103	183.639
528.3718	180.1907
528.5334	185.0014
528.695	193.9466
528.8565	198.6812
529.0181	204.7986
529.1796	207.0471
529.3412	204.6538
529.5027	203.4041
529.6642	196.3537
529.8257	192.5867
529.9872	197.7704
530.1487	190.0303
530.3102	196.0964
530.4717	205.8021
530.6332	204.5406
530.7947	211.4841
530.9562	216.3127
531.1176	210.9208
531.2791	204.5177
531.4405	211.2928
531.6019	210.0255
531.7634	205.4772
531.9248	202.7559
532.0862	205.9816
532.2477	203.2438
532.4091	201.2591
532.5704	189.9035
532.7319	196.2983
532.8932	193.6411
533.0546	194.8081
533.216	207.6633
533.3774	207.7608
533.5388	206.8575
533.7001	203.591
533.8615	200.3795
534.0228	202.4593
534.1841	196.3057
534.3455	201.1879
534.5068	203.1017
534.6681	201.6736
534.8293	203.318
534.9907	212.4004
535.152	210.5598
535.3132	210.1554
535.4745	210.2388
535.6358	216.5236
535.7971	217.3368
535.9583	218.3627
536.1196	220.1062
536.2808	216.9895
536.4421	204.3908
536.6033	205.675
536.7645	208.1542
536.9258	209.9785
537.087	203.9596
537.2482	201.3767
537.4094	206.3233
537.5706	211.0096
537.7318	207.6027
537.8929	210.7933
538.0541	205.6736
538.2153	208.375
538.3764	211.9555
538.5376	205.666
538.6987	215.7795
538.8599	214.7274
539.021	209.4702
539.1821	201.1307
539.3432	202.362
539.5043	202.2871
539.6655	205.0571
539.8265	209.7961
539.9876	205.0135
540.1487	204.8893
540.3098	200.555
540.4708	198.5034
540.6319	201.0962
540.793	200.1853
540.954	207.4463
541.1151	209.0578
541.2761	206.9531
541.4371	204.8236
541.5981	205.7635
541.7592	209.1167
541.9202	219.8028
542.0812	215.3379
542.2422	207.608
542.4031	206.6022
542.5641	202.4319
542.7251	206.9441
542.886	214.3428
543.0471	205.686
543.208	203.2519
543.369	204.5912
543.5298	205.5575
543.6908	203.3078
543.8517	212.3147
544.0126	216.8855
544.1736	222.8352
544.3345	220.0473
544.4954	208.6758
544.6563	203.158
544.8171	206.2008
544.978	215.985
545.1389	215.1175
545.2997	211.5031
545.4606	207.5719
545.6215	215.4363
545.7823	217.9691
545.9432	219.8345
546.104	216.6537
546.2648	217.7475
546.4256	209.2007
546.5864	218.3376
546.7473	225.3474
546.908	221.8465
547.0688	221.7463
547.2296	215.9475
547.3904	214.2634
547.5511	209.3596
547.7119	207.8671
547.8727	208.399
548.0334	210.5624
548.1942	208.266
548.3549	208.4816
548.5156	219.9779
548.6763	223.7384
548.837	218.3621
548.9977	219.8269
549.1584	223.6398
549.3192	224.8448
549.4798	221.4317
549.6405	213.4298
549.8011	212.6992
549.9619	221.5788
550.1225	223.6044
550.2831	224.8591
550.4438	221.5414
550.6044	226.5697
550.765	222.6972
550.9257	218.6964
551.0863	227.037
551.2469	218.0168
551.4075	217.083
551.5681	222.6804
551.7287	216.9016
551.8893	218.0426
552.0498	226.3272
552.2104	221.8194
552.371	214.3914
552.5315	215.9034
552.6921	211.8527
552.8526	204.6093
553.0131	212.6931
553.1736	220.9933
553.3342	224.5827
553.4947	215.0471
553.6552	216.7736
553.8157	217.7548
553.9762	216.3039
554.1367	211.1924
554.2971	214.5349
554.4576	214.2466
554.618	218.8056
554.7785	218.7917
554.939	214.4667
555.0994	213.5448
555.2598	216.3978
555.4203	212.653
555.5807	213.2567
555.7411	209.449
555.9015	216.5947
556.0619	216.5253
556.2223	210.8874
556.3827	211.0092
556.5431	210.5106
556.7034	210.5409
556.8638	212.3404
557.0242	213.5273
557.1845	209.6546
557.3448	201.1818
557.5052	205.4111
557.6655	209.7736
557.8259	211.818
557.9861	209.0758
558.1465	215.8975
558.3068	209.0668
558.467	199.2343
558.6274	195.8792
558.7877	186.6833
558.9479	194.5304
559.1082	199.5196
559.2684	192.8637
559.4287	191.6417
559.5889	200.7944
559.7491	196.4423
559.9094	191.4464
560.0696	195.0509
560.2299	196.6094
560.3901	191.8728
560.5502	196.1644
560.7104	201.6281
560.8707	205.3434
561.0308	206.6286
561.191	200.0316
561.3511	196.8147
561.5114	189.6197
561.6714	184.4896
561.8316	189.7403
561.9918	197.7358
562.1519	198.4841
562.312	201.6855
562.4722	194.2441
562.6323	190.5197
562.7924	191.3082
562.9525	199.462
563.1125	194.3493
563.2726	197.5716
563.4327	188.9633
563.5928	191.0455
563.7528	186.1809
563.9129	182.2282
564.0729	188.6763
564.233	190.5998
564.393	189.0748
564.553	194.93
564.7131	189.6575
564.873	195.2662
565.0331	191.1331
565.1931	188.1417
565.353	182.0479
565.5131	175.9946
565.673	185.3523
565.833	170.2771
565.9929	171.8288
566.1529	182.1509
566.3129	180.2807
566.4728	177.7153
566.6328	183.0534
566.7927	182.3184
566.9526	176.1558
567.1125	183.9675
567.2724	182.6201
567.4323	180.1708
567.5922	179.9151
567.7521	175.5087
567.9119	174.1548
568.0718	170.6267
568.2317	171.1826
568.3915	170.143
568.5514	165.4624
568.7112	163.7737
568.871	174.0363
569.0309	175.6306
569.1907	169.8839
569.3505	167.4012
569.5103	170.6359
569.6701	165.8151
569.8299	174.4492
569.9897	169.4461
570.1495	173.6596
570.3092	170.2936
570.469	161.5829
570.6287	165.071
570.7885	160.9103
570.9482	162.4888
571.108	160.1468
571.2677	155.4711
571.4274	159.0314
571.5871	160.0423
571.7468	157.6758
571.9066	167.2129
572.0662	169.8262
572.2259	166.9047
572.3856	162.5644
572.5452	164.1499
572.7049	163.963
572.8646	167.3558
573.0242	161.4745
573.1838	163.1821
573.3435	161.7318
573.5031	163.8502
573.6627	161.0778
573.8223	166.2717
573.9819	154.9417
574.1415	155.254
574.3011	159.1619
574.4607	157.957
574.6203	161.6513
574.7798	160.4864
574.9394	157.9147
575.099	158.7514
575.2585	150.8929
575.418	150.7431
575.5776	152.131
575.7371	159.6183
575.8966	154.5941
576.0562	149.4884
576.2156	149.8646
576.3751	148.51
576.5346	153.9143
576.6941	152.6865
576.8536	155.4823
577.0131	151.8014
577.1725	150.8119
577.332	150.231
577.4914	149.8152
577.6508	150.6146
577.8103	146.4061
577.9697	145.4178
578.1291	141.2325
578.2885	140.6756
578.4479	140.2196
578.6073	135.8808
578.7667	143.841
578.9261	145.1498
579.0854	142.5032
579.2448	147.9711
579.4042	142.6827
579.5635	145.2728
579.7229	142.6793
579.8822	136.8357
580.0416	141.7534
580.2009	140.8164
580.3602	140.917
580.5195	144.2923
580.6788	139.3671
580.8381	149.9321
580.9974	146.6949
581.1566	138.8367
581.3159	140.5064
581.4752	143.1822
581.6345	141.5705
581.7937	143.199
581.9529	139.4583
582.1122	135.9012
582.2714	130.2768
582.4306	139.3937
582.5898	140.723
582.749	142.3722
582.9082	140.0529
583.0674	136.5949
583.2266	143.1331
583.3857	141.6465
583.5449	139.384
583.7041	133.5433
583.8633	129.6949
584.0224	132.4056
584.1815	136.5797
584.3407	136.5533
584.4998	131.5363
584.6589	132.0599
584.818	130.3981
584.9771	129.7494
585.1362	136.8044
585.2953	134.6562
585.4544	126.3652
585.6135	126.5839
585.7725	129.4933
585.9316	126.3412
586.0906	125.088
586.2497	131.3392
586.4087	131.4148
586.5677	127.6071
586.7267	130.5119
586.8858	126.2528
587.0448	123.3112
587.2038	128.043
587.3628	121.5519
587.5218	131.7943
587.6807	129.1
587.8397	120.137
587.9987	124.0677
588.1577	129.159
588.3166	121.7205
588.4755	117.4714
588.6345	114.325
588.7934	120.2692
588.9523	116.4504
589.1112	110.6921
589.2701	109.287
589.429	111.8802
589.5879	108.679
589.7468	110.7296
589.9056	114.7361
590.0645	108.8538
590.2234	115.158
590.3822	122.8069
590.5411	121.2847
590.6999	117.7131
590.8588	121.9388
591.0176	117.6201
591.1764	118.1229
591.3352	122.1501
591.494	118.2179
591.6528	109.4001
591.8116	110.9389
591.9703	114.1351
592.1291	110.4251
592.2878	116.4891
592.4467	117.667
592.6053	115.7114
592.7641	111.3638
592.9229	107.5384
593.0816	112.2748
593.2403	118.3975
593.399	113.9659
593.5577	114.7343
593.7164	110.6535
593.8751	112.0794
594.0338	109.6976
594.1924	107.4874
594.3511	110.8574
594.5098	115.1526
594.6684	114.742
594.8271	115.6363
594.9857	110.7529
595.1443	117.3661
595.303	114.663
595.4615	114.37
595.6202	118.7273
595.7787	113.5888
595.9374	118.4266
596.0959	118.4911
596.2545	117.6297
596.4131	119.2346
596.5717	108.7388
596.7302	112.1979
596.8887	112.2625
597.0473	106.082
597.2058	111.4595
597.3644	115.5616
597.5229	116.3537
597.6814	110.5177
597.8399	117.7899
597.9984	117.3636
598.1569	116.6612
598.3154	110.9208
598.4738	113.9759
598.6323	112.9855
598.7908	109.4575
598.9492	112.0764
599.1076	110.7471
599.2661	116.1287
599.4245	116.7113
599.5829	117.0103
599.7413	112.4046
599.8997	110.6047
600.0581	114.8564
600.2165	116.8632
600.3749	110.9172
600.5333	114.5613
600.6917	107.7283
600.85	110.9143
601.0084	112.4049
601.1667	110.5638
601.325	101.5738
601.4833	108.0153
601.6417	112.9193
601.8	111.9743
601.9583	107.9942
602.1166	104.6841
602.2749	110.8018
602.4332	105.14
602.5914	110.5983
602.7498	108.9218
602.908	111.6605
603.0662	109.5824
603.2245	114.5845
603.3828	113.6661
603.541	107.8957
603.6992	109.928
603.8574	112.9339
604.0156	113.8179
604.1738	108.165
604.332	107.0757
604.4902	106.0967
604.6484	113.8387
604.8065	111.5121
604.9647	112.5405
605.1229	106.3762
605.281	106.2545
605.4391	103.9326
605.5973	105.1505
605.7554	106.8254
605.9135	111.3946
606.0717	109.9683
606.2297	105.1134
606.3878	98.30396
606.5459	105.8731
606.704	112.9699
606.8621	109.7193
607.0201	105.6154
607.1782	105.1705
607.3362	105.8383
607.4943	114.3519
607.6523	106.1896
607.8104	105.1085
607.9684	109.5605
608.1264	108.3027
608.2844	106.7975
608.4424	105.5734
608.6003	101.4059
608.7584	102.5351
608.9163	106.8579
609.0743	103.028
609.2322	102.5952
609.3902	102.1997
609.5482	100.4323
609.7061	100.5638
609.864	102.8201
610.0219	108.9911
610.1798	95.29859
610.3377	94.71016
610.4956	101.4215
610.6535	100.6936
610.8114	99.16801
610.9693	101.0746
611.1271	99.74239
611.285	101.7062
611.4429	103.1591
611.6007	102.5926
611.7585	95.91548
611.9164	97.87369
612.0742	97.03197
612.232	97.64456
612.3898	89.53077
612.5476	96.60486
612.7054	95.68555
612.8632	95.91869
613.0209	95.02487
613.1787	95.95712
613.3365	95.49674
613.4942	98.87218
613.652	94.68368
613.8097	91.51291
613.9674	93.97623
614.1252	91.72515
614.2829	93.10076
614.4406	97.44949
614.5983	92.892
614.756	88.23456
614.9136	93.08316
615.0714	96.2915
615.229	98.63821
615.3867	95.53719
615.5443	93.31152
615.702	89.39107
615.8596	93.91382
616.0172	87.84757
616.1748	89.78288
616.3325	89.83179
616.4901	93.68514
616.6476	90.98141
616.8052	86.46183
616.9628	85.47832
617.1204	82.96101
617.278	85.50699
617.4355	88.65205
617.5931	93.15173
617.7506	89.16738
617.9081	88.5318
618.0657	88.78901
618.2232	91.92108
618.3807	89.00591
618.5382	93.2108
618.6957	90.83065
618.8532	90.24006
619.0107	90.16351
619.1682	85.67586
619.3256	87.67105
619.4831	84.28568
619.6406	89.05553
619.798	91.05237
619.9554	86.76323
620.1129	89.18226
620.2703	85.63813
620.4277	90.19911
620.5851	90.76118
620.7425	88.55193
620.8998	86.10727
621.0573	83.75251
621.2146	88.50282
621.372	87.7651
621.5294	84.12141
621.6867	79.55468
621.8441	89.11533
622.0013	87.31229
622.1587	84.46256
622.316	83.42899
622.4733	92.50089
622.6306	84.58054
622.7879	75.74928
622.9452	87.91759
623.1025	85.68141
623.2598	84.54335
623.4171	83.98608
623.5743	81.45847
623.7316	86.78496
623.8888	92.38123
624.046	82.29145
624.2032	83.14626
624.3605	85.48836
624.5176	88.11867
624.6749	87.60938
624.8321	84.65287
624.9893	83.79433
625.1464	83.87689
625.3036	82.69881
625.4608	81.57024
625.6179	76.9247
625.7751	78.67429
625.9322	81.96971
626.0894	84.74715
626.2465	87.05197
626.4036	87.06898
626.5607	85.19114
626.7178	83.80588
626.8749	82.64285
627.032	86.15764
627.189	80.57948
627.3461	82.21347
627.5032	79.20509
627.6602	85.15524
627.8173	85.69821
627.9743	81.80638
628.1313	77.99773
628.2884	81.15866
628.4454	80.5712
628.6024	85.61335
628.7594	86.27255
628.9164	80.11924
629.0734	83.05173
629.2303	78.79414
629.3873	80.27048
629.5443	80.5126
629.7012	78.57342
629.8582	80.61134
630.0151	78.80463
630.172	78.57407
630.3289	83.4826
630.4858	82.52446
630.6428	81.66915
630.7996	84.23451
630.9565	84.15322
631.1134	81.14051
631.2703	79.16164
631.4272	83.12012
631.584	77.5239
631.7408	76.57399
631.8977	81.01527
632.0546	82.0882
632.2114	75.80182
632.3682	81.41044
632.525	77.22004
632.6818	78.04763
632.8386	83.0357
632.9954	80.80264
633.1522	76.86396
633.3089	84.19271
633.4657	83.27353
633.6224	80.47154
633.7792	75.96761
633.9359	79.0915
634.0927	79.58516
634.2494	79.47223
634.4061	81.90298
634.5628	82.79823
634.7195	79.97442
634.8762	85.01071
635.0329	88.97598
635.1895	84.91696
635.3462	76.79973
635.5029	74.44798
635.6595	75.19489
635.8162	75.00845
635.9728	77.79888
636.1295	76.12846
636.2861	75.09866
636.4427	80.64065
636.5992	78.40091
636.7559	78.5295
636.9124	80.44888
637.069	82.5861
637.2256	79.72436
637.3821	73.67094
637.5387	74.80143
637.6953	73.55544
637.8518	80.38615
638.0084	77.28614
638.1649	79.67493
638.3214	76.3582
638.4779	76.72693
638.6344	71.93435
638.7909	73.37461
638.9474	72.89925
639.1038	71.68646
639.2603	75.24157
639.4167	72.13114
639.5732	70.65534
639.7297	72.6052
639.8861	78.59177
640.0425	73.26402
640.199	69.41665
640.3553	72.66338
640.5118	78.23339
640.6682	72.48891
640.8245	72.69479
640.981	71.72426
641.1373	72.77248
641.2936	73.64053
641.45	72.90556
641.6064	71.5405
641.7627	65.46906
641.9191	66.78809
642.0754	71.89832
642.2317	69.60648
642.388	72.81886
642.5443	71.14693
642.7006	73.46461
642.8569	70.51501
643.0131	68.6924
643.1694	69.92892
643.3257	73.4639
643.4819	72.61613
643.6382	76.65565
643.7944	69.29669
643.9506	68.28955
644.1069	68.00446
644.2631	65.05946
644.4193	68.35114
644.5754	68.18601
644.7316	65.1746
644.8878	69.6263
645.044	72.46774
645.2002	70.07071
645.3563	68.3521
645.5125	68.23798
645.6686	67.50251
645.8248	67.25974
645.9809	64.90224
646.137	60.94279
646.2931	63.09531
646.4492	65.4017
646.6053	71.5577
646.7614	68.08994
646.9174	63.46721
647.0735	64.25642
647.2296	63.44545
647.3856	60.38841
647.5417	66.22284
647.6977	67.19204
647.8537	65.18426
648.0098	62.09421
648.1658	63.36235
648.3218	71.06362
648.4777	63.91671
648.6337	64.35507
648.7897	65.6641
648.9457	64.00549
649.1016	66.75048
649.2576	58.84054
649.4135	54.65637
649.5695	60.03448
649.7254	62.60346
649.8813	62.46997
650.0372	64.82287
650.1932	65.78895
650.3491	59.25942
650.5049	60.42813
650.6608	61.01314
650.8167	64.7929
650.9725	61.51865
651.1284	60.99154
651.2842	57.68141
651.4401	62.08862
651.5959	60.66995
651.7518	63.56379
651.9076	56.74176
652.0634	56.01786
652.2192	62.12673
652.3749	66.22064
652.5308	59.4357
652.6865	59.93975
652.8423	63.2548
652.998	67.02473
653.1538	64.95064
653.3096	62.20497
653.4653	60.09728
653.621	61.0992
653.7767	60.19685
653.9324	59.24501
654.0881	57.68242
654.2438	60.80167
654.3995	56.6405
654.5552	58.16735
654.7109	55.34218
654.8665	57.15237
655.0222	55.48149
655.1778	56.70507
655.3334	56.14307
655.4891	61.69323
655.6447	56.24781
655.8003	52.96477
655.9559	54.12905
656.1115	53.24611
656.2671	48.36928
656.4227	50.25747
656.5782	51.84321
656.7338	54.63379
656.8893	56.86493
657.0449	55.97042
657.2004	60.38255
657.356	61.69901
657.5115	54.91264
657.667	60.26894
657.8225	57.22862
657.978	57.84912
658.1335	58.69276
658.289	64.72453
658.4445	60.38242
658.5999	56.36987
658.7554	56.97395
658.9108	62.62067
659.0663	58.35017
659.2217	56.01806
659.3771	62.10815
659.5325	53.48195
659.6879	50.93013
659.8433	54.61421
659.9987	55.99098
660.1541	60.90948
660.3095	57.84752
660.4648	62.47522
660.6202	57.86066
660.7756	51.28687
660.9309	54.82446
661.0862	58.16867
661.2416	59.34916
661.3969	54.92437
661.5522	54.48979
661.7075	59.02285
661.8628	52.21891
662.0181	54.3228
662.1733	52.78951
662.3286	52.15048
662.4839	51.52006
662.6391	51.15904
662.7944	52.1859
662.9496	53.86818
663.1048	53.97143
663.26	52.73131
663.4152	52.77872
663.5704	52.79624
663.7256	51.32054
663.8808	57.35262
664.036	52.68785
664.1912	53.28371
664.3463	53.3087
664.5015	50.16668
664.6566	51.7729
664.8118	46.41549
664.9669	55.39552
665.122	53.67279
665.2771	48.00441
665.4322	53.0303
665.5873	54.88956
665.7424	50.00681
665.8975	52.72227
666.0526	57.74673
666.2076	56.62399
666.3627	49.78312
666.5177	50.44424
666.6727	52.82487
666.8278	48.84993
666.9828	50.18018
667.1378	48.25811
667.2928	48.24818
667.4478	52.09809
667.6028	53.34554
667.7578	52.27684
667.9127	49.96798
668.0677	52.04907
668.2226	55.66093
668.3776	51.39285
668.5325	51.63586
668.6874	53.27814
668.8423	53.11306
668.9973	50.59386
669.1522	50.2383
669.3071	49.58703
669.4619	50.63449
669.6168	49.2501
669.7717	50.74412
669.9265	46.4873
670.0814	47.16927
670.2362	46.24332
670.3911	44.22757
670.5459	45.99963
670.7007	48.79534
670.8555	52.21072
671.0103	49.37962
671.1651	45.49355
671.3199	46.00319
671.4747	51.10648
671.6295	52.18296
671.7842	50.15596
671.939	47.25795
672.0937	45.30048
672.2484	51.39498
672.4031	48.87587
672.5579	49.19261
672.7126	50.52847
672.8673	49.53395
673.022	45.52686
673.1767	46.20726
673.3314	41.4836
673.486	48.49321
673.6407	49.00952
673.7953	51.81768
673.95	51.79713
674.1046	44.78261
674.2592	47.94957
674.4138	44.33214
674.5684	48.8189
674.723	48.75032
674.8776	48.46406
675.0322	44.17566
675.1868	45.82693
675.3414	45.52078
675.4959	45.39374
675.6505	48.72164
675.805	47.10725
675.9595	47.37871
676.1141	40.22118
676.2686	44.66761
676.4231	47.06252
676.5776	45.10196
676.7321	47.72235
676.8866	45.66285
677.041	44.63992
677.1955	47.60183
677.35	48.7056
677.5044	50.98642
677.6589	43.36798
677.8133	44.63242
677.9677	41.31263
678.1221	51.55191
678.2766	48.11578
678.4309	43.62373
678.5853	45.72983
678.7397	47.84111
678.8941	45.12165
679.0485	41.67822
679.2028	46.52185
679.3571	47.04475
679.5115	48.09576
679.6658	47.3926
679.8201	51.50282
679.9744	43.44512
680.1288	41.94829
680.2831	42.3528
680.4373	48.22268
680.5916	48.13215
680.7459	45.31267
680.9001	43.87712
681.0544	49.06378
681.2087	45.67322
681.3629	42.31868
681.5171	43.88493
681.6713	41.72024
681.8256	49.13421
681.9797	47.39698
682.134	45.52214
682.2881	49.4794
682.4423	52.63403
682.5965	47.98569
682.7507	49.52284
682.9048	51.88752
683.059	50.64825
683.2131	47.14569
683.3672	47.38298
683.5213	45.99173
683.6754	45.11516
683.8295	43.84381
683.9836	47.61248
684.1377	48.08434
684.2918	47.39563
684.4459	43.48285
684.5999	47.77142
684.754	42.47029
684.908	43.11663
685.062	44.66956
685.2161	47.81367
685.3701	43.386
685.5241	47.29816
685.6781	44.79187
685.8321	46.481
685.9861	45.06003
686.14	48.27625
686.294	44.34087
686.4479	48.35922
686.6019	47.65194
686.7559	39.98633
686.9098	43.03541
687.0637	43.13862
687.2176	39.91496
687.3715	46.94414
687.5254	47.83624
687.6793	41.83075
687.8332	41.67177
687.9871	46.91157
688.1409	51.40783
688.2947	47.43747
688.4486	46.81664
688.6024	46.60012
688.7563	45.6307
688.9101	46.17444
689.0639	48.2478
689.2177	46.75195
689.3715	51.66826
689.5253	44.9983
689.6791	42.7673
689.8328	45.63943
689.9866	49.95462
690.1403	47.20581
690.2941	46.56539
690.4478	50.9516
690.6015	54.73354
690.7552	46.59537
690.9089	51.45146
691.0626	51.29572
691.2164	49.99737
691.37	46.84709
691.5237	50.08427
691.6774	49.9014
691.831	52.24873
691.9847	52.33593
692.1383	49.10471
692.2919	51.34486
692.4456	54.7628
692.5992	50.99823
692.7527	51.12934
692.9064	49.89193
693.0599	50.22745
693.2136	53.56215
693.3671	54.4173
693.5207	50.25403
693.6742	53.6335
693.8278	53.18837
693.9813	56.48301
694.1348	57.15358
694.2883	55.04316
694.4418	52.8096
694.5953	50.10396
694.7488	57.72301
694.9023	60.03337
695.0558	58.45242
695.2093	63.41994
695.3627	62.6698
695.5162	64.71973
695.6696	61.22901
695.8231	57.68189
695.9764	65.9634
696.1299	65.32665
696.2833	60.11815
696.4367	65.8155
696.5901	63.30614
696.7435	66.64152
696.8968	62.3835
697.0502	61.97358
697.2036	67.71139
697.3569	67.20194
697.5102	66.38454
697.6635	66.27299
697.8168	64.22766
697.9702	65.56763
698.1235	67.83891
698.2768	71.24615
698.4301	68.97907
698.5833	66.0862
698.7366	65.47386
698.8898	67.87016
699.0431	67.97345
699.1964	70.06225
699.3495	72.8213
699.5028	71.3985
699.656	74.4505
699.8092	78.56386
699.9624	77.0064
700.1156	69.94171
700.2688	68.70281
700.4219	76.21939
700.5751	76.60455
700.7283	77.12699
700.8814	75.9285
701.0345	75.96885
701.1877	80.989
701.3408	80.41788
701.4939	76.74371
701.647	77.87115
701.8001	77.44026
701.9532	83.00478
702.1063	86.16498
702.2593	84.62389
702.4124	82.56028
702.5654	77.13055
702.7184	78.06085
702.8715	81.97947
703.0245	86.55097
703.1776	85.46066
703.3305	89.19395
703.4835	86.44868
703.6365	84.45422
703.7895	93.34898
703.9424	90.56179
704.0954	87.06605
704.2484	92.58118
704.4013	96.44788
704.5543	96.47723
704.7072	91.62698
704.8601	95.49567
705.013	98.31158
705.1659	94.70088
705.3188	97.61368
705.4717	95.70053
705.6246	99.1434
705.7774	96.40759
705.9303	94.90369
706.0831	97.37602
706.236	99.52212
706.3888	97.98985
706.5416	97.92259
706.6944	100.9251
706.8472	104.4276
707	106.7311
707.1528	103.1948
707.3056	103.8583
707.4583	107.3624
707.6111	103.0265
707.7639	105.3368
707.9166	103.377
708.0693	100.0046
708.222	102.4548
708.3748	102.0382
708.5275	106.4216
708.6802	109.0315
708.8328	109.7425
708.9855	108.5617
709.1382	112.2726
709.2909	110.061
709.4435	113.0919
709.5962	114.171
709.7488	113.8667
709.9014	109.6863
710.054	108.5268
710.2067	111.9037
710.3593	113.4142
710.5118	113.975
710.6644	108.2421
710.817	112.7043
710.9695	117.5193
711.1221	111.1154
711.2747	110.9441
711.4272	109.0417
711.5797	116.8565
711.7322	120.552
711.8848	111.3145
712.0373	108.42
712.1898	114.3463
712.3422	118.1548
712.4948	119.673
712.6472	118.1486
712.7996	119.8725
712.9521	123.6474
713.1046	127.1598
713.257	120.0925
713.4094	119.2419
713.5618	119.6758
713.7142	116.8833
713.8666	122.5936
714.019	120.5618
714.1714	122.4702
714.3237	122.0083
714.4761	119.1181
714.6285	119.0945
714.7808	119.0239
714.9331	123.7211
715.0854	128.9953
715.2378	130.5966
715.3901	134.6107
715.5424	134.2215
715.6947	135.3601
715.8469	130.5088
715.9992	127.1362
716.1515	126.1997
716.3037	130.299
716.456	126.0906
716.6082	116.9183
716.7604	116.3762
716.9127	112.8537
717.0649	116.1517
717.2171	115.3384
717.3693	114.2062
717.5214	114.3232
717.6736	112.6176
717.8258	108.5106
717.978	111.253
718.1301	112.2318
718.2822	116.1334
718.4344	111.8815
718.5865	103.2132
718.7386	104.6005
718.8907	113.412
719.0428	110.8734
719.1949	119.0787
719.3469	112.201
719.499	110.004
719.6511	117.4221
719.8031	120.3364
719.9551	116.7746
720.1072	117.7645
720.2592	119.5869
720.4112	116.5261
720.5632	118.0504
720.7152	121.9506
720.8672	125.5334
721.0192	131.9346
721.1711	142.0102
721.3231	141.1911
721.475	142.5823
721.627	142.2079
721.7789	140.9915
721.9308	139.7357
722.0828	139.8344
722.2347	142.126
722.3866	147.893
722.5385	140.3519
722.6903	144.9374
722.8422	148.4651
722.9941	144.3318
723.1459	142.8013
723.2977	135.4889
723.4496	123.6724
723.6014	129.6343
723.7532	136.7405
723.905	137.7224
724.0568	137.7257
724.2086	130.1284
724.3604	132.879
724.5121	136.8921
724.6639	135.0052
724.8157	134.27
724.9674	138.1269
725.1191	137.1651
725.2709	128.8217
725.4226	138.5695
725.5743	145.5299
725.726	150.7523
725.8777	147.2031
726.0294	145.7346
726.181	145.889
726.3327	138.3812
726.4844	141.6224
726.636	145.3557
726.7877	148.7123
726.9393	151.4712
727.0909	154.097
727.2425	150.4657
727.3941	151.5139
727.5457	143.0473
727.6973	136.5063
727.8488	136.3844
728.0004	146.6985
728.1519	155.5994
728.3035	158.4352
728.455	164.3924
728.6066	157.7282
728.7581	159.2057
728.9095	154.3664
729.0611	148.6642
729.2126	150.3241
729.364	146.3776
729.5155	148.9715
729.667	162.8236
729.8184	164.1455
729.9698	163.9617
730.1213	157.1971
730.2727	160.9188
730.4241	157.2187
730.5756	158.7859
730.7269	160.4016
730.8784	163.0522
731.0297	165.2897
731.1811	166.3839
731.3325	169.2767
731.4838	174.709
731.6351	170.9549
731.7865	165.6382
731.9378	169.4244
732.0891	171.2538
732.2404	174.0376
732.3917	180.1071
732.543	183.5682
732.6943	181.8512
732.8456	181.8947
732.9968	178.9795
733.1481	180.0197
733.2993	177.6092
733.4506	178.0161
733.6018	185.3812
733.753	181.9354
733.9042	191.8222
734.0554	194.1378
734.2066	204.7207
734.3578	190.1327
734.509	197.8247
734.6602	194.6272
734.8113	196.6874
734.9624	193.7855
735.1136	188.267
735.2647	190.0072
735.4158	191.2276
735.5669	187.0457
735.718	196.1335
735.8691	194.4599
736.0201	195.0702
736.1713	193.2209
736.3223	198.6354
736.4733	199.7376
736.6244	195.505
736.7755	192.3847
736.9265	193.8732
737.0775	197.1229
737.2285	201.4986
737.3795	196.9328
737.5305	201.4689
737.6815	199.6757
737.8324	202.976
737.9834	201.0658
738.1343	208.2155
738.2853	200.7028
738.4362	195.5896
738.5871	198.3035
738.738	197.2004
738.8889	190.9193
739.0399	196.4322
739.1907	201.5249
739.3416	202.6721
739.4925	201.6511
739.6433	199.7027
739.7942	206.7506
739.945	204.6847
740.0958	202.6492
740.2467	207.8581
740.3975	200.6476
740.5483	204.2128
740.6991	204.8707
740.8499	198.2287
741.0007	199.127
741.1514	206.452
741.3022	206.6491
741.4529	202.6369
741.6036	202.0062
741.7544	205.9109
741.9051	207.6566
742.0558	206.6763
742.2065	204.5519
742.3572	202.3123
742.5079	202.695
742.6586	205.2213
742.8093	206.5122
742.9599	213.1591
743.1105	212.0572
743.2612	209.9861
743.4118	210.4067
743.5624	217.8327
743.7131	214.3289
743.8636	209.6046
744.0142	209.4646
744.1648	208.0659
744.3154	207.1288
744.4659	206.745
744.6165	206.4041
744.767	206.4836
744.9176	204.7594
745.0681	213.385
745.2186	219.9191
745.3691	215.0891
745.5197	212.2189
745.6702	208.4023
745.8206	209.1077
745.9711	212.9529
746.1215	213.4937
746.272	208.2672
746.4224	216.4711
746.5729	207.3674
746.7233	217.6794
746.8737	214.5675
747.0241	203.9032
747.1745	202.4425
747.3249	217.6078
747.4753	209.0813
747.6257	201.3508
747.776	205.4343
747.9264	210.3139
748.0767	212.6961
748.2271	209.7575
748.3774	210.0955
748.5276	211.0545
748.678	204.5558
748.8282	209.2269
748.9786	210.7076
749.1288	205.9043
749.2791	204.091
749.4294	204.2426
749.5796	204.8193
749.7299	209.5341
749.8801	206.4923
750.0303	210.7144
750.1805	209.4268
750.3307	208.8146
750.4809	203.1319
750.6311	206.7069
750.7813	200.3819
750.9314	205.7173
751.0816	202.9907
751.2318	198.1484
751.3818	204.0879
751.532	200.9652
751.6821	196.0123
751.8322	197.0378
751.9823	205.6623
752.1324	206.6557
752.2825	198.8527
752.4326	199.4539
752.5826	197.3504
752.7327	204.6977
752.8827	207.6933
753.0327	199.13
753.1827	193.9371
753.3328	198.276
753.4828	200.8952
753.6328	202.2634
753.7828	204.127
753.9327	201.9177
754.0827	201.6706
754.2327	193.9219
754.3826	194.4974
754.5325	192.9235
754.6825	196.4072
754.8324	197.1701
754.9823	194.5403
755.1322	200.6329
755.2821	194.0844
755.432	193.7333
755.5818	195.0759
755.7318	189.97
755.8816	189.4771
756.0314	183.4972
756.1813	184.485
756.3311	190.8577
756.4809	192.7271
756.6307	189.0927
756.7805	188.5456
756.9303	183.7113
757.0801	194.3221
757.2299	192.0617
757.3796	184.9919
757.5294	186.6208
757.6791	191.5847
757.8289	188.1956
757.9786	194.4391
758.1283	192.6502
758.278	186.599
758.4277	182.1055
758.5773	188.0724
758.7271	186.8512
758.8767	178.1058
759.0264	189.2074
759.176	172.2437
759.3256	157.7101
759.4753	127.9643
759.6249	99.78746
759.7745	78.25269
759.9241	68.47015
760.0737	55.68776
760.2233	49.89675
760.3729	50.33715
760.5224	50.42336
760.6719	46.88334
760.8215	49.4085
760.971	48.5706
761.1205	58.42912
761.2701	69.82949
761.4196	73.6926
761.5691	89.60152
761.7186	107.578
761.868	123.9829
762.0175	128.0016
762.167	115.2653
762.3164	98.80793
762.4659	91.92288
762.6153	90.72511
762.7647	85.73046
762.9141	82.36632
763.0635	83.41132
763.2129	85.88239
763.3623	84.79269
763.5117	88.38322
763.661	87.19315
763.8104	87.15027
763.9597	92.41925
764.1091	97.38371
764.2584	93.74704
764.4077	96.11053
764.557	106.2027
764.7063	113.2552
764.8556	117.6545
765.0049	116.4257
765.1541	112.5215
765.3034	123.5589
765.4526	123.6898
765.6019	123.9147
765.7511	122.6637
765.9003	128.8003
766.0496	127.7921
766.1987	130.766
766.348	136.6581
766.4971	135.0442
766.6463	136.0858
766.7955	136.9684
766.9446	143.7449
767.0938	144.7642
767.2429	144.05
767.392	152.84
767.5411	160.5301
767.6902	152.4791
767.8394	145.3351
767.9884	151.329
768.1375	155.4149
768.2866	152.0249
768.4356	153.0134
768.5847	151.6395
768.7337	148.9624
768.8828	151.7329
769.0317	153.6872
769.1808	148.8
769.3298	152.9537
769.4788	154.2494
769.6277	148.5403
769.7767	149.8888
769.9257	153.6034
770.0746	153.4616
770.2236	156.1604
770.3725	162.2302
770.5214	152.9511
770.6703	155.879
770.8193	153.7264
770.9681	153.7697
771.1171	157.8477
771.2659	155.0839
771.4148	151.9508
771.5637	150.1546
771.7125	156.3875
771.8613	157.7376
772.0101	156.1605
772.159	154.8643
772.3078	150.0068
772.4566	143.6594
772.6054	158.2478
772.7542	151.7202
772.903	149.2397
773.0517	147.0071
773.2004	146.9353
773.3492	149.0952
773.4979	151.1148
773.6467	150.6326
773.7953	151.6914
773.944	151.4035
774.0928	147.8759
774.2415	149.5148
774.3901	150.8769
774.5388	153.7369
774.6874	153.4754
774.8361	144.0502
774.9847	149.42
775.1334	142.6969
775.282	147.4919
775.4305	145.5323
775.5792	145.1893
775.7277	149.9464
775.8763	144.4649
776.0249	144.5332
776.1735	147.385
776.322	151.5047
776.4705	151.9665
776.6191	152.274
776.7676	154.057
776.9161	150.4643
777.0646	147.673
777.2131	145.5286
777.3616	141.1846
777.5101	146.0661
777.6585	146.1203
777.8069	146.7894
777.9554	145.535
778.1038	138.5471
778.2523	145.6127
778.4007	145.9501
778.5491	141.8024
778.6974	146.2214
778.8459	141.8456
778.9942	141.981
779.1426	140.9814
779.291	143.2592
779.4393	146.8126
779.5876	144.5102
779.736	134.7965
779.8843	141.8727
780.0326	141.8634
780.1809	138.9723
780.3292	138.3149
780.4775	138.9532
780.6257	141.4662
780.774	137.6207
780.9222	140.6922
781.0704	139.2786
781.2187	135.5135
781.3669	137.0277
781.5151	134.3645
781.6633	139.774
781.8115	130.0914
781.9597	136.3235
782.1078	141.4922
782.256	139.3286
782.4042	135.9991
782.5523	137.8258
782.7004	139.7747
782.8486	136.2817
782.9967	136.9531
783.1448	136.6846
783.2929	139.6202
783.441	134.8606
783.5891	129.9258
783.7371	135.1614
783.8851	134.3186
784.0332	131.9681
784.1812	131.841
784.3293	133.6704
784.4773	140.4653
784.6253	133.9696
784.7733	127.897
784.9213	131.1032
785.0692	132.9335
785.2172	132.5306
785.3652	131.0172
785.5131	130.6923
785.6611	135.7939
785.809	137.4586
785.9569	132.088
786.1048	126.0562
786.2527	129.0049
786.4006	131.2194
786.5485	131.4353
786.6964	133.4439
786.8442	129.9929
786.9921	124.7686
787.1399	122.1458
787.2877	128.8925
787.4355	129.8522
787.5833	128.92
787.7311	125.8633
787.8789	124.4306
788.0267	122.2551
788.1745	127.3993
788.3223	131.0822
788.47	126.3409
788.6177	126.1276
788.7654	127.325
788.9132	131.8062
789.0609	122.1067
789.2086	122.4834
789.3563	123.8586
789.504	127.4491
789.6517	126.5223
789.7993	126.329
789.947	135.1309
790.0946	129.0935
790.2422	123.2975
790.3898	128.385
790.5375	125.8378
790.6851	126.466
790.8326	127.0981
790.9802	122.6426
791.1278	118.6449
791.2754	115.6623
791.423	116.8602
791.5705	120.2571
791.718	126.6054
791.8655	119.7514
792.0131	122.9199
792.1606	122.9694
792.308	117.5299
792.4556	120.0063
792.603	123.3098
792.7505	128.4473
792.8979	127.6988
793.0454	118.5457
793.1928	120.3792
793.3403	122.5964
793.4877	122.2123
793.6351	125.7972
793.7825	117.3095
793.9299	119.2001
794.0772	126.7704
794.2246	123.3964
794.3719	118.9597
794.5193	117.2655
794.6666	122.3394
794.814	121.7063
794.9613	117.0038
795.1086	121.4947
795.2559	123.0533
795.4032	118.5311
795.5505	111.1742
795.6978	114.2092
795.845	113.3808
795.9922	117.8904
796.1395	119.6052
796.2867	113.0195
796.4339	104.5614
796.5811	106.6652
796.7283	113.5562
796.8755	118.7099
797.0227	111.7989
797.1699	112.2966
797.317	111.7406
797.4642	109.9755
797.6113	117.03
797.7584	117.7696
797.9056	114.9178
798.0527	109.6841
798.1998	115.171
798.3469	111.5586
798.494	114.2122
798.641	114.6928
798.7881	117.5647
798.9351	113.6683
799.0822	118.5954
799.2292	118.8258
799.3762	114.8706
799.5232	114.5713
799.6702	118.0053
799.8172	116.1074
799.9642	104.6521
800.1111	110.5092
800.2581	110.6261
800.4051	110.1054
800.552	104.799
800.6989	109.9063
800.8458	105.7696
800.9927	105.2624
801.1396	104.1183
801.2866	102.2972
801.4334	107.0669
801.5803	105.5216
801.7272	110.8613
801.874	109.7917
802.0209	109.1565
802.1677	108.7134
802.3145	105.0027
802.4613	105.4754
802.6081	105.5181
802.7549	104.6822
802.9017	104.4437
803.0485	105.6087
803.1952	107.7152
803.342	102.1977
803.4887	103.7277
803.6354	104.3221
803.7822	101.6016
803.9289	99.96079
804.0756	99.67336
804.2223	105.8704
804.369	103.5558
804.5156	100.3202
804.6623	99.4267
804.8089	97.15342
804.9556	106.7857
805.1022	103.3733
805.2488	104.0082
805.3954	108.0333
805.542	102.9472
805.6886	102.8981
805.8352	100.5364
805.9818	105.96
806.1283	105.9811
806.2749	104.871
806.4214	100.6499
806.5679	103.7467
806.7145	100.424
806.861	101.3776
807.0074	103.2136
807.154	98.20512
807.3004	94.80446
807.4469	96.16771
807.5934	95.31499
807.7398	101.5211
807.8862	101.0508
808.0327	101.5403
808.1791	99.02881
808.3255	100.9259
808.4719	100.5182
808.6183	92.1651
808.7647	96.3936
808.9111	98.13769
809.0574	99.85149
809.2037	101.1467
809.3501	97.67454
809.4965	92.72015
809.6428	95.13116
809.7891	91.31189
809.9354	89.45264
810.0817	90.58406
810.2279	93.503
810.3742	88.91907
810.5204	97.02544
810.6667	99.0411
810.8129	90.39601
810.9592	85.96273
811.1054	88.88405
811.2516	86.23463
811.3978	85.39868
811.5439	98.54577
811.6901	99.625
811.8363	91.38396
811.9825	87.2573
812.1286	82.48203
812.2748	92.56195
812.4209	86.91678
812.567	82.74585
812.7131	85.58916
812.8592	89.07687
813.0053	85.57293
813.1514	79.98756
813.2974	76.75165
813.4435	75.86925
813.5895	79.81659
813.7356	84.38371
813.8816	85.91098
814.0276	82.84741
814.1736	73.9342
814.3196	72.1914
814.4656	74.51381
814.6116	72.91893
814.7576	74.56329
814.9035	70.20366
815.0494	74.07637
815.1954	72.25051
815.3413	71.25696
815.4872	69.21858
815.6331	71.79293
815.779	74.46983
815.9249	76.06699
816.0707	68.93278
816.2166	65.60918
816.3625	65.84943
816.5083	65.86488
816.6542	69.59496
816.8	71.2541
816.9458	64.67274
817.0916	62.12833
817.2374	72.15172
817.3832	74.99998
817.5289	75.9242
817.6747	67.27347
817.8204	64.12312
817.9662	64.6785
818.1119	67.86839
818.2576	72.61124
818.4034	69.07662
818.5491	72.65991
818.6948	71.0208
818.8405	71.55047
818.9861	69.13214
819.1318	66.50513
819.2774	70.78902
819.423	64.64405
819.5687	69.37739
819.7143	73.98617
819.8599	62.47303
820.0055	64.13715
820.1511	68.7173
820.2967	71.85862
820.4422	73.46798
820.5878	75.88778
820.7333	80.42783
820.8788	79.89877
821.0244	77.70649
821.1699	72.76572
821.3154	73.77286
821.4609	71.00546
821.6064	75.57053
821.7519	68.97112
821.8973	75.69659
822.0428	71.62482
822.1882	67.13157
822.3337	73.22817
822.4791	63.12276
822.6245	58.09131
822.7699	53.27242
822.9153	48.90416
823.0607	45.1865
823.2061	51.44091
823.3514	63.20215
823.4968	65.87252
823.6422	65.86066
823.7875	69.08278
823.9328	71.09605
824.0781	70.69569
824.2234	68.40456
824.3687	68.26393
824.514	62.87123
824.6592	64.83199
824.8045	72.04979
824.9498	80.35146
825.095	76.42689
825.2402	77.10435
825.3854	73.65363
825.5306	69.44334
825.6758	66.0971
825.821	66.72249
825.9662	63.91096
826.1114	61.53552
826.2565	65.50951
826.4017	67.10768
826.5468	69.06011
826.692	75.39651
826.837	78.05013
826.9822	72.84973
827.1273	70.77225
827.2723	63.57051
827.4174	59.93519
827.5625	63.07719
827.7075	58.69233
827.8526	59.7291
827.9976	66.08089
828.1426	61.29069
828.2877	64.70124
828.4327	65.81792
828.5776	63.37381
828.7227	60.83957
828.8676	63.58853
829.0126	60.51257
829.1575	64.99184
829.3024	64.08439
829.4474	58.99824
829.5923	61.56465
829.7372	66.36507
829.8821	62.40854
830.027	67.4658
830.1719	63.6666
830.3168	66.04945
830.4616	64.10577
830.6064	64.98036
830.7513	67.44667
830.8961	64.06593
831.041	62.55693
831.1857	60.34969
831.3306	63.73528
831.4753	68.04472
831.6201	69.42602
831.7649	63.39625
831.9096	57.81874
832.0544	59.72306
832.1991	58.75613
832.3438	65.91158
832.4885	61.88614
832.6332	61.45829
832.778	62.65334
832.9226	60.42518
833.0673	60.42179
833.2119	59.28835
833.3566	58.68386
833.5012	55.80937
833.6459	58.76476
833.7905	62.20477
833.9351	64.27937
834.0797	59.48189
834.2243	60.62717
834.3688	66.33942
834.5134	67.05279
834.658	69.20036
834.8026	62.4478
834.9471	63.5255
835.0916	64.42461
835.2361	65.02837
835.3806	66.39892
835.5251	65.19077
835.6696	61.16969
835.8141	57.73033
835.9586	59.84087
836.103	63.35425
836.2474	61.20613
836.3918	58.23012
836.5363	57.18424
836.6807	63.18427
836.8251	66.20168
836.9695	63.15787
837.1138	62.79062
837.2582	62.35921
837.4026	68.33921
837.5469	61.50615
837.6913	60.61491
837.8356	62.08206
837.9799	63.15624
838.1242	68.98045
838.2686	69.02871
838.4128	58.41293
838.5571	61.87839
838.7014	61.48516
838.8456	59.64962
838.9899	62.59441
839.1341	61.64273
839.2783	66.44778
839.4225	66.05841
839.5667	63.62342
839.7109	61.3563
839.8551	65.84616
839.9993	64.76722
840.1434	60.47113
840.2876	64.35554
840.4317	64.4426
840.5759	60.96646
840.72	62.1649
840.8641	64.58381
841.0082	64.87556
841.1523	67.5605
841.2963	65.00334
841.4404	66.52203
841.5845	61.25813
841.7285	60.40874
841.8726	62.33878
842.0165	63.28739
842.1606	64.44704
842.3046	65.42728
842.4485	67.1743
842.5925	60.85765
842.7365	59.54023
842.8805	63.18362
843.0244	62.15444
843.1684	61.21924
843.3123	62.70044
843.4562	64.46626
843.6002	60.46677
843.744	63.73056
843.8879	63.32981
844.0318	60.14828
844.1757	59.25544
844.3195	62.80677
844.4634	56.58751
844.6072	61.34291
844.751	65.0792
844.8948	63.65867
845.0386	60.95979
845.1824	59.77709
845.3262	58.93643
845.47	59.09447
845.6138	61.48372
845.7575	65.01987
845.9012	58.12141
846.045	56.87244
846.1887	58.54033
846.3324	53.23194
846.4761	56.88103
846.6198	56.94293
846.7635	60.21105
846.9071	56.64464
847.0508	64.09379
847.1944	58.02563
847.3381	63.30629
847.4817	56.14354
847.6253	61.42065
847.7689	65.38988
847.9125	57.97046
848.0561	54.99157
848.1996	57.64218
848.3432	56.60436
848.4868	62.1324
848.6303	61.39096
848.7738	56.23589
848.9174	57.60699
849.0609	59.27055
849.2043	60.93771
849.3478	57.63635
849.4913	57.20821
849.6348	52.64767
849.7782	52.62666
849.9217	51.79728
850.0651	49.13912
850.2086	48.75069
850.3519	58.46025
850.4954	57.89866
850.6387	57.79081
850.7821	59.69146
850.9255	58.13822
851.0688	59.04813
851.2122	59.64466
851.3555	61.06786
851.4988	58.24976
851.6422	58.26492
851.7855	56.56944
851.9288	55.9784
852.0721	56.50687
852.2153	59.03413
852.3586	57.37531
852.5018	52.07409
852.6451	57.16927
852.7883	57.41496
852.9315	54.8366
853.0748	48.96016
853.218	56.33994
853.3611	55.89202
853.5043	53.66762
853.6475	49.09985
853.7906	50.9102
853.9338	51.00798
854.0769	41.13136
854.22	39.9205
854.3632	35.25309
854.5063	45.61128
854.6494	45.98281
854.7924	48.19409
854.9355	50.7502
855.0786	46.54504
855.2216	49.38829
855.3647	51.04149
855.5077	46.10818
855.6507	54.8846
855.7937	58.31058
855.9367	59.02247
856.0797	53.86679
856.2227	50.88264
856.3657	52.58035
856.5086	55.80243
856.6516	54.16547
856.7945	59.1352
856.9374	53.20103
857.0803	54.64914
857.2232	55.43557
857.3661	56.92841
857.509	55.42984
857.6519	46.58405
857.7947	55.43974
857.9376	60.31725
858.0804	55.86981
858.2232	48.04504
858.366	51.52831
858.5089	52.09
858.6516	58.31625
858.7944	56.87241
858.9372	54.85745
859.08	53.20604
859.2227	48.69169
859.3654	51.63517
859.5082	50.69187
859.6509	51.09437
859.7936	54.49223
859.9363	52.81517
860.079	52.36301
860.2217	53.03929
860.3643	55.7466
860.507	54.40446
860.6496	57.23217
860.7922	50.38323
860.9349	51.09666
861.0775	50.59115
861.2201	52.96544
861.3627	55.97908
861.5052	51.7513
861.6478	48.9638
861.7904	48.58959
861.9329	51.94117
862.0755	48.98809
862.218	53.1595
862.3605	55.09752
862.503	49.78766
862.6455	53.42482
862.788	50.33566
862.9305	52.59283
863.0729	53.93807
863.2154	51.73151
863.3578	50.4785
863.5002	52.50415
863.6426	50.65332
863.7851	48.16822
863.9275	47.34729
864.0698	54.52985
864.2122	53.46347
864.3546	49.92476
864.4969	52.76691
864.6393	50.31542
864.7816	46.0557
864.924	50.2369
865.0662	48.66442
865.2086	51.16927
865.3508	51.69988
865.4931	47.85439
865.6354	43.13625
865.7776	43.64211
865.9199	44.02077
866.0621	38.82755
866.2043	33.6354
866.3466	33.36166
866.4888	36.88885
866.6309	45.57534
866.7731	47.8777
866.9153	47.21569
867.0574	43.83817
867.1996	41.98751
867.3417	43.93451
867.4839	42.69405
867.626	47.03742
867.7681	50.22158
867.9102	51.36565
868.0522	45.66689
868.1943	40.52044
868.3364	49.64733
868.4785	49.3094
868.6205	45.1442
868.7625	44.92402
868.9045	40.20864
869.0465	45.29934
869.1885	43.79426
869.3305	45.18697
869.4725	44.07977
869.6144	40.15718
869.7564	45.05377
869.8983	41.18489
870.0403	41.53325
870.1822	46.14879
870.3241	42.58632
870.466	43.72127
870.6079	42.78391
870.7498	43.9749
870.8916	46.35608
871.0335	43.88017
871.1754	43.64091
871.3171	41.59967
871.459	45.09475
871.6008	42.68053
871.7426	43.32467
871.8844	38.21637
872.0262	41.4646
872.1679	43.87251
872.3097	45.1357
872.4514	40.52093
872.5931	40.86161
872.7349	41.70129
872.8766	45.12573
873.0183	48.58702
873.16	47.45408
873.3017	40.7471
873.4434	40.78835
873.585	39.51655
873.7266	37.34631
873.8683	42.0371
874.0099	46.37008
874.1516	41.09191
874.2932	40.47343
874.4348	40.98737
874.5763	42.07682
874.7179	40.80068
874.8594	46.05595
875.001	39.85929
875.1425	37.25048
875.2841	38.9338
875.4256	38.94731
875.5671	36.74955
875.7086	37.43132
875.85	40.06708
875.9915	36.70964
876.133	40.76265
876.2744	38.30188
876.4159	40.6876
876.5573	45.76495
876.6987	42.94648
876.8401	35.50399
876.9815	41.00693
877.1229	39.39656
877.2643	39.60954
877.4056	41.88969
877.547	39.21902
877.6884	44.86049
877.8297	40.45458
877.971	40.62901
878.1123	40.91919
878.2536	35.89796
878.3949	39.47717
878.5362	40.57267
878.6774	38.32339
878.8187	35.36798
878.9599	36.50632
879.1011	37.60571
879.2424	35.73032
879.3836	38.77961
879.5248	37.10326
879.666	39.56656
879.8071	43.09795
879.9483	40.5459
880.0895	38.92641
880.2306	40.81058
880.3718	40.0508
880.5129	37.35252
880.654	32.98859
880.7951	34.34248
880.9362	35.65599
881.0773	34.58723
881.2183	39.09872
881.3594	40.45471
881.5004	35.35652
881.6414	41.37955
881.7825	40.11378
881.9235	39.23102
882.0645	41.92206
882.2054	40.23263
882.3464	38.78968
882.4874	35.71733
882.6284	37.67436
882.7693	41.94973
882.9103	43.14065
883.0512	42.84761
883.1921	36.06927
883.333	37.28768
883.4739	34.567
883.6147	40.13004
883.7556	33.81099
883.8965	35.20477
884.0374	36.75561
884.1782	36.50487
884.319	37.00551
884.4598	37.93535
884.6006	41.22227
884.7414	39.27589
884.8822	36.00859
885.0229	36.18085
885.1637	39.65725
885.3044	42.57697
885.4452	36.76175
885.5859	39.88765
885.7266	39.50625
885.8673	35.67371
886.008	37.94838
886.1487	35.06902
886.2894	31.45508
886.43	28.43102
886.5707	32.25618
886.7113	32.59067
886.8519	35.31009
886.9926	38.07211
887.1331	33.47896
887.2737	35.93912
887.4143	39.45247
887.5549	36.97825
887.6954	32.37639
887.836	34.55999
887.9765	39.37498
888.1171	40.75747
888.2576	39.54715
888.3981	37.91537
888.5386	35.09261
888.679	35.73268
888.8195	38.24922
888.96	40.29314
889.1004	37.56956
889.2408	35.40271
889.3813	36.78382
889.5217	30.15195
889.6621	31.65832
889.8025	35.25218
889.9429	34.80114
890.0833	34.01591
890.2236	28.09843
890.364	33.38325
890.5043	34.96313
890.6446	36.98364
890.7849	39.35887
890.9252	34.53497
891.0655	30.03392
891.2058	36.30566
891.3461	31.8324
891.4863	28.63827
891.6266	36.41782
891.7668	36.64029
891.907	26.18681
892.0472	31.62473
892.1874	37.82426
892.3276	35.96354
892.4678	31.51532
892.608	32.66738
892.7481	34.34495
892.8883	36.31967
893.0284	33.43492
893.1685	31.62706
893.3087	31.90202
893.4487	29.69849
893.5889	29.28993
893.7289	35.41068
893.869	32.66273
894.009	32.38169
894.1491	30.68156
894.2891	28.18722
894.4291	27.53605
894.5692	30.47391
894.7092	28.20968
894.8491	30.67125
894.9891	28.57132
895.1291	30.71663
895.269	29.65447
895.409	25.58626
895.549	27.97401
895.6888	31.03673
895.8288	33.15668
895.9687	26.92578
896.1086	25.19997
896.2484	21.78543
896.3883	22.29246
896.5281	24.3396
896.668	20.23627
896.8079	21.20905
896.9476	27.86906
897.0875	25.30602
897.2272	24.7754
897.3671	24.42666
897.5068	22.73942
897.6466	28.81178
897.7864	25.87339
897.9261	25.19495
898.0658	22.73889
898.2056	22.06389
898.3453	25.72262
898.4849	21.95752
898.6246	27.25587
898.7643	20.96431
898.904	16.69345
899.0436	17.07311
899.1833	19.12544
899.3229	21.5683
899.4625	25.86015
899.6021	27.2089
899.7417	29.63626
899.8813	28.27702
900.0209	26.89466
900.1605	26.514
900.3	26.18389
900.4395	23.70292
900.579	17.68194
900.7186	26.00321
900.8581	20.09767
900.9976	22.08852
901.1371	17.08395
901.2766	24.22351
901.416	28.86291
901.5555	23.74055
901.6949	23.48069
901.8344	29.35847
901.9738	25.30057
902.1132	24.41729
902.2526	27.28158
902.3919	22.49527
902.5313	20.70478
902.6707	20.08379
