SPECTRUM DATA FILE
SpectrumCount:	1
PixelCount:	3648
UserName:	ToughBook User
SampleName:	
LightSource:	
Comments:	
DeviceName:	Qwave
DeviceManufacturer:	Broadcom
DeviceSerialNo:	11311

Name:	last spectrum
Date:	2024-05-02T14:41:27.2437029+02:00
ExposureTime:	0.02
TemporalAvg:	1
IntensityUnit:	normalizedCounts
CCDLoadLevel:	0.0550004
Temperature:	30.95038
DiagramColor:	200
ProcessingSteps:	335

Wavelength [nm]	Intensity1
334.421	9.801817
334.5891	10.33687
334.7573	8.28314
334.9254	7.141418
335.0935	1.22405
335.2616	4.615367
335.4297	1.366832
335.5978	4.934506
335.7659	6.933877
335.934	4.26562
336.1021	5.789584
336.2701	3.030216
336.4382	4.750667
336.6063	4.330274
336.7744	5.672659
336.9424	4.690184
337.1105	3.287994
337.2785	2.477154
337.4466	4.603884
337.6146	6.248932
337.7827	2.023854
337.9507	3.152292
338.1187	6.879582
338.2867	3.454452
338.4548	4.934225
338.6228	10.82345
338.7908	5.186546
338.9588	1.966161
339.1268	4.73868
339.2948	7.205397
339.4628	3.150136
339.6308	5.152193
339.7988	9.16065
339.9667	6.039351
340.1347	4.09056
340.3027	4.48983
340.4707	3.198468
340.6386	8.017921
340.8066	6.52722
340.9745	7.78463
341.1425	4.437947
341.3104	3.077394
341.4784	7.896377
341.6463	4.8886
341.8142	4.955369
341.9821	6.892434
342.1501	6.434999
342.318	7.766175
342.4859	8.943799
342.6538	6.551144
342.8217	4.858987
342.9896	6.927155
343.1575	8.026482
343.3254	9.92809
343.4933	8.734982
343.6612	4.968081
343.829	5.777936
343.9969	6.825508
344.1648	6.696558
344.3326	4.69605
344.5005	2.888365
344.6683	2.441677
344.8362	5.481522
345.004	9.034145
345.1719	9.656592
345.3397	8.6228
345.5075	7.213653
345.6754	4.921354
345.8432	6.922149
346.011	5.904153
346.1788	8.221453
346.3466	6.047697
346.5144	4.116148
346.6822	6.908184
346.85	7.124098
347.0178	6.165945
347.1856	9.673135
347.3534	4.155727
347.5211	4.585755
347.6889	4.127941
347.8567	2.069812
348.0244	5.164127
348.1922	7.746367
348.3599	6.323999
348.5277	7.823921
348.6954	5.004982
348.8632	6.451247
349.0309	5.996181
349.1986	1.821214
349.3663	4.341314
349.5341	6.255643
349.7018	9.776423
349.8695	8.884995
350.0372	5.815028
350.2049	7.026113
350.3726	10.20333
350.5403	5.797872
350.7079	8.746965
350.8756	1.709091
351.0433	1.34265
351.211	5.759457
351.3786	5.249964
351.5463	4.420307
351.714	5.45373
351.8816	2.527942
352.0493	6.73047
352.2169	3.272669
352.3846	-0.7445156
352.5522	5.118573
352.7198	5.752621
352.8875	8.615219
353.0551	9.625006
353.2227	7.343259
353.3903	6.550038
353.5579	7.39418
353.7255	12.38603
353.8931	10.32246
354.0607	7.633103
354.2283	7.132447
354.3958	10.8514
354.5634	10.02079
354.731	13.80421
354.8986	12.65374
355.0661	9.905156
355.2337	10.14629
355.4012	3.79193
355.5688	6.947027
355.7363	9.556075
355.9039	8.32771
356.0714	5.955824
356.239	9.89309
356.4065	7.352244
356.574	8.021609
356.7415	2.696232
356.909	4.337222
357.0765	4.576465
357.244	4.175652
357.4115	7.184022
357.579	5.890133
357.7465	10.69497
357.914	4.361814
358.0815	7.014826
358.249	6.394032
358.4164	4.089065
358.5839	10.77993
358.7513	9.254463
358.9188	5.48451
359.0862	5.060374
359.2537	3.937358
359.4211	6.778122
359.5886	6.115144
359.756	2.65914
359.9234	9.528205
360.0909	11.13727
360.2583	9.819265
360.4257	4.694315
360.5931	6.831799
360.7605	6.335614
360.9279	4.52599
361.0953	9.339259
361.2627	4.048954
361.4301	7.411802
361.5974	6.100533
361.7648	7.779985
361.9322	6.96387
362.0995	3.982234
362.2669	6.188141
362.4343	12.72123
362.6016	10.95739
362.769	6.846205
362.9363	8.625978
363.1036	6.95435
363.271	7.344881
363.4383	7.956343
363.6056	9.980291
363.7729	11.21754
363.9402	12.82115
364.1075	9.187871
364.2748	4.34292
364.4421	6.529057
364.6094	10.47933
364.7767	14.68821
364.944	8.96017
365.1113	8.586736
365.2786	10.78045
365.4458	8.659218
365.6131	9.502991
365.7803	8.013085
365.9476	13.59148
366.1148	9.459543
366.2821	11.17928
366.4493	12.19421
366.6166	11.56345
366.7838	9.460299
366.951	6.981655
367.1182	9.576942
367.2855	9.483467
367.4527	9.006073
367.6199	5.953408
367.7871	8.461998
367.9543	8.819953
368.1215	7.458054
368.2886	5.814108
368.4558	11.7669
368.623	9.458687
368.7902	9.702497
368.9573	11.88268
369.1245	11.88397
369.2917	8.864202
369.4588	10.21019
369.6259	11.07318
369.7931	9.86044
369.9602	7.768226
370.1274	13.93442
370.2945	10.45787
370.4616	10.92995
370.6287	8.933488
370.7958	10.46297
370.963	9.048786
371.1301	14.42484
371.2971	14.64469
371.4643	7.785583
371.6313	11.17343
371.7984	5.706067
371.9655	5.614263
372.1326	13.55344
372.2997	16.00551
372.4667	12.28754
372.6338	8.925824
372.8008	10.52968
372.9679	8.683144
373.1349	11.92891
373.3019	6.274613
373.469	10.42722
373.636	12.3085
373.803	10.0707
373.9701	11.62584
374.1371	8.441896
374.3041	11.26848
374.4711	11.44912
374.6381	8.980189
374.8051	2.465577
374.9721	7.856025
375.1391	13.79496
375.3061	14.556
375.473	11.79062
375.64	10.39624
375.8069	9.260835
375.9739	10.81397
376.1409	5.227627
376.3078	12.65481
376.4748	12.2297
376.6417	9.625614
376.8087	10.79814
376.9756	6.934189
377.1425	13.57872
377.3094	10.01829
377.4763	10.72258
377.6432	10.4555
377.8102	7.290076
377.9771	11.751
378.144	15.58601
378.3109	12.64174
378.4777	11.87093
378.6446	10.61325
378.8115	11.03895
378.9784	15.7383
379.1452	14.88346
379.3121	9.72942
379.4789	9.339999
379.6458	10.12637
379.8127	7.230637
379.9795	7.855832
380.1463	10.86577
380.3131	10.55855
380.48	11.52588
380.6468	10.66179
380.8136	9.217237
380.9804	14.21119
381.1472	11.13221
381.314	10.88787
381.4808	11.07564
381.6476	12.14475
381.8144	11.68189
381.9812	12.43334
382.148	11.37217
382.3147	11.43073
382.4815	14.92079
382.6483	9.882071
382.815	8.280383
382.9818	9.679278
383.1485	9.235514
383.3153	10.27446
383.482	11.26372
383.6487	10.53072
383.8155	7.524792
383.9822	10.51514
384.1489	9.097477
384.3156	9.247108
384.4823	15.32613
384.649	16.47485
384.8157	12.51219
384.9824	15.74689
385.1491	9.316242
385.3158	17.42111
385.4825	15.10637
385.6491	12.25036
385.8158	13.83226
385.9825	12.14942
386.1491	11.4916
386.3157	8.276502
386.4824	7.12129
386.649	8.145702
386.8157	7.651974
386.9823	11.6625
387.1489	15.48099
387.3156	13.26441
387.4821	11.63278
387.6488	13.00875
387.8154	12.17971
387.982	7.877663
388.1486	13.71342
388.3152	15.24406
388.4818	16.54388
388.6483	14.85805
388.8149	13.19344
388.9815	14.16614
389.148	16.09456
389.3146	12.97496
389.4811	12.38741
389.6477	11.78418
389.8142	10.70391
389.9808	13.21116
390.1473	9.61291
390.3138	11.84616
390.4804	14.16815
390.6469	12.91883
390.8134	12.89491
390.9799	15.00557
391.1464	12.78113
391.3129	15.73051
391.4794	15.23489
391.6459	14.34877
391.8124	14.09165
391.9789	10.2314
392.1453	11.80508
392.3118	14.58331
392.4782	18.22745
392.6447	15.18636
392.8112	8.448405
392.9776	9.659635
393.144	12.2051
393.3105	13.44351
393.4769	7.335629
393.6433	9.540535
393.8098	9.305895
393.9762	12.58534
394.1426	15.73475
394.309	12.19899
394.4754	18.1706
394.6418	22.43651
394.8082	9.489114
394.9746	15.40402
395.141	19.1023
395.3073	18.10973
395.4737	11.43866
395.64	13.85055
395.8064	15.3167
395.9728	12.74298
396.1391	5.60989
396.3055	12.06625
396.4718	14.25844
396.6381	12.10108
396.8045	12.34859
396.9708	9.069164
397.1371	12.97956
397.3034	15.26996
397.4697	14.15942
397.636	20.27131
397.8023	19.95753
397.9686	15.6697
398.1349	19.01941
398.3012	22.46497
398.4675	19.33242
398.6337	19.85073
398.8	21.60347
398.9662	23.15342
399.1325	20.3701
399.2988	20.432
399.465	16.27693
399.6313	21.46511
399.7975	18.05354
399.9637	17.47421
400.1299	21.03141
400.2961	14.93473
400.4624	22.0246
400.6286	19.82883
400.7948	20.98149
400.961	23.32449
401.1272	23.3697
401.2934	14.61509
401.4595	17.62936
401.6257	19.87662
401.7919	23.07496
401.9581	20.39195
402.1242	25.83014
402.2904	24.24777
402.4565	19.98143
402.6227	18.17626
402.7888	21.63211
402.955	18.01192
403.1211	20.28088
403.2872	17.73869
403.4533	22.37856
403.6194	22.32249
403.7856	16.70538
403.9517	20.23551
404.1177	20.97825
404.2838	18.70049
404.4499	16.77081
404.616	18.81389
404.7821	17.68863
404.9482	23.22293
405.1142	22.17826
405.2803	24.36613
405.4464	23.15335
405.6124	24.04617
405.7784	18.59687
405.9445	23.40045
406.1105	24.17566
406.2766	24.99232
406.4426	22.98566
406.6086	21.34468
406.7746	20.72216
406.9406	23.89006
407.1066	24.78903
407.2726	23.09084
407.4386	23.29095
407.6046	26.60507
407.7706	23.97196
407.9366	20.34691
408.1025	24.9885
408.2685	25.77357
408.4344	22.32965
408.6004	21.56843
408.7664	26.70256
408.9323	32.76562
409.0983	28.94739
409.2642	25.68749
409.4301	26.80099
409.596	30.19986
409.762	27.48173
409.9279	26.52719
410.0938	20.39316
410.2597	23.93287
410.4256	21.34295
410.5915	26.72923
410.7574	27.2307
410.9232	33.37825
411.0891	29.30344
411.255	36.226
411.4209	31.71886
411.5867	28.93712
411.7526	29.76864
411.9184	26.67707
412.0843	22.74361
412.2501	24.39587
412.4159	31.83046
412.5818	30.18329
412.7476	30.59564
412.9134	31.8475
413.0792	33.91632
413.245	33.94942
413.4108	34.34043
413.5766	34.01022
413.7424	30.46509
413.9082	31.7113
414.074	31.51179
414.2397	29.89841
414.4055	26.29939
414.5713	29.14531
414.737	25.39712
414.9028	32.04549
415.0685	32.63648
415.2343	30.03613
415.4	30.00211
415.5658	30.2876
415.7315	30.62719
415.8972	28.11951
416.0629	29.16059
416.2286	31.81738
416.3943	33.04163
416.56	30.76175
416.7257	30.05858
416.8914	31.59731
417.0571	27.06556
417.2228	29.0743
417.3884	28.99106
417.5541	29.89555
417.7198	31.3344
417.8854	30.96847
418.0511	32.2693
418.2167	28.92661
418.3824	27.83942
418.548	30.83219
418.7136	31.50121
418.8792	32.90657
419.0449	36.73335
419.2105	35.46185
419.3761	36.84641
419.5417	28.12286
419.7073	28.54023
419.8729	32.64029
420.0385	32.27678
420.204	35.91821
420.3696	34.12268
420.5352	32.4781
420.7007	35.25247
420.8663	36.47148
421.0319	41.74509
421.1974	35.60884
421.3629	31.62583
421.5285	37.41607
421.694	38.13779
421.8595	36.16539
422.0251	31.84198
422.1906	39.43833
422.3561	39.44431
422.5216	32.97139
422.6871	34.35587
422.8526	35.38897
423.0181	37.23463
423.1835	36.1667
423.349	41.0804
423.5145	34.9434
423.68	36.62666
423.8454	40.54038
424.0109	35.98844
424.1763	37.64629
424.3418	40.26517
424.5072	40.2962
424.6726	42.33239
424.838	41.84692
425.0035	40.03542
425.1689	36.03819
425.3343	38.95055
425.4997	32.00606
425.6651	35.52744
425.8305	35.03881
425.9959	36.89425
426.1613	36.3126
426.3267	41.00406
426.492	39.31423
426.6574	38.85394
426.8228	40.96547
426.9881	38.59926
427.1534	39.63157
427.3188	39.06952
427.4841	34.85474
427.6495	36.87544
427.8148	35.55516
427.9801	39.79972
428.1454	39.90617
428.3107	35.2191
428.476	41.65949
428.6414	44.80902
428.8066	40.27557
428.9719	39.45937
429.1372	41.70174
429.3025	40.11757
429.4678	42.39368
429.633	39.80212
429.7983	36.67289
429.9636	35.30791
430.1288	31.77303
430.294	29.55482
430.4593	36.77938
430.6245	34.4635
430.7897	30.13782
430.955	30.32195
431.1202	29.28842
431.2854	38.94878
431.4506	41.3727
431.6158	43.11415
431.781	43.93369
431.9462	43.72618
432.1114	41.8501
432.2766	41.83168
432.4417	38.08433
432.6069	32.74931
432.772	39.31936
432.9372	43.70261
433.1024	44.79877
433.2675	43.63425
433.4326	45.6351
433.5977	47.24858
433.7629	43.72308
433.928	40.39298
434.0931	38.21839
434.2582	44.10076
434.4233	41.86014
434.5884	45.41245
434.7535	47.83841
434.9186	43.42889
435.0837	44.41516
435.2488	47.79856
435.4138	45.80526
435.5789	40.8342
435.744	48.68231
435.909	51.80381
436.0741	50.62342
436.2391	51.00289
436.4042	49.08484
436.5692	51.22705
436.7342	48.8641
436.8992	51.55221
437.0643	50.41082
437.2293	48.17633
437.3943	53.47098
437.5593	46.39681
437.7243	45.1602
437.8893	50.3862
438.0542	53.83694
438.2192	52.20221
438.3842	44.7098
438.5491	44.38076
438.7141	50.29252
438.8791	52.414
439.044	52.80015
439.209	51.09495
439.3739	53.42485
439.5388	51.61707
439.7037	54.85392
439.8687	53.6967
440.0336	54.64843
440.1985	56.87598
440.3634	54.00572
440.5283	51.97111
440.6932	52.39207
440.8581	56.17197
441.0229	55.96166
441.1878	55.52129
441.3527	59.77172
441.5175	59.76019
441.6824	54.89051
441.8472	60.58206
442.0121	57.87111
442.1769	58.84313
442.3418	56.44305
442.5066	51.98272
442.6714	60.14754
442.8362	58.94909
443.001	62.83051
443.1659	55.2104
443.3307	57.66711
443.4955	54.55346
443.6602	59.80731
443.825	61.0541
443.9898	65.04012
444.1546	63.87623
444.3193	59.74404
444.4841	58.53496
444.6488	60.42566
444.8136	61.49197
444.9783	55.82448
445.1431	59.96746
445.3078	59.18059
445.4725	59.94085
445.6372	51.002
445.802	55.99287
445.9667	56.23108
446.1314	60.23471
446.2961	60.20674
446.4608	60.62672
446.6255	62.09551
446.7901	65.40411
446.9548	61.94881
447.1195	64.10423
447.2841	66.14993
447.4488	68.28681
447.6134	68.28971
447.7781	68.60859
447.9427	69.14423
448.1074	64.28655
448.272	65.02415
448.4366	61.78868
448.6012	64.86484
448.7658	71.05881
448.9305	64.35407
449.095	63.88088
449.2596	61.06097
449.4242	63.95118
449.5888	65.66901
449.7534	65.27928
449.9179	71.6846
450.0825	69.38953
450.2471	63.24136
450.4116	68.09337
450.5762	64.20132
450.7407	69.31067
450.9052	66.33175
451.0698	71.51517
451.2343	73.01213
451.3988	69.68121
451.5633	74.03608
451.7278	72.50648
451.8923	69.77538
452.0568	72.11856
452.2213	71.30053
452.3858	70.98483
452.5503	69.37539
452.7148	64.21857
452.8792	67.03297
453.0437	64.34371
453.2081	66.41167
453.3726	61.48506
453.537	69.54958
453.7015	68.85075
453.8659	74.67577
454.0303	74.48235
454.1947	76.24329
454.3592	76.48783
454.5236	74.76296
454.688	75.2096
454.8524	67.14431
455.0168	69.98563
455.1811	70.58913
455.3455	71.4142
455.5099	64.90799
455.6743	71.20563
455.8386	76.25688
456.003	75.61901
456.1673	81.92597
456.3317	78.33019
456.496	74.13093
456.6603	74.78004
456.8246	69.14939
456.989	76.1467
457.1533	73.12
457.3176	75.27131
457.4819	80.24043
457.6462	77.65082
457.8105	71.26325
457.9748	73.2178
458.1391	76.0308
458.3033	81.11336
458.4676	77.04676
458.6319	70.50774
458.7961	80.08071
458.9604	76.38631
459.1246	77.8388
459.2888	72.33522
459.4531	71.9573
459.6173	72.34467
459.7815	74.2244
459.9457	73.35625
460.11	71.77642
460.2741	71.54858
460.4384	75.14455
460.6025	72.54704
460.7667	76.57455
460.9309	78.17452
461.0951	79.1326
461.2592	75.67398
461.4234	73.82252
461.5876	73.55924
461.7517	79.81461
461.9159	76.55656
462.08	77.6796
462.2441	82.74821
462.4082	81.19983
462.5724	77.62102
462.7365	75.966
462.9006	79.20036
463.0647	81.89532
463.2288	79.2517
463.3929	73.88224
463.557	70.25562
463.721	78.25873
463.8851	78.83561
464.0492	79.71989
464.2132	76.91647
464.3773	76.97429
464.5414	82.97777
464.7054	83.48866
464.8694	79.64175
465.0334	71.74947
465.1975	72.49837
465.3615	74.52751
465.5255	75.57339
465.6895	78.05645
465.8535	78.57265
466.0175	81.90697
466.1815	80.60202
466.3455	78.89043
466.5095	79.603
466.6734	75.93172
466.8374	76.25879
467.0014	77.88042
467.1653	80.17754
467.3293	76.31707
467.4932	81.00565
467.6571	77.8298
467.8211	85.01573
467.985	78.83689
468.1489	81.77233
468.3128	84.45156
468.4767	82.20109
468.6406	82.14179
468.8045	78.57902
468.9684	84.45079
469.1323	84.22437
469.2962	83.00148
469.46	86.07835
469.6239	89.62346
469.7878	78.8843
469.9516	76.02556
470.1154	78.02843
470.2793	78.62396
470.4431	79.59673
470.607	75.83094
470.7708	76.58051
470.9346	77.83823
471.0984	79.66972
471.2622	84.80795
471.426	84.43381
471.5898	91.8084
471.7536	87.55696
471.9174	85.68931
472.0811	81.33778
472.2449	89.26156
472.4087	82.63579
472.5724	83.60514
472.7362	84.9008
472.8999	76.05243
473.0637	77.95405
473.2274	83.95801
473.3911	75.03259
473.5548	78.90644
473.7185	85.4325
473.8822	83.62822
474.0459	83.92444
474.2096	86.62116
474.3733	86.74918
474.537	89.56915
474.7007	87.52436
474.8643	86.88512
475.028	86.01772
475.1917	84.67093
475.3553	88.69533
475.519	89.90659
475.6826	83.99959
475.8463	88.34821
476.0099	83.47436
476.1735	82.879
476.3371	78.99162
476.5007	81.71439
476.6643	82.99331
476.8279	83.37961
476.9915	82.82151
477.1551	83.65831
477.3187	85.77029
477.4823	93.02281
477.6458	89.88985
477.8094	85.03798
477.9729	82.27824
478.1365	82.86497
478.3	84.73444
478.4636	85.83215
478.6271	84.57221
478.7906	84.13078
478.9541	82.79996
479.1176	86.09422
479.2812	88.81451
479.4447	90.14836
479.6082	91.90923
479.7716	91.35871
479.9351	87.77695
480.0986	88.51596
480.2621	87.62278
480.4255	85.80508
480.589	83.96354
480.7524	87.15638
480.9159	87.99532
481.0793	81.58346
481.2428	82.94724
481.4062	87.29543
481.5696	90.75089
481.733	92.06236
481.8964	87.43533
482.0598	86.75512
482.2232	88.59431
482.3866	89.8557
482.55	85.42945
482.7134	84.08842
482.8768	90.30975
483.0401	85.22675
483.2035	80.96861
483.3668	90.2031
483.5302	85.6514
483.6935	89.22576
483.8568	87.07653
484.0202	83.11021
484.1835	86.48446
484.3468	88.02566
484.5101	88.08427
484.6734	84.91071
484.8367	83.8528
485	85.52642
485.1633	86.82749
485.3266	85.37069
485.4899	85.29229
485.6531	82.51243
485.8164	80.90071
485.9796	67.64713
486.1429	66.8168
486.3061	65.27245
486.4694	76.13665
486.6326	80.11433
486.7958	83.99996
486.959	83.45714
487.1223	77.46155
487.2855	74.28409
487.4486	82.10876
487.6118	82.08642
487.775	86.53852
487.9382	89.86706
488.1014	90.36846
488.2646	91.88724
488.4277	83.73427
488.5909	86.54084
488.754	87.43222
488.9171	89.87623
489.0803	83.91417
489.2434	80.43285
489.4066	84.41679
489.5697	91.36065
489.7328	93.72531
489.8959	95.84613
490.059	99.1736
490.2221	91.10786
490.3852	92.92186
490.5482	91.08265
490.7113	90.48432
490.8744	90.07682
491.0374	93.3059
491.2005	94.55319
491.3636	90.23013
491.5266	82.75409
491.6896	88.58422
491.8527	85.6047
492.0157	87.00226
492.1787	85.50579
492.3417	82.71615
492.5047	88.81081
492.6677	91.35101
492.8307	99.61682
492.9937	96.6248
493.1567	92.7086
493.3196	84.84028
493.4826	86.54133
493.6456	92.32033
493.8085	88.52279
493.9715	88.0681
494.1344	90.57488
494.2974	91.35172
494.4603	97.08066
494.6232	95.2979
494.7861	95.4699
494.949	94.48556
495.1119	95.38299
495.2748	99.3082
495.4377	97.54916
495.6006	94.20949
495.7635	89.08823
495.9264	88.18042
496.0892	92.80551
496.2521	96.41624
496.4149	98.39227
496.5778	97.85217
496.7407	101.7683
496.9035	99.27779
497.0663	99.46744
497.2291	98.0799
497.3919	97.51883
497.5547	96.42013
497.7176	101.423
497.8804	98.29926
498.0432	96.84799
498.2059	97.5071
498.3687	91.11243
498.5315	92.24264
498.6942	93.8772
498.857	97.33618
499.0198	105.1547
499.1825	103.8982
499.3452	99.37447
499.508	102.038
499.6707	97.92649
499.8334	101.7091
499.9962	101.8562
500.1589	99.47301
500.3216	98.25489
500.4843	95.14449
500.6469	95.06109
500.8096	95.63341
500.9723	99.67661
501.135	95.9271
501.2976	92.06767
501.4603	92.41415
501.623	97.9619
501.7856	95.70996
501.9482	100.22
502.1109	95.84485
502.2735	106.5805
502.4361	107.0115
502.5987	105.6498
502.7614	104.208
502.924	101.8987
503.0865	111.7569
503.2491	108.0679
503.4117	109.7579
503.5743	104.3723
503.7368	104.8893
503.8994	99.66254
504.062	99.64787
504.2245	101.7754
504.3871	99.34918
504.5496	102.8706
504.7121	110.4894
504.8746	106.0106
505.0372	108.611
505.1997	103.8136
505.3622	109.6929
505.5247	116.8183
505.6872	111.077
505.8497	112.7803
506.0121	117.9311
506.1746	114.3147
506.3371	116.7284
506.4995	112.5038
506.662	111.8971
506.8244	115.0211
506.9869	108.979
507.1493	111.5379
507.3117	112.4784
507.4742	119.4767
507.6366	116.8768
507.799	112.8554
507.9614	111.2533
508.1238	114.7713
508.2862	113.6307
508.4485	116.9609
508.6109	120.2982
508.7733	114.1036
508.9357	125.7544
509.098	129.0471
509.2604	126.6979
509.4227	125.5543
509.5851	131.2842
509.7474	123.5883
509.9097	123.0599
510.072	122.1518
510.2343	122.0068
510.3966	126.6581
510.5589	124.6472
510.7212	120.9306
510.8835	121.7598
511.0458	123.0952
511.2081	131.5218
511.3703	132.9024
511.5326	127.9107
511.6949	133.8792
511.8571	133.2237
512.0193	129.5062
512.1816	128.3996
512.3438	129.0968
512.506	130.5832
512.6682	134.2697
512.8304	131.6294
512.9926	131.5805
513.1548	137.6827
513.317	136.2705
513.4792	136.1246
513.6414	132.9
513.8035	133.1606
513.9657	133.8756
514.1279	132.0613
514.29	127.29
514.4521	131.38
514.6143	126.5685
514.7764	127.7972
514.9385	131.938
515.1006	135.5255
515.2628	135.8296
515.4249	140.8354
515.587	135.3375
515.7491	142.4099
515.9111	145.6509
516.0732	140.6963
516.2353	142.0564
516.3973	146.2676
516.5594	136.4428
516.7214	123.2008
516.8835	116.7898
517.0455	123.928
517.2076	128.5913
517.3696	131.0423
517.5316	138.0755
517.6937	143.702
517.8557	150.9467
518.0176	157.1668
518.1796	148.0145
518.3416	133.4
518.5036	130.0909
518.6656	137.9752
518.8275	144.2248
518.9895	150.2151
519.1514	156.2185
519.3134	155.9996
519.4753	150.07
519.6373	155.447
519.7992	166.2319
519.9611	158.9223
520.123	162.6722
520.2849	165.4689
520.4468	165.9527
520.6087	163.9573
520.7706	159.6745
520.9325	161.5128
521.0944	167.0225
521.2562	174.9227
521.4181	172.6324
521.58	175.5068
521.7418	176.0795
521.9036	177.4805
522.0655	178.2318
522.2273	174.1128
522.3891	180.6433
522.551	175.2523
522.7128	167.4001
522.8746	169.648
523.0363	174.1195
523.1981	175.3315
523.3599	171.4918
523.5217	178.8118
523.6835	191.0247
523.8452	185.8482
524.007	194.8895
524.1687	198.1552
524.3304	205.0421
524.4922	199.4051
524.6539	202.1883
524.8157	203.4751
524.9774	201.1597
525.1391	194.6069
525.3008	198.1958
525.4625	200.1202
525.6241	205.6036
525.7858	209.4393
525.9475	208.3633
526.1092	196.4705
526.2709	193.5904
526.4325	186.6183
526.5942	179.4381
526.7558	184.0917
526.9174	185.9064
527.079	187.0141
527.2407	188.2723
527.4023	202.4203
527.5639	206.8452
527.7255	205.616
527.8871	213.5383
528.0487	212.6413
528.2103	204.7338
528.3718	209.2427
528.5334	210.9904
528.695	218.2585
528.8565	222.2541
529.0181	224.543
529.1796	228.2177
529.3412	226.8302
529.5027	220.8873
529.6642	217.0234
529.8257	219.82
529.9872	214.3904
530.1487	217.6513
530.3102	227.6194
530.4717	228.2813
530.6332	230.6206
530.7947	232.2185
530.9562	236.6979
531.1176	235.8562
531.2791	231.3085
531.4405	235.8131
531.6019	232.8103
531.7634	242.4855
531.9248	237.1142
532.0862	230.9809
532.2477	233.6826
532.4091	226.2725
532.5704	223.6911
532.7319	217.8889
532.8932	210.1922
533.0546	216.9408
533.216	230.2123
533.3774	235.9686
533.5388	236.2873
533.7001	238.8544
533.8615	237.5461
534.0228	232.0704
534.1841	228.2849
534.3455	232.094
534.5068	236.4643
534.6681	233.3062
534.8293	228.2955
534.9907	228.4877
535.152	237.0305
535.3132	245.3018
535.4745	246.5941
535.6358	250.5847
535.7971	245.7475
535.9583	257.167
536.1196	247.2039
536.2808	232.9993
536.4421	236.7062
536.6033	237.3723
536.7645	234.7756
536.9258	234.3167
537.087	231.7261
537.2482	231.0952
537.4094	245.5038
537.5706	249.1013
537.7318	246.6511
537.8929	249.7445
538.0541	243.223
538.2153	237.1074
538.3764	242.8411
538.5376	240.3474
538.6987	241.1695
538.8599	240.0006
539.021	238.298
539.1821	242.9514
539.3432	235.4887
539.5043	229.1093
539.6655	227.0366
539.8265	232.699
539.9876	238.1309
540.1487	233.6387
540.3098	236.1388
540.4708	228.9983
540.6319	221.9018
540.793	228.1478
540.954	224.4512
541.1151	231.0452
541.2761	233.7668
541.4371	236.5933
541.5981	242.6615
541.7592	238.7308
541.9202	237.8211
542.0812	241.5724
542.2422	244.2455
542.4031	236.5679
542.5641	242.2489
542.7251	244.9695
542.886	245.4382
543.0471	240.9659
543.208	236.7795
543.369	236.5385
543.5298	237.0974
543.6908	233.4268
543.8517	248.5243
544.0126	244.7337
544.1736	245.9716
544.3345	251.3581
544.4954	243.5452
544.6563	235.2736
544.8171	236.5682
544.978	249.4346
545.1389	254.0148
545.2997	255.5988
545.4606	248.309
545.6215	241.7275
545.7823	243.826
545.9432	246.9066
546.104	249.0083
546.2648	245.582
546.4256	238.9005
546.5864	244.6185
546.7473	248.6728
546.908	255.5046
547.0688	255.2691
547.2296	248.625
547.3904	245.9968
547.5511	238.0419
547.7119	235.0003
547.8727	240.4359
548.0334	242.1248
548.1942	240.9665
548.3549	248.7714
548.5156	252.517
548.6763	250.7322
548.837	253.7041
548.9977	245.7163
549.1584	250.5607
549.3192	248.2175
549.4798	254.7821
549.6405	256.6375
549.8011	247.1275
549.9619	250.8721
550.1225	254.2941
550.2831	242.5786
550.4438	254.4712
550.6044	255.2641
550.765	252.0725
550.9257	250.2584
551.0863	255.9189
551.2469	244.6435
551.4075	246.7905
551.5681	247.9254
551.7287	254.8406
551.8893	256.0133
552.0498	259.3067
552.2104	251.4125
552.371	254.233
552.5315	255.1472
552.6921	244.1261
552.8526	241.1028
553.0131	240.305
553.1736	247.1481
553.3342	253.3026
553.4947	245.547
553.6552	244.9344
553.8157	250.2231
553.9762	246.9464
554.1367	245.834
554.2971	248.1498
554.4576	246.1288
554.618	245.8
554.7785	247.2777
554.939	249.2218
555.0994	254.1592
555.2598	242.6292
555.4203	246.6532
555.5807	242.4718
555.7411	239.8676
555.9015	244.6705
556.0619	244.7584
556.2223	240.6271
556.3827	230.8651
556.5431	235.7087
556.7034	237.1006
556.8638	237.6446
557.0242	231.1117
557.1845	232.5782
557.3448	233.944
557.5052	233.7802
557.6655	236.1907
557.8259	235.0653
557.9861	234.3593
558.1465	235.1474
558.3068	233.4572
558.467	233.626
558.6274	230.7252
558.7877	224.6074
558.9479	218.7455
559.1082	226.056
559.2684	221.1069
559.4287	224.4419
559.5889	222.554
559.7491	229.642
559.9094	225.0966
560.0696	215.4924
560.2299	218.7236
560.3901	230.4608
560.5502	231.7793
560.7104	233.734
560.8707	249.1916
561.0308	232.8218
561.191	235.2876
561.3511	232.1661
561.5114	225.734
561.6714	219.2302
561.8316	226.0232
561.9918	233.3015
562.1519	229.9485
562.312	221.6757
562.4722	224.2181
562.6323	224.4376
562.7924	220.0107
562.9525	219.0189
563.1125	218.7862
563.2726	227.0194
563.4327	228.8336
563.5928	225.8608
563.7528	217.2609
563.9129	212.0913
564.0729	213.9034
564.233	219.4439
564.393	221.6472
564.553	220.6608
564.7131	212.4635
564.873	211.3001
565.0331	214.7872
565.1931	216.4632
565.353	215.9829
565.5131	207.4315
565.673	204.5267
565.833	201.8846
565.9929	205.7362
566.1529	206.5284
566.3129	202.9064
566.4728	203.1786
566.6328	211.8548
566.7927	206.848
566.9526	203.7033
567.1125	205.9523
567.2724	208.7672
567.4323	206.4016
567.5922	202.5292
567.7521	207.3489
567.9119	207.9873
568.0718	200.8288
568.2317	198.8205
568.3915	204.6301
568.5514	198.7652
568.7112	196.6616
568.871	196.5217
569.0309	196.2477
569.1907	198.5159
569.3505	201.8714
569.5103	198.4463
569.6701	196.8143
569.8299	194.2503
569.9897	195.0588
570.1495	189.1001
570.3092	188.935
570.469	187.1013
570.6287	188.6703
570.7885	180.8174
570.9482	181.1659
571.108	176.6434
571.2677	182.4422
571.4274	187.2684
571.5871	192.4863
571.7468	191.2275
571.9066	193.545
572.0662	188.1311
572.2259	193.6231
572.3856	193.0309
572.5452	191.2432
572.7049	187.3111
572.8646	185.7608
573.0242	189.9156
573.1838	191.4841
573.3435	191.9679
573.5031	186.7342
573.6627	184.7238
573.8223	192.5352
573.9819	184.6588
574.1415	184.0887
574.3011	186.4519
574.4607	179.6734
574.6203	185.4475
574.7798	183.909
574.9394	177.9006
575.099	178.5939
575.2585	173.5109
575.418	175.7854
575.5776	173.9726
575.7371	180.5093
575.8966	177.9242
576.0562	177.7812
576.2156	174.1145
576.3751	173.7643
576.5346	175.2938
576.6941	172.8161
576.8536	176.1509
577.0131	176.9882
577.1725	179.0066
577.332	173.9926
577.4914	177.9179
577.6508	176.4692
577.8103	178.6352
577.9697	169.5398
578.1291	165.4611
578.2885	169.1828
578.4479	169.6488
578.6073	166.608
578.7667	167.1904
578.9261	170.3841
579.0854	171.3819
579.2448	167.0959
579.4042	171.9523
579.5635	164.5175
579.7229	162.8819
579.8822	168.5817
580.0416	164.3033
580.2009	169.6689
580.3602	160.343
580.5195	161.1592
580.6788	160.1074
580.8381	163.6761
580.9974	159.6583
581.1566	158.2487
581.3159	163.6703
581.4752	162.4286
581.6345	165.0833
581.7937	164.9891
581.9529	163.1243
582.1122	164.0185
582.2714	163.2513
582.4306	161.2637
582.5898	153.5243
582.749	153.677
582.9082	152.8104
583.0674	159.0058
583.2266	159.5406
583.3857	158.115
583.5449	161.3378
583.7041	158.3978
583.8633	150.9944
584.0224	150.6788
584.1815	150.4032
584.3407	155.7622
584.4998	162.0169
584.6589	154.5786
584.818	154.4339
584.9771	154.2684
585.1362	153.7149
585.2953	153.5115
585.4544	147.426
585.6135	153.3549
585.7725	154.4425
585.9316	150.4855
586.0906	148.2023
586.2497	146.6011
586.4087	153.9958
586.5677	152.5837
586.7267	153.4634
586.8858	148.8965
587.0448	150.5463
587.2038	147.8201
587.3628	144.9833
587.5218	150.9281
587.6807	147.46
587.8397	153.0733
587.9987	148.3065
588.1577	142.4751
588.3166	147.065
588.4755	153.3994
588.6345	144.6624
588.7934	141.3335
588.9523	138.0615
589.1112	136.149
589.2701	124.4876
589.429	126.8716
589.5879	123.7269
589.7468	128.9419
589.9056	131.2625
590.0645	133.8137
590.2234	137.2608
590.3822	137.6953
590.5411	137.83
590.6999	140.1556
590.8588	139.8773
591.0176	140.0693
591.1764	139.213
591.3352	132.3624
591.494	134.9921
591.6528	138.0316
591.8116	135.8328
591.9703	132.6055
592.1291	134.5034
592.2878	133.3677
592.4467	138.5469
592.6053	131.0409
592.7641	135.1356
592.9229	138.4773
593.0816	135.555
593.2403	135.3745
593.399	133.4752
593.5577	146.4669
593.7164	138.0887
593.8751	138.305
594.0338	137.8501
594.1924	137.0763
594.3511	139.5585
594.5098	132.6383
594.6684	138.2719
594.8271	129.424
594.9857	129.4699
595.1443	127.5152
595.303	127.765
595.4615	131.3824
595.6202	130.9227
595.7787	133.5571
595.9374	127.8852
596.0959	136.0049
596.2545	135.6979
596.4131	143.2476
596.5717	133.4166
596.7302	129.9571
596.8887	129.7022
597.0473	130.9808
597.2058	133.5168
597.3644	133.4521
597.5229	130.1014
597.6814	130.2737
597.8399	133.6434
597.9984	136.0421
598.1569	131.6699
598.3154	132.4121
598.4738	137.6943
598.6323	131.8885
598.7908	134.349
598.9492	130.5357
599.1076	132.622
599.2661	134.3317
599.4245	132.4668
599.5829	131.05
599.7413	130.0859
599.8997	137.6155
600.0581	137.2132
600.2165	129.1318
600.3749	137.009
600.5333	132.8152
600.6917	126.9624
600.85	124.5997
601.0084	130.1179
601.1667	128.5667
601.325	132.7951
601.4833	130.5095
601.6417	134.6262
601.8	134.3618
601.9583	130.9499
602.1166	128.5573
602.2749	129.723
602.4332	125.2107
602.5914	130.1604
602.7498	132.1396
602.908	129.2339
603.0662	127.8042
603.2245	128.4737
603.3828	133.4527
603.541	136.5274
603.6992	136.7132
603.8574	127.6521
604.0156	131.4116
604.1738	123.6089
604.332	128.0813
604.4902	130.4886
604.6484	129.7192
604.8065	130.7217
604.9647	126.7983
605.1229	128.3102
605.281	121.8068
605.4391	120.5636
605.5973	119.8119
605.7554	125.6349
605.9135	128.2513
606.0717	123.2729
606.2297	123.5114
606.3878	122.8975
606.5459	121.9458
606.704	116.6841
606.8621	124.8338
607.0201	127.897
607.1782	127.6341
607.3362	127.4864
607.4943	120.6429
607.6523	123.7608
607.8104	121.0923
607.9684	121.332
608.1264	127.817
608.2844	116.872
608.4424	117.6147
608.6003	115.7573
608.7584	123.1312
608.9163	116.9357
609.0743	117.2939
609.2322	118.6414
609.3902	120.9886
609.5482	115.5154
609.7061	123.0391
609.864	124.4256
610.0219	117.2847
610.1798	114.1122
610.3377	111.6154
610.4956	117.8858
610.6535	118.6043
610.8114	121.3626
610.9693	122.1345
611.1271	121.197
611.285	110.6317
611.4429	113.4974
611.6007	119.6963
611.7585	110.8077
611.9164	116.9264
612.0742	116.8071
612.232	108.6727
612.3898	116.4398
612.5476	120.6157
612.7054	115.4692
612.8632	111.5974
613.0209	115.9117
613.1787	117.8695
613.3365	115.4115
613.4942	106.9404
613.652	109.7451
613.8097	107.1698
613.9674	107.3531
614.1252	107.5125
614.2829	108.0192
614.4406	110.7462
614.5983	105.3106
614.756	107.1162
614.9136	109.821
615.0714	108.8173
615.229	112.6512
615.3867	112.2835
615.5443	111.2306
615.702	107.7288
615.8596	108.0433
616.0172	101.9352
616.1748	102.5979
616.3325	103.0263
616.4901	105.9752
616.6476	101.1635
616.8052	99.05014
616.9628	99.53214
617.1204	103.8774
617.278	108.4336
617.4355	106.7702
617.5931	104.616
617.7506	100.5751
617.9081	104.9033
618.0657	105.3454
618.2232	97.09506
618.3807	99.71548
618.5382	109.933
618.6957	107.1547
618.8532	110.5283
619.0107	98.36229
619.1682	100.3152
619.3256	101.4076
619.4831	104.3028
619.6406	108.7877
619.798	105.3907
619.9554	107.0057
620.1129	97.61703
620.2703	103.2613
620.4277	102.843
620.5851	100.5283
620.7425	103.5431
620.8998	97.84087
621.0573	101.5976
621.2146	101.6123
621.372	104.7156
621.5294	97.59422
621.6867	98.50455
621.8441	97.74339
622.0013	102.5591
622.1587	100.4509
622.316	98.29138
622.4733	102.2601
622.6306	105.7871
622.7879	101.1945
622.9452	98.42303
623.1025	99.77003
623.2598	99.01605
623.4171	97.81667
623.5743	96.50063
623.7316	103.0026
623.8888	98.79816
624.046	95.17445
624.2032	99.38634
624.3605	93.36567
624.5176	94.91259
624.6749	96.37976
624.8321	92.02174
624.9893	91.49449
625.1464	100.4198
625.3036	94.63661
625.4608	88.86953
625.6179	90.43004
625.7751	97.3606
625.9322	91.11639
626.0894	93.81898
626.2465	93.34386
626.4036	95.78878
626.5607	99.17166
626.7178	93.61131
626.8749	99.17435
627.032	99.53034
627.189	97.71018
627.3461	97.07429
627.5032	96.59476
627.6602	97.12409
627.8173	90.62313
627.9743	94.82298
628.1313	100.1114
628.2884	93.09372
628.4454	94.87659
628.6024	96.08875
628.7594	92.13359
628.9164	95.96619
629.0734	96.88548
629.2303	97.55602
629.3873	91.36153
629.5443	92.44891
629.7012	92.06134
629.8582	90.42046
630.0151	90.32894
630.172	89.03068
630.3289	94.78853
630.4858	93.59211
630.6428	94.59038
630.7996	96.02615
630.9565	92.25087
631.1134	89.5817
631.2703	96.85345
631.4272	98.12006
631.584	90.73448
631.7408	95.26261
631.8977	91.58028
632.0546	99.01657
632.2114	97.1152
632.3682	100.4089
632.525	91.41547
632.6818	94.70598
632.8386	96.15869
632.9954	96.66026
633.1522	91.82666
633.3089	87.76356
633.4657	90.94794
633.6224	90.56415
633.7792	98.06626
633.9359	96.70242
634.0927	95.14045
634.2494	96.33096
634.4061	94.54965
634.5628	89.54865
634.7195	90.34978
634.8762	92.30827
635.0329	88.18983
635.1895	97.14976
635.3462	91.411
635.5029	91.49149
635.6595	86.66901
635.8162	92.5125
635.9728	91.02819
636.1295	87.92837
636.2861	89.65464
636.4427	92.43036
636.5992	88.47764
636.7559	96.80138
636.9124	92.13091
637.069	91.67838
637.2256	92.23679
637.3821	90.21568
637.5387	92.28337
637.6953	95.73265
637.8518	91.20731
638.0084	90.2938
638.1649	86.73026
638.3214	86.59079
638.4779	83.08364
638.6344	91.79554
638.7909	91.11694
638.9474	84.23734
639.1038	86.96035
639.2603	94.60622
639.4167	85.63179
639.5732	93.93559
639.7297	88.91172
639.8861	81.28643
640.0425	89.34167
640.199	87.16602
640.3553	88.22578
640.5118	83.88183
640.6682	80.88754
640.8245	83.61872
640.981	84.05759
641.1373	80.81116
641.2936	82.36911
641.45	84.8704
641.6064	84.7012
641.7627	81.39227
641.9191	81.20448
642.0754	82.48488
642.2317	86.01923
642.388	85.23588
642.5443	81.23939
642.7006	77.71358
642.8569	78.89439
643.0131	77.07437
643.1694	82.22311
643.3257	80.54886
643.4819	79.29566
643.6382	83.47797
643.7944	81.2271
643.9506	83.97874
644.1069	82.31859
644.2631	80.80725
644.4193	87.27229
644.5754	80.39731
644.7316	79.71347
644.8878	76.07281
645.044	75.30538
645.2002	77.51138
645.3563	78.53913
645.5125	79.68588
645.6686	76.23612
645.8248	72.93388
645.9809	78.12741
646.137	76.25246
646.2931	75.03688
646.4492	71.96911
646.6053	78.01921
646.7614	76.1673
646.9174	74.80202
647.0735	75.37669
647.2296	75.69032
647.3856	75.89539
647.5417	73.683
647.6977	73.83939
647.8537	71.43207
648.0098	77.2669
648.1658	70.6817
648.3218	69.51331
648.4777	71.65588
648.6337	74.89572
648.7897	73.02304
648.9457	77.48534
649.1016	70.8819
649.2576	68.10657
649.4135	68.83686
649.5695	68.47177
649.7254	68.5889
649.8813	67.22977
650.0372	75.29659
650.1932	73.36163
650.3491	73.36968
650.5049	72.29758
650.6608	74.98678
650.8167	70.55777
650.9725	72.30516
651.1284	71.60936
651.2842	69.00864
651.4401	74.24622
651.5959	70.96867
651.7518	65.2327
651.9076	70.7326
652.0634	67.92065
652.2192	65.0938
652.3749	70.0949
652.5308	68.46297
652.6865	67.23697
652.8423	72.78145
652.998	75.30968
653.1538	71.15009
653.3096	65.84262
653.4653	68.74717
653.621	68.76729
653.7767	64.487
653.9324	69.74946
654.0881	68.89975
654.2438	70.83986
654.3995	68.72791
654.5552	68.29761
654.7109	66.68039
654.8665	66.29813
655.0222	65.79256
655.1778	70.17171
655.3334	69.30751
655.4891	65.91602
655.6447	64.4499
655.8003	65.17022
655.9559	63.30394
656.1115	61.62589
656.2671	55.44768
656.4227	56.76991
656.5782	59.46346
656.7338	57.86578
656.8893	61.95269
657.0449	64.54117
657.2004	66.80076
657.356	64.06918
657.5115	64.8818
657.667	65.57775
657.8225	68.33034
657.978	65.24097
658.1335	62.59723
658.289	65.53049
658.4445	68.54876
658.5999	64.34457
658.7554	63.18039
658.9108	68.35795
659.0663	63.40237
659.2217	64.18626
659.3771	66.41373
659.5325	66.7615
659.6879	63.87128
659.8433	69.10075
659.9987	66.91661
660.1541	61.83582
660.3095	67.42684
660.4648	69.77426
660.6202	64.15506
660.7756	60.3463
660.9309	65.34525
661.0862	64.5203
661.2416	65.32798
661.3969	66.79887
661.5522	65.45288
661.7075	62.65593
661.8628	62.4431
662.0181	63.00238
662.1733	64.70857
662.3286	61.41967
662.4839	63.6433
662.6391	63.55897
662.7944	59.99625
662.9496	60.09964
663.1048	58.25413
663.26	58.09697
663.4152	57.94935
663.5704	64.79855
663.7256	66.17897
663.8808	57.5638
664.036	60.637
664.1912	57.46643
664.3463	53.35628
664.5015	56.5747
664.6566	58.73592
664.8118	61.77209
664.9669	61.38584
665.122	55.24637
665.2771	59.81283
665.4322	63.27446
665.5873	61.57528
665.7424	58.03544
665.8975	61.57155
666.0526	55.32921
666.2076	56.79998
666.3627	55.29386
666.5177	55.89861
666.6727	59.15444
666.8278	61.39389
666.9828	59.79771
667.1378	53.49084
667.2928	53.27525
667.4478	52.33612
667.6028	56.72212
667.7578	59.58607
667.9127	62.71385
668.0677	57.15937
668.2226	52.1739
668.3776	55.79032
668.5325	59.33475
668.6874	57.30397
668.8423	58.80572
668.9973	61.17149
669.1522	58.9193
669.3071	53.01522
669.4619	56.25604
669.6168	57.87262
669.7717	58.34747
669.9265	60.97374
670.0814	50.34777
670.2362	54.91537
670.3911	56.19997
670.5459	54.91946
670.7007	58.15777
670.8555	59.52724
671.0103	58.13018
671.1651	55.62032
671.3199	52.6531
671.4747	58.51709
671.6295	56.44301
671.7842	54.37322
671.939	54.10952
672.0937	53.00295
672.2484	53.36876
672.4031	52.45158
672.5579	54.64191
672.7126	54.57888
672.8673	51.53836
673.022	53.96096
673.1767	56.58763
673.3314	50.90424
673.486	54.31412
673.6407	52.95042
673.7953	52.78188
673.95	52.78509
674.1046	50.45388
674.2592	53.67192
674.4138	52.46802
674.5684	53.60619
674.723	48.74952
674.8776	51.10128
675.0322	51.20523
675.1868	51.66143
675.3414	44.22884
675.4959	50.46918
675.6505	61.39203
675.805	51.5631
675.9595	51.73527
676.1141	52.99953
676.2686	53.56625
676.4231	51.53952
676.5776	51.71681
676.7321	53.00861
676.8866	55.54886
677.041	52.22197
677.1955	57.50423
677.35	54.83008
677.5044	55.96226
677.6589	53.95877
677.8133	51.77887
677.9677	53.34533
678.1221	55.23733
678.2766	48.97436
678.4309	55.70689
678.5853	51.51707
678.7397	45.93249
678.8941	52.18003
679.0485	52.27401
679.2028	52.63578
679.3571	50.09553
679.5115	47.5901
679.6658	45.7017
679.8201	49.1315
679.9744	51.55317
680.1288	55.03923
680.2831	52.67778
680.4373	54.40221
680.5916	50.94602
680.7459	51.70864
680.9001	51.69304
681.0544	51.17444
681.2087	51.42852
681.3629	52.31561
681.5171	52.49691
681.6713	52.2301
681.8256	48.73695
681.9797	47.74427
682.134	50.39246
682.2881	50.77563
682.4423	50.40047
682.5965	47.33796
682.7507	48.08595
682.9048	56.37241
683.059	48.05283
683.2131	51.16619
683.3672	49.73708
683.5213	53.28328
683.6754	50.26067
683.8295	49.6913
683.9836	50.76348
684.1377	57.44463
684.2918	53.4365
684.4459	50.58249
684.5999	47.14192
684.754	51.57607
684.908	52.83905
685.062	51.91809
685.2161	53.19316
685.3701	51.3799
685.5241	48.58842
685.6781	48.29642
685.8321	49.68901
685.9861	51.84451
686.14	49.86267
686.294	47.77028
686.4479	50.64372
686.6019	52.38368
686.7559	53.06985
686.9098	53.46126
687.0637	45.34227
687.2176	44.91795
687.3715	51.55287
687.5254	46.02265
687.6793	43.93604
687.8332	50.51797
687.9871	50.21154
688.1409	50.32878
688.2947	55.34686
688.4486	48.32279
688.6024	47.47285
688.7563	47.75253
688.9101	49.78047
689.0639	48.73227
689.2177	50.84388
689.3715	50.36963
689.5253	49.55651
689.6791	54.37555
689.8328	53.8344
689.9866	51.36796
690.1403	51.51194
690.2941	50.31418
690.4478	49.12838
690.6015	52.1902
690.7552	53.89053
690.9089	55.09667
691.0626	54.69957
691.2164	51.36709
691.37	54.97182
691.5237	57.18205
691.6774	49.40184
691.831	53.95959
691.9847	58.73989
692.1383	59.68627
692.2919	61.63317
692.4456	57.7852
692.5992	60.32069
692.7527	60.51071
692.9064	57.79108
693.0599	57.18419
693.2136	59.24871
693.3671	61.08066
693.5207	62.04823
693.6742	64.09329
693.8278	64.57901
693.9813	61.64436
694.1348	58.71128
694.2883	61.11858
694.4418	64.1183
694.5953	62.67817
694.7488	57.7106
694.9023	61.1472
695.0558	65.46766
695.2093	67.67638
695.3627	65.71333
695.5162	60.90269
695.6696	62.01505
695.8231	67.42542
695.9764	67.41577
696.1299	69.16586
696.2833	70.55677
696.4367	72.24182
696.5901	69.35925
696.7435	72.55706
696.8968	71.82804
697.0502	72.18256
697.2036	68.68172
697.3569	76.36955
697.5102	76.05991
697.6635	74.53786
697.8168	75.99149
697.9702	75.34761
698.1235	74.74052
698.2768	78.832
698.4301	75.95448
698.5833	73.52498
698.7366	79.7674
698.8898	77.94252
699.0431	82.76203
699.1964	83.56638
699.3495	81.81155
699.5028	81.59174
699.656	82.08813
699.8092	82.85458
699.9624	80.48433
700.1156	84.63821
700.2688	84.7418
700.4219	82.58886
700.5751	87.66013
700.7283	84.14787
700.8814	85.56156
701.0345	87.22245
701.1877	87.65311
701.3408	88.93412
701.4939	85.23754
701.647	87.17065
701.8001	90.98775
701.9532	85.1955
702.1063	90.8247
702.2593	90.44592
702.4124	93.04218
702.5654	92.97117
702.7184	89.7657
702.8715	88.61296
703.0245	88.48679
703.1776	94.75037
703.3305	96.43946
703.4835	97.84799
703.6365	101.2457
703.7895	98.32114
703.9424	101.2494
704.0954	98.90963
704.2484	104.5178
704.4013	105.101
704.5543	101.7793
704.7072	104.8465
704.8601	106.9425
705.013	104.3371
705.1659	107.6983
705.3188	105.614
705.4717	104.1129
705.6246	108.9339
705.7774	113.7758
705.9303	108.478
706.0831	114.4954
706.236	114.9176
706.3888	113.3993
706.5416	114.5926
706.6944	115.5513
706.8472	109.2928
707	112.9771
707.1528	115.5878
707.3056	113.2883
707.4583	115.5342
707.6111	111.2839
707.7639	118.2231
707.9166	117.0391
708.0693	114.4626
708.222	124.7313
708.3748	125.4785
708.5275	116.0153
708.6802	120.2721
708.8328	119.4241
708.9855	117.9555
709.1382	121.8354
709.2909	123.8727
709.4435	125.705
709.5962	124.9441
709.7488	126.3158
709.9014	126.8829
710.054	128.1703
710.2067	128.9191
710.3593	134.693
710.5118	127.2402
710.6644	130.4771
710.817	131.0065
710.9695	126.907
711.1221	129.386
711.2747	125.9634
711.4272	132.938
711.5797	135.7077
711.7322	136.1667
711.8848	136.4556
712.0373	139.3142
712.1898	138.5523
712.3422	137.0845
712.4948	133.6835
712.6472	131.4881
712.7996	138.7072
712.9521	141.3933
713.1046	132.7692
713.257	139.6138
713.4094	139.6702
713.5618	137.903
713.7142	143.4578
713.8666	148.4198
714.019	144.4769
714.1714	139.3721
714.3237	143.7412
714.4761	147.855
714.6285	144.8419
714.7808	142.9677
714.9331	134.9957
715.0854	140.0797
715.2378	139.2486
715.3901	142.445
715.5424	149.0312
715.6947	145.3954
715.8469	149.163
715.9992	146.5443
716.1515	145.8514
716.3037	148.7446
716.456	145.4852
716.6082	140.7615
716.7604	133.038
716.9127	128.2931
717.0649	133.9314
717.2171	133.2448
717.3693	134.0183
717.5214	130.9551
717.6736	133.7811
717.8258	128.5722
717.978	134.768
718.1301	140.3332
718.2822	140.3904
718.4344	130.4311
718.5865	127.6132
718.7386	126.8763
718.8907	124.8018
719.0428	134.7058
719.1949	129.1328
719.3469	131.3945
719.499	133.8515
719.6511	137.5357
719.8031	136.1673
719.9551	132.773
720.1072	134.9051
720.2592	131.6134
720.4112	136.7513
720.5632	135.8342
720.7152	140.7315
720.8672	146.6156
721.0192	152.373
721.1711	153.1353
721.3231	159.5079
721.475	161.5322
721.627	159.5547
721.7789	162.0133
721.9308	161.2675
722.0828	166.7864
722.2347	172.4494
722.3866	170.6683
722.5385	167.1287
722.6903	167.3128
722.8422	173.9534
722.9941	167.2141
723.1459	166.4057
723.2977	160.1583
723.4496	141.5569
723.6014	141.4348
723.7532	150.9536
723.905	166.3706
724.0568	160.0316
724.2086	157.4076
724.3604	157.333
724.5121	155.843
724.6639	157.3716
724.8157	166.2181
724.9674	168.7673
725.1191	161.7245
725.2709	157.4284
725.4226	146.7304
725.5743	158.6261
725.726	170.3302
725.8777	180.1817
726.0294	177.27
726.181	169.229
726.3327	171.2192
726.4844	159.3202
726.636	165.8238
726.7877	174.9246
726.9393	182.9585
727.0909	181.4275
727.2425	178.1267
727.3941	174.069
727.5457	160.4931
727.6973	156.5841
727.8488	158.1834
728.0004	167.3151
728.1519	180.5224
728.3035	180.8069
728.455	182.5862
728.6066	179.0345
728.7581	176.4626
728.9095	174.5474
729.0611	165.4559
729.2126	168.5852
729.364	163.1706
729.5155	172.0072
729.667	186.152
729.8184	193.3116
729.9698	193.5401
730.1213	189.1763
730.2727	176.2676
730.4241	178.6962
730.5756	181.4892
730.7269	184.3492
730.8784	189.4741
731.0297	185.2949
731.1811	183.8863
731.3325	192.0307
731.4838	192.2915
731.6351	192.4155
731.7865	188.4746
731.9378	196.7332
732.0891	198.3603
732.2404	201.0313
732.3917	204.7536
732.543	205.0535
732.6943	199.8336
732.8456	204.7287
732.9968	203.8609
733.1481	204.8354
733.2993	206.2138
733.4506	204.9685
733.6018	209.1264
733.753	214.509
733.9042	214.6917
734.0554	222.2751
734.2066	226.3644
734.3578	225.4337
734.509	219.3784
734.6602	216.0807
734.8113	217.6855
734.9624	215.2587
735.1136	215.5137
735.2647	210.2967
735.4158	212.611
735.5669	213.0653
735.718	214.6415
735.8691	212.146
736.0201	218.0676
736.1713	216.4857
736.3223	220.1904
736.4733	225.7732
736.6244	222.5437
736.7755	221.4244
736.9265	220.8615
737.0775	220.7112
737.2285	228.709
737.3795	222.1163
737.5305	224.1227
737.6815	224.106
737.8324	230.7612
737.9834	226.2846
738.1343	226.3611
738.2853	229.6897
738.4362	229.2939
738.5871	219.0709
738.738	222.7948
738.8889	228.5957
739.0399	221.4343
739.1907	220.355
739.3416	216.5627
739.4925	225.2763
739.6433	220.7821
739.7942	223.972
739.945	230.7128
740.0958	232.8337
740.2467	237.9505
740.3975	232.7555
740.5483	235.9736
740.6991	229.091
740.8499	227.8577
741.0007	226.4627
741.1514	223.4222
741.3022	228.621
741.4529	224.3205
741.6036	230.1508
741.7544	233.2564
741.9051	229.5169
742.0558	230.6806
742.2065	221.8605
742.3572	223.3649
742.5079	223.1655
742.6586	226.007
742.8093	233.4214
742.9599	237.7031
743.1105	237.8886
743.2612	239.3493
743.4118	243.5105
743.5624	237.1628
743.7131	230.31
743.8636	230.8161
744.0142	233.7582
744.1648	234.9225
744.3154	233.0064
744.4659	235.6417
744.6165	232.7508
744.767	227.1491
744.9176	228.7578
745.0681	228.8002
745.2186	228.4539
745.3691	240.5752
745.5197	240.5819
745.6702	242.4421
745.8206	241.1027
745.9711	235.7125
746.1215	229.1694
746.272	233.9849
746.4224	225.7917
746.5729	233.7715
746.7233	231.685
746.8737	230.701
747.0241	233.4455
747.1745	234.0262
747.3249	234.2702
747.4753	234.2071
747.6257	234.6378
747.776	225.1934
747.9264	231.7823
748.0767	229.1497
748.2271	231.1547
748.3774	223.4521
748.5276	228.5945
748.678	221.0597
748.8282	222.4997
748.9786	230.5276
749.1288	224.6878
749.2791	224.2083
749.4294	216.7152
749.5796	223.1785
749.7299	222.2888
749.8801	219.8638
750.0303	224.0844
750.1805	227.7972
750.3307	223.6121
750.4809	225.4397
750.6311	226.4297
750.7813	231.4722
750.9314	222.0881
751.0816	215.9562
751.2318	220.2805
751.3818	214.4786
751.532	221.7483
751.6821	219.8488
751.8322	214.867
751.9823	224.9562
752.1324	218.5456
752.2825	214.776
752.4326	221.5296
752.5826	221.7124
752.7327	218.9937
752.8827	227.3989
753.0327	216.8922
753.1827	216.9268
753.3328	213.0147
753.4828	211.0401
753.6328	216.2832
753.7828	214.2101
753.9327	212.6837
754.0827	213.8667
754.2327	221.9058
754.3826	221.3922
754.5325	214.4358
754.6825	216.424
754.8324	212.2832
754.9823	210.0014
755.1322	215.7053
755.2821	213.026
755.432	211.3686
755.5818	208.87
755.7318	210.2117
755.8816	203.8951
756.0314	211.0868
756.1813	206.8785
756.3311	203.6883
756.4809	208.7774
756.6307	204.0273
756.7805	204.9475
756.9303	204.4456
757.0801	211.1622
757.2299	201.0066
757.3796	200.321
757.5294	202.907
757.6791	200.5484
757.8289	203.6085
757.9786	202.3491
758.1283	198.9268
758.278	198.4028
758.4277	205.914
758.5773	202.3435
758.7271	194.7757
758.8767	193.1664
759.0264	199.2093
759.176	191.4074
759.3256	171.6967
759.4753	145.9526
759.6249	110.7515
759.7745	86.07372
759.9241	78.34939
760.0737	70.66939
760.2233	57.32317
760.3729	51.92842
760.5224	53.4594
760.6719	46.88216
760.8215	46.33658
760.971	49.60906
761.1205	57.54156
761.2701	65.27444
761.4196	77.37731
761.5691	94.78432
761.7186	119.7604
761.868	137.4499
762.0175	139.771
762.167	129.0384
762.3164	113.4887
762.4659	109.0023
762.6153	99.96277
762.7647	90.97392
762.9141	89.73746
763.0635	90.57778
763.2129	94.25191
763.3623	89.63984
763.5117	90.32668
763.661	98.0163
763.8104	103.025
763.9597	103.0131
764.1091	103.0545
764.2584	106.0424
764.4077	110.3914
764.557	116.8169
764.7063	119.8305
764.8556	120.5535
765.0049	125.2083
765.1541	121.7905
765.3034	125.1261
765.4526	136.4954
765.6019	134.3273
765.7511	136.1808
765.9003	139.7867
766.0496	135.4603
766.1987	143.5794
766.348	144.1281
766.4971	144.8359
766.6463	146.5889
766.7955	152.7375
766.9446	153.5829
767.0938	154.517
767.2429	154.9496
767.392	159.4465
767.5411	159.2349
767.6902	161.4211
767.8394	167.0558
767.9884	158.185
768.1375	161.2746
768.2866	163.7507
768.4356	165.3787
768.5847	166.5692
768.7337	165.3842
768.8828	167.2692
769.0317	165.6131
769.1808	157.4549
769.3298	166.174
769.4788	166.1759
769.6277	165.4774
769.7767	165.168
769.9257	160.4294
770.0746	170.5005
770.2236	167.8719
770.3725	166.3182
770.5214	166.6152
770.6703	172.1245
770.8193	169.3701
770.9681	166.3496
771.1171	159.7204
771.2659	169.4858
771.4148	161.0902
771.5637	160.822
771.7125	165.3343
771.8613	172.0427
772.0101	168.4692
772.159	164.1906
772.3078	162.9603
772.4566	165.2419
772.6054	162.9876
772.7542	158.8661
772.903	161.7879
773.0517	161.2851
773.2004	168.1643
773.3492	164.3774
773.4979	168.2258
773.6467	163.8019
773.7953	160.1728
773.944	164.0117
774.0928	161.7655
774.2415	159.3725
774.3901	154.0046
774.5388	155.0257
774.6874	156.45
774.8361	157.7186
774.9847	157.6065
775.1334	152.8849
775.282	158.0161
775.4305	158.7328
775.5792	153.6268
775.7277	156.1443
775.8763	158.0583
776.0249	164.4092
776.1735	158.0155
776.322	158.5021
776.4705	155.0617
776.6191	159.2314
776.7676	161.0734
776.9161	155.2846
777.0646	153.1547
777.2131	152.8148
777.3616	155.3936
777.5101	156.523
777.6585	152.108
777.8069	151.1333
777.9554	157.0114
778.1038	156.0002
778.2523	151.2419
778.4007	151.083
778.5491	157.4841
778.6974	155.3821
778.8459	151.8314
778.9942	154.2349
779.1426	154.987
779.291	157.6023
779.4393	150.6868
779.5876	147.0916
779.736	156.332
779.8843	146.3032
780.0326	150.1331
780.1809	147.4148
780.3292	146.6374
780.4775	146.266
780.6257	146.7033
780.774	152.5555
780.9222	148.0243
781.0704	149.9896
781.2187	149.8773
781.3669	144.0293
781.5151	149.5213
781.6633	152.2411
781.8115	153.5001
781.9597	156.6264
782.1078	152.1271
782.256	146.0577
782.4042	150.4408
782.5523	152.5483
782.7004	149.4678
782.8486	150.6125
782.9967	147.0753
783.1448	145.9076
783.2929	143.7996
783.441	142.0509
783.5891	140.8161
783.7371	140.0704
783.8851	141.4829
784.0332	141.7034
784.1812	141.282
784.3293	143.9095
784.4773	148.1298
784.6253	146.1296
784.7733	141.7906
784.9213	144.3883
785.0692	136.687
785.2172	135.7821
785.3652	141.929
785.5131	140.6002
785.6611	142.338
785.809	141.23
785.9569	140.5586
786.1048	137.955
786.2527	131.6688
786.4006	136.9978
786.5485	140.2353
786.6964	139.1324
786.8442	138.8118
786.9921	134.2975
787.1399	132.2804
787.2877	139.3012
787.4355	140.8216
787.5833	138.4703
787.7311	138.3179
787.8789	136.6863
788.0267	135.2878
788.1745	134.7225
788.3223	134.8327
788.47	130.9433
788.6177	135.0519
788.7654	131.8116
788.9132	130.7193
789.0609	132.1757
789.2086	129.71
789.3563	131.9935
789.504	133.1792
789.6517	130.0212
789.7993	130.1261
789.947	135.5208
790.0946	134.4391
790.2422	132.369
790.3898	128.034
790.5375	130.2946
790.6851	134.8554
790.8326	132.4389
790.9802	129.1205
791.1278	127.3348
791.2754	126.1921
791.423	128.9796
791.5705	128.7118
791.718	128.8611
791.8655	124.2594
792.0131	121.1495
792.1606	124.6497
792.308	128.2565
792.4556	129.6648
792.603	129.887
792.7505	130.8044
792.8979	124.1558
793.0454	122.9854
793.1928	125.7028
793.3403	124.0678
793.4877	131.04
793.6351	130.7108
793.7825	129.2472
793.9299	123.035
794.0772	125.2083
794.2246	125.0562
794.3719	127.8507
794.5193	120.3747
794.6666	121.6108
794.814	119.9304
794.9613	126.3022
795.1086	123.108
795.2559	123.6124
795.4032	124.8105
795.5505	123.6418
795.6978	130.1294
795.845	126.6155
795.9922	122.3657
796.1395	119.5282
796.2867	116.9334
796.4339	117.0743
796.5811	116.4629
796.7283	122.2852
796.8755	122.6643
797.0227	121.1866
797.1699	124.4514
797.317	119.3305
797.4642	119.036
797.6113	118.5587
797.7584	118.5037
797.9056	121.6115
798.0527	119.0971
798.1998	123.9589
798.3469	120.5966
798.494	120.2553
798.641	114.1314
798.7881	115.1862
798.9351	120.691
799.0822	123.9147
799.2292	120.7523
799.3762	117.7716
799.5232	121.1671
799.6702	120.1406
799.8172	118.9312
799.9642	117.5742
800.1111	112.3921
800.2581	108.5864
800.4051	117.8194
800.552	116.4852
800.6989	115.8396
800.8458	116.8706
800.9927	112.6367
801.1396	118.8795
801.2866	115.8924
801.4334	111.5747
801.5803	111.3308
801.7272	111.7475
801.874	117.3532
802.0209	118.217
802.1677	110.8656
802.3145	111.7053
802.4613	109.5055
802.6081	108.2433
802.7549	106.3278
802.9017	107.9309
803.0485	109.3253
803.1952	113.3192
803.342	111.4514
803.4887	109.4604
803.6354	111.8219
803.7822	111.255
803.9289	109.9422
804.0756	115.705
804.2223	112.8527
804.369	108.4052
804.5156	106.4343
804.6623	107.1731
804.8089	105.2526
804.9556	107.4069
805.1022	103.1196
805.2488	105.4073
805.3954	110.7045
805.542	110.6758
805.6886	107.7664
805.8352	110.2612
805.9818	107.1779
806.1283	108.931
806.2749	110.4644
806.4214	111.6313
806.5679	109.2545
806.7145	102.8583
806.861	102.7288
807.0074	99.12762
807.154	100.8902
807.3004	105.7743
807.4469	105.5232
807.5934	105.5624
807.7398	103.8034
807.8862	101.9007
808.0327	102.4729
808.1791	105.0578
808.3255	100.4928
808.4719	95.05843
808.6183	99.33749
808.7647	102.4185
808.9111	98.40839
809.0574	102.8652
809.2037	102.9744
809.3501	99.35613
809.4965	100.6205
809.6428	97.28342
809.7891	100.1633
809.9354	96.2798
810.0817	96.09626
810.2279	98.3193
810.3742	99.24367
810.5204	96.06432
810.6667	99.31299
810.8129	99.23392
810.9592	97.75994
811.1054	92.98866
811.2516	93.59441
811.3978	95.90235
811.5439	98.83728
811.6901	93.04764
811.8363	93.1658
811.9825	96.64809
812.1286	91.4336
812.2748	90.03921
812.4209	94.2496
812.567	96.40414
812.7131	94.9295
812.8592	89.57979
813.0053	85.05209
813.1514	88.26028
813.2974	80.71665
813.4435	85.02838
813.5895	79.35514
813.7356	84.44473
813.8816	87.49347
814.0276	84.41099
814.1736	79.17644
814.3196	75.86515
814.4656	78.09715
814.6116	78.57615
814.7576	76.28665
814.9035	71.78882
815.0494	74.70978
815.1954	72.95377
815.3413	75.8189
815.4872	71.41463
815.6331	75.07264
815.779	77.80891
815.9249	75.51288
816.0707	72.62914
816.2166	72.52847
816.3625	68.45539
816.5083	63.26759
816.6542	72.58521
816.8	75.92572
816.9458	72.26749
817.0916	71.94592
817.2374	73.39721
817.3832	76.38191
817.5289	75.40626
817.6747	75.695
817.8204	67.299
817.9662	64.79802
818.1119	65.28666
818.2576	69.99737
818.4034	73.43275
818.5491	70.19316
818.6948	73.50127
818.8405	71.07802
818.9861	71.10826
819.1318	75.47058
819.2774	71.30167
819.423	69.85168
819.5687	66.09397
819.7143	69.72982
819.8599	66.70838
820.0055	66.98119
820.1511	70.38196
820.2967	78.12309
820.4422	85.99738
820.5878	81.23853
820.7333	81.86198
820.8788	78.21175
821.0244	74.59452
821.1699	74.06622
821.3154	71.6183
821.4609	75.81634
821.6064	77.31122
821.7519	78.94948
821.8973	74.54233
822.0428	73.28693
822.1882	76.70541
822.3337	71.26933
822.4791	68.4344
822.6245	63.02568
822.7699	58.92253
822.9153	56.89348
823.0607	52.60789
823.2061	52.93989
823.3514	56.06184
823.4968	66.06515
823.6422	70.86341
823.7875	75.29126
823.9328	75.31384
824.0781	73.93594
824.2234	69.23952
824.3687	68.46718
824.514	69.96903
824.6592	74.20919
824.8045	78.06672
824.9498	82.44089
825.095	72.76785
825.2402	76.9216
825.3854	70.69402
825.5306	70.74989
825.6758	67.14999
825.821	66.45795
825.9662	74.24489
826.1114	73.79186
826.2565	73.65807
826.4017	69.25677
826.5468	71.16433
826.692	75.59628
826.837	75.23715
826.9822	74.2263
827.1273	69.15128
827.2723	66.99769
827.4174	65.75069
827.5625	63.54414
827.7075	66.36829
827.8526	68.1487
827.9976	70.09224
828.1426	67.11488
828.2877	65.56488
828.4327	70.45636
828.5776	70.99426
828.7227	73.41597
828.8676	69.23341
829.0126	66.33204
829.1575	68.86353
829.3024	64.87685
829.4474	61.16974
829.5923	65.69884
829.7372	65.48387
829.8821	65.86063
830.027	72.14883
830.1719	70.82738
830.3168	70.98845
830.4616	62.78554
830.6064	61.44453
830.7513	64.08807
830.8961	72.63392
831.041	72.81632
831.1857	70.95413
831.3306	66.09849
831.4753	61.32657
831.6201	68.41636
831.7649	68.97523
831.9096	65.81661
832.0544	63.49298
832.1991	64.39218
832.3438	65.32716
832.4885	64.64692
832.6332	69.89256
832.778	64.70831
832.9226	62.17961
833.0673	66.31103
833.2119	66.80122
833.3566	66.97753
833.5012	62.78195
833.6459	63.89606
833.7905	65.48134
833.9351	67.91178
834.0797	64.9604
834.2243	65.62636
834.3688	65.03289
834.5134	66.26245
834.658	69.11617
834.8026	67.66054
834.9471	67.21232
835.0916	70.82504
835.2361	66.38285
835.3806	67.1306
835.5251	71.21014
835.6696	67.61565
835.8141	64.7996
835.9586	63.58286
836.103	63.86127
836.2474	67.84409
836.3918	69.95835
836.5363	68.29549
836.6807	68.64027
836.8251	73.12628
836.9695	70.48472
837.1138	66.44327
837.2582	65.09308
837.4026	66.23663
837.5469	67.99796
837.6913	68.91359
837.8356	67.48816
837.9799	68.76793
838.1242	69.01167
838.2686	70.27805
838.4128	67.46486
838.5571	67.89147
838.7014	66.67907
838.8456	68.68423
838.9899	68.50641
839.1341	67.19471
839.2783	65.05361
839.4225	66.7076
839.5667	64.18082
839.7109	66.68182
839.8551	68.79845
839.9993	64.92844
840.1434	61.0327
840.2876	67.40086
840.4317	70.37381
840.5759	67.60437
840.72	66.69462
840.8641	59.06168
841.0082	62.47211
841.1523	67.422
841.2963	64.48656
841.4404	65.38867
841.5845	63.27428
841.7285	64.14899
841.8726	63.18391
842.0165	66.49895
842.1606	68.67674
842.3046	63.58608
842.4485	64.11512
842.5925	62.27957
842.7365	65.50964
842.8805	65.27583
843.0244	64.15871
843.1684	63.51585
843.3123	62.54118
843.4562	59.43608
843.6002	63.50724
843.744	62.93683
843.8879	62.36206
844.0318	64.85837
844.1757	68.75702
844.3195	64.83353
844.4634	64.04057
844.6072	66.71165
844.751	62.83203
844.8948	63.44465
845.0386	63.00726
845.1824	58.45175
845.3262	66.26077
845.47	64.605
845.6138	65.99474
845.7575	62.8401
845.9012	60.08308
846.045	63.22726
846.1887	63.62873
846.3324	59.27921
846.4761	61.1363
846.6198	62.11572
846.7635	62.53036
846.9071	62.19281
847.0508	64.87563
847.1944	64.38708
847.3381	62.99535
847.4817	64.9838
847.6253	63.27716
847.7689	55.25291
847.9125	57.86621
848.0561	62.18252
848.1996	62.52055
848.3432	65.28017
848.4868	60.95138
848.6303	63.52341
848.7738	61.25956
848.9174	64.53008
849.0609	60.05143
849.2043	59.00833
849.3478	59.03415
849.4913	55.27117
849.6348	54.62891
849.7782	54.43999
849.9217	50.43949
850.0651	53.09278
850.2086	57.3773
850.3519	56.96117
850.4954	58.67966
850.6387	59.38258
850.7821	58.71804
850.9255	62.31432
851.0688	58.32997
851.2122	58.69445
851.3555	54.1257
851.4988	62.15491
851.6422	58.93308
851.7855	64.62228
851.9288	65.26662
852.0721	59.56106
852.2153	53.54669
852.3586	54.61333
852.5018	53.46507
852.6451	60.18699
852.7883	57.14313
852.9315	55.08818
853.0748	55.82811
853.218	59.97331
853.3611	59.54459
853.5043	55.72614
853.6475	52.94873
853.7906	53.59172
853.9338	47.19334
854.0769	45.44972
854.22	40.19759
854.3632	39.85455
854.5063	42.64637
854.6494	46.65109
854.7924	49.97593
854.9355	52.02851
855.0786	54.54068
855.2216	55.00809
855.3647	53.29012
855.5077	54.23378
855.6507	55.34539
855.7937	53.09093
855.9367	61.58123
856.0797	52.49804
856.2227	54.61736
856.3657	59.56767
856.5086	55.77723
856.6516	54.1994
856.7945	51.26024
856.9374	57.37246
857.0803	57.25672
857.2232	60.73811
857.3661	60.63901
857.509	52.67179
857.6519	59.94437
857.7947	57.67945
857.9376	55.55448
858.0804	52.60261
858.2232	50.01702
858.366	53.87983
858.5089	56.96522
858.6516	52.75816
858.7944	52.2408
858.9372	56.66336
859.08	57.61078
859.2227	53.39884
859.3654	52.18573
859.5082	51.7397
859.6509	52.40132
859.7936	52.85175
859.9363	52.95473
860.079	56.33194
860.2217	55.2786
860.3643	52.73874
860.507	56.26732
860.6496	52.25824
860.7922	55.9826
860.9349	53.17406
861.0775	54.26299
861.2201	55.408
861.3627	53.1766
861.5052	51.01701
861.6478	50.89766
861.7904	51.04605
861.9329	50.57176
862.0755	47.18859
862.218	49.10264
862.3605	53.21455
862.503	51.16253
862.6455	59.71677
862.788	56.64222
862.9305	57.43441
863.0729	57.47311
863.2154	59.55168
863.3578	49.9583
863.5002	49.97594
863.6426	52.32126
863.7851	49.79095
863.9275	52.54354
864.0698	49.93612
864.2122	54.68648
864.3546	53.37986
864.4969	50.39868
864.6393	50.30222
864.7816	44.63645
864.924	51.50249
865.0662	50.04028
865.2086	49.04173
865.3508	50.76998
865.4931	51.62281
865.6354	42.84404
865.7776	41.45725
865.9199	39.47927
866.0621	41.19098
866.2043	35.99192
866.3466	33.43476
866.4888	32.60115
866.6309	39.50687
866.7731	47.58418
866.9153	48.49683
867.0574	46.42543
867.1996	40.66149
867.3417	47.1694
867.4839	48.38509
867.626	43.64182
867.7681	46.36294
867.9102	50.18361
868.0522	47.62104
868.1943	48.9216
868.3364	45.08157
868.4785	44.47791
868.6205	50.49686
868.7625	47.19682
868.9045	44.6806
869.0465	45.46403
869.1885	44.37849
869.3305	46.3673
869.4725	41.00648
869.6144	48.26413
869.7564	45.26687
869.8983	45.54861
870.0403	46.06563
870.1822	46.75428
870.3241	43.6652
870.466	42.86963
870.6079	44.09122
870.7498	45.08142
870.8916	50.10068
871.0335	45.92645
871.1754	43.14035
871.3171	44.06893
871.459	43.04914
871.6008	42.8706
871.7426	44.72952
871.8844	45.59985
872.0262	47.98197
872.1679	45.52136
872.3097	44.64809
872.4514	42.45845
872.5931	46.77212
872.7349	42.86317
872.8766	41.53727
873.0183	43.86848
873.16	43.68972
873.3017	43.58717
873.4434	45.13323
873.585	47.15738
873.7266	44.69968
873.8683	42.99187
874.0099	41.96932
874.1516	41.30395
874.2932	42.22091
874.4348	42.98939
874.5763	44.16024
874.7179	41.97005
874.8594	41.64243
875.001	47.11524
875.1425	46.22703
875.2841	43.27234
875.4256	39.72779
875.5671	41.74482
875.7086	38.66788
875.85	42.49615
875.9915	43.4163
876.133	40.04777
876.2744	43.06029
876.4159	41.35086
876.5573	43.35514
876.6987	42.00611
876.8401	36.53531
876.9815	44.3377
877.1229	45.92663
877.2643	47.3917
877.4056	38.09496
877.547	40.05515
877.6884	40.57531
877.8297	40.56781
877.971	41.44552
878.1123	40.80595
878.2536	38.75072
878.3949	37.49867
878.5362	40.53298
878.6774	44.05188
878.8187	42.67849
878.9599	39.08099
879.1011	37.90498
879.2424	40.71042
879.3836	40.36263
879.5248	39.10192
879.666	40.28782
879.8071	41.82692
879.9483	41.716
880.0895	39.27691
880.2306	39.12561
880.3718	38.13345
880.5129	38.77906
880.654	39.12345
880.7951	40.04206
880.9362	37.97618
881.0773	38.06502
881.2183	42.44348
881.3594	41.99767
881.5004	37.53165
881.6414	39.79896
881.7825	40.17904
881.9235	42.59529
882.0645	35.70396
882.2054	38.92848
882.3464	40.44393
882.4874	39.4698
882.6284	41.61824
882.7693	37.5241
882.9103	38.9843
883.0512	40.65971
883.1921	35.84472
883.333	35.40186
883.4739	43.21329
883.6147	43.17236
883.7556	39.49864
883.8965	40.68197
884.0374	36.5527
884.1782	38.52118
884.319	37.81473
884.4598	34.36136
884.6006	41.41278
884.7414	37.11964
884.8822	40.95779
885.0229	37.20913
885.1637	37.05415
885.3044	35.47
885.4452	38.26932
885.5859	40.74784
885.7266	37.83541
885.8673	35.28845
886.008	30.93518
886.1487	39.01958
886.2894	41.75813
886.43	32.74797
886.5707	33.77309
886.7113	34.6027
886.8519	33.78058
886.9926	34.31795
887.1331	32.5699
887.2737	32.86166
887.4143	35.52273
887.5549	34.71619
887.6954	31.87312
887.836	34.44573
887.9765	40.44968
888.1171	32.54645
888.2576	29.94153
888.3981	35.76384
888.5386	36.99326
888.679	35.07071
888.8195	33.21923
888.96	35.34361
889.1004	33.53755
889.2408	34.11097
889.3813	38.17167
889.5217	38.88818
889.6621	36.24805
889.8025	35.92064
889.9429	37.44804
890.0833	35.38732
890.2236	32.65476
890.364	28.62811
890.5043	34.63389
890.6446	32.8049
890.7849	33.5266
890.9252	35.11208
891.0655	34.06934
891.2058	36.88906
891.3461	34.79119
891.4863	34.96165
891.6266	37.72265
891.7668	33.28588
891.907	35.9712
892.0472	35.33935
892.1874	35.05098
892.3276	41.49035
892.4678	39.16748
892.608	27.89336
892.7481	26.05444
892.8883	32.74012
893.0284	33.45082
893.1685	32.23363
893.3087	30.95631
893.4487	29.75602
893.5889	35.80873
893.7289	32.51012
893.869	28.56068
894.009	39.11928
894.1491	34.14238
894.2891	32.54684
894.4291	30.98089
894.5692	30.0195
894.7092	31.20629
894.8491	27.86992
894.9891	32.15553
895.1291	31.13197
895.269	31.52689
895.409	29.39703
895.549	27.36613
895.6888	23.90188
895.8288	28.10357
895.9687	27.12554
896.1086	27.54305
896.2484	28.97704
896.3883	20.31601
896.5281	27.31704
896.668	25.39245
896.8079	27.89473
896.9476	30.88742
897.0875	24.28557
897.2272	26.14034
897.3671	27.00055
897.5068	27.53757
897.6466	28.10663
897.7864	32.30401
897.9261	27.99294
898.0658	29.02022
898.2056	26.30294
898.3453	24.81807
898.4849	27.45337
898.6246	26.6313
898.7643	25.40412
898.904	18.83959
899.0436	18.25859
899.1833	20.70987
899.3229	20.63692
899.4625	25.33879
899.6021	25.58711
899.7417	30.58489
899.8813	26.87696
900.0209	29.28337
900.1605	21.7316
900.3	24.53022
900.4395	19.10639
900.579	19.15651
900.7186	22.99838
900.8581	20.86139
900.9976	22.4371
901.1371	22.38253
901.2766	23.79181
901.416	26.91851
901.5555	22.70204
901.6949	22.96345
901.8344	23.57239
901.9738	24.44261
902.1132	27.72782
902.2526	28.96905
902.3919	26.53099
902.5313	24.78075
902.6707	24.405
