SPECTRUM DATA FILE
SpectrumCount:	1
PixelCount:	3648
UserName:	ToughBook User
SampleName:	
LightSource:	
Comments:	
DeviceName:	Qwave
DeviceManufacturer:	Broadcom
DeviceSerialNo:	11311

Name:	last spectrum
Date:	2024-05-02T14:42:04.3230401+02:00
ExposureTime:	0.02
TemporalAvg:	1
IntensityUnit:	normalizedCounts
CCDLoadLevel:	0.05513715
Temperature:	31.05875
DiagramColor:	200
ProcessingSteps:	335

Wavelength [nm]	Intensity1
334.421	3.672647
334.5891	5.043172
334.7573	9.340719
334.9254	8.382298
335.0935	7.183722
335.2616	8.562212
335.4297	4.17666
335.5978	9.014354
335.7659	2.377114
335.934	1.993778
336.1021	4.477071
336.2701	5.278245
336.4382	4.063027
336.6063	4.732149
336.7744	6.758293
336.9424	5.400252
337.1105	7.701839
337.2785	0.8891956
337.4466	3.331177
337.6146	1.45269
337.7827	5.256525
337.9507	6.498238
338.1187	5.441598
338.2867	0.8140716
338.4548	0.5349088
338.6228	9.206723
338.7908	5.112971
338.9588	7.458275
339.1268	6.502747
339.2948	3.349334
339.4628	8.126419
339.6308	5.341816
339.7988	1.790506
339.9667	0.4383619
340.1347	2.451527
340.3027	5.052632
340.4707	3.076643
340.6386	3.380525
340.8066	4.698637
340.9745	5.17966
341.1425	9.119139
341.3104	7.162653
341.4784	5.040632
341.6463	4.465388
341.8142	6.453411
341.9821	9.138096
342.1501	6.154875
342.318	1.447159
342.4859	1.305316
342.6538	6.552772
342.8217	6.73547
342.9896	3.281726
343.1575	4.268349
343.3254	4.78944
343.4933	3.923663
343.6612	4.6864
343.829	6.00923
343.9969	6.183846
344.1648	9.452101
344.3326	6.566315
344.5005	3.235967
344.6683	10.31889
344.8362	2.792769
345.004	-0.8526926
345.1719	3.316441
345.3397	6.765927
345.5075	4.713485
345.6754	6.599386
345.8432	5.299098
346.011	3.155085
346.1788	0.6462082
346.3466	-1.002111
346.5144	2.572858
346.6822	6.41429
346.85	5.710121
347.0178	8.375892
347.1856	8.491199
347.3534	5.269294
347.5211	0.07958511
347.6889	4.69912
347.8567	7.051076
348.0244	3.387267
348.1922	5.400405
348.3599	7.431467
348.5277	0.2000658
348.6954	3.276756
348.8632	7.47434
349.0309	6.578962
349.1986	9.709196
349.3663	5.809252
349.5341	5.256869
349.7018	4.188473
349.8695	6.336189
350.0372	6.264171
350.2049	7.581363
350.3726	13.78024
350.5403	7.441851
350.7079	5.147884
350.8756	5.984011
351.0433	4.551197
351.211	7.281003
351.3786	11.3153
351.5463	6.451227
351.714	9.262954
351.8816	6.878165
352.0493	8.097445
352.2169	10.34844
352.3846	7.953147
352.5522	4.084889
352.7198	3.063566
352.8875	5.78803
353.0551	7.935789
353.2227	7.703057
353.3903	4.399728
353.5579	7.546904
353.7255	5.400754
353.8931	4.960032
354.0607	8.555872
354.2283	4.49831
354.3958	6.787662
354.5634	8.261436
354.731	4.511619
354.8986	0.778913
355.0661	5.042069
355.2337	3.521732
355.4012	8.289751
355.5688	1.695764
355.7363	8.047688
355.9039	6.853469
356.0714	8.007631
356.239	2.36604
356.4065	1.282963
356.574	6.024448
356.7415	7.574502
356.909	10.74355
357.0765	6.341349
357.244	7.45795
357.4115	2.885032
357.579	4.877067
357.7465	4.222693
357.914	3.310215
358.0815	4.121978
358.249	4.49383
358.4164	8.135536
358.5839	9.336396
358.7513	4.605004
358.9188	4.446629
359.0862	6.880919
359.2537	6.240882
359.4211	3.567025
359.5886	5.079681
359.756	5.96897
359.9234	8.367536
360.0909	9.582063
360.2583	6.766713
360.4257	6.759369
360.5931	6.614636
360.7605	5.50777
360.9279	2.934945
361.0953	7.72768
361.2627	8.381017
361.4301	4.691009
361.5974	0.4466904
361.7648	2.654536
361.9322	6.704483
362.0995	5.631785
362.2669	10.01155
362.4343	8.843651
362.6016	12.54909
362.769	12.21671
362.9363	10.4728
363.1036	7.305436
363.271	7.159081
363.4383	4.441978
363.6056	6.128372
363.7729	3.818807
363.9402	5.928518
364.1075	12.46757
364.2748	7.64078
364.4421	5.713939
364.6094	6.199914
364.7767	4.747143
364.944	7.827456
365.1113	4.027542
365.2786	10.72043
365.4458	10.32906
365.6131	5.471194
365.7803	11.24222
365.9476	13.15337
366.1148	9.632416
366.2821	12.1868
366.4493	8.643555
366.6166	8.570023
366.7838	12.4312
366.951	7.848248
367.1182	3.346883
367.2855	4.324533
367.4527	6.728931
367.6199	7.650908
367.7871	8.74031
367.9543	8.271926
368.1215	8.05356
368.2886	10.76299
368.4558	11.4428
368.623	8.47834
368.7902	11.33422
368.9573	8.343876
369.1245	10.76034
369.2917	6.554935
369.4588	5.960879
369.6259	6.650198
369.7931	8.226728
369.9602	12.03987
370.1274	11.96772
370.2945	6.792782
370.4616	8.775951
370.6287	9.932099
370.7958	7.935446
370.963	8.518748
371.1301	5.603823
371.2971	11.14818
371.4643	10.92304
371.6313	6.340648
371.7984	7.594356
371.9655	7.093212
372.1326	8.271159
372.2997	6.791049
372.4667	9.40132
372.6338	11.77052
372.8008	13.04146
372.9679	13.06509
373.1349	12.74384
373.3019	6.6407
373.469	3.771884
373.636	3.114042
373.803	11.95334
373.9701	11.39378
374.1371	9.343251
374.3041	3.881401
374.4711	4.075817
374.6381	7.427753
374.8051	7.962209
374.9721	9.137322
375.1391	10.61618
375.3061	11.58055
375.473	11.51087
375.64	10.79615
375.8069	10.74982
375.9739	8.778936
376.1409	7.704363
376.3078	10.69904
376.4748	7.322575
376.6417	10.90657
376.8087	8.893812
376.9756	10.40793
377.1425	10.08797
377.3094	6.890582
377.4763	11.16256
377.6432	14.06289
377.8102	10.12761
377.9771	7.645391
378.144	10.75259
378.3109	6.669939
378.4777	5.417119
378.6446	6.706821
378.8115	10.94662
378.9784	10.68708
379.1452	11.03915
379.3121	10.1735
379.4789	13.05737
379.6458	9.729067
379.8127	8.791862
379.9795	9.698244
380.1463	11.3657
380.3131	11.04902
380.48	11.7854
380.6468	12.1814
380.8136	6.015773
380.9804	10.64459
381.1472	8.618726
381.314	11.65421
381.4808	11.89004
381.6476	4.817257
381.8144	6.734755
381.9812	5.659787
382.148	10.77958
382.3147	5.467389
382.4815	11.32245
382.6483	8.91525
382.815	10.32156
382.9818	4.587359
383.1485	7.918832
383.3153	3.782793
383.482	9.656418
383.6487	9.767037
383.8155	13.33234
383.9822	9.833031
384.1489	10.01931
384.3156	8.381924
384.4823	10.14309
384.649	10.31951
384.8157	8.2911
384.9824	11.08305
385.1491	8.919856
385.3158	8.306379
385.4825	11.94338
385.6491	13.10393
385.8158	14.87157
385.9825	12.86541
386.1491	9.981197
386.3157	7.128771
386.4824	14.74556
386.649	9.242702
386.8157	10.96169
386.9823	9.788239
387.1489	10.25789
387.3156	8.427556
387.4821	8.231023
387.6488	10.40586
387.8154	9.487288
387.982	13.50256
388.1486	13.14791
388.3152	7.478129
388.4818	10.91043
388.6483	16.19218
388.8149	6.41434
388.9815	10.50377
389.148	15.50774
389.3146	17.90519
389.4811	12.77827
389.6477	10.28141
389.8142	10.22464
389.9808	11.30208
390.1473	13.2898
390.3138	10.5327
390.4804	12.51026
390.6469	8.371568
390.8134	14.17232
390.9799	11.67455
391.1464	12.72552
391.3129	12.89245
391.4794	11.74924
391.6459	11.7273
391.8124	10.28531
391.9789	14.24671
392.1453	10.33939
392.3118	10.07372
392.4782	12.54048
392.6447	14.22623
392.8112	12.23256
392.9776	9.197458
393.144	8.143098
393.3105	7.477998
393.4769	7.469997
393.6433	10.17681
393.8098	7.174801
393.9762	9.906331
394.1426	11.29716
394.309	13.2841
394.4754	16.91584
394.6418	16.47359
394.8082	11.92083
394.9746	14.11226
395.141	13.86102
395.3073	15.79283
395.4737	18.21229
395.64	14.19087
395.8064	14.69183
395.9728	13.6126
396.1391	12.13242
396.3055	16.39729
396.4718	13.21177
396.6381	9.597032
396.8045	8.662267
396.9708	10.71204
397.1371	11.65333
397.3034	9.593999
397.4697	13.60207
397.636	15.69935
397.8023	18.76293
397.9686	15.23834
398.1349	17.54307
398.3012	16.75611
398.4675	19.98595
398.6337	15.01728
398.8	22.51022
398.9662	19.01138
399.1325	17.66855
399.2988	17.51863
399.465	14.12821
399.6313	17.27861
399.7975	13.97556
399.9637	16.77144
400.1299	21.7647
400.2961	23.36911
400.4624	16.73918
400.6286	18.53342
400.7948	19.09995
400.961	21.12885
401.1272	20.81503
401.2934	20.62345
401.4595	16.75532
401.6257	15.64452
401.7919	14.24963
401.9581	18.96399
402.1242	21.4567
402.2904	18.7371
402.4565	19.0071
402.6227	19.31437
402.7888	15.33
402.955	18.94942
403.1211	19.08758
403.2872	16.05536
403.4533	18.1452
403.6194	22.10331
403.7856	24.06209
403.9517	21.19608
404.1177	22.63088
404.2838	21.68643
404.4499	18.02942
404.616	16.65538
404.7821	12.91844
404.9482	19.90432
405.1142	19.94827
405.2803	21.28499
405.4464	18.78844
405.6124	13.93524
405.7784	16.66638
405.9445	19.85126
406.1105	26.59741
406.2766	25.98648
406.4426	19.08617
406.6086	14.64023
406.7746	19.18353
406.9406	21.31779
407.1066	24.10742
407.2726	22.96815
407.4386	19.70957
407.6046	19.73976
407.7706	22.41291
407.9366	17.1718
408.1025	19.65652
408.2685	21.7909
408.4344	18.40942
408.6004	20.28237
408.7664	21.15623
408.9323	28.857
409.0983	20.42585
409.2642	23.18025
409.4301	27.95361
409.596	24.35704
409.762	22.36132
409.9279	22.84419
410.0938	22.03912
410.2597	23.11073
410.4256	26.13057
410.5915	23.39037
410.7574	28.50215
410.9232	22.89989
411.0891	24.08764
411.255	19.61069
411.4209	25.94819
411.5867	30.48787
411.7526	27.82852
411.9184	25.47561
412.0843	27.40471
412.2501	27.22672
412.4159	27.46018
412.5818	25.35451
412.7476	22.08395
412.9134	23.21989
413.0792	24.01116
413.245	27.27956
413.4108	24.84342
413.5766	20.83371
413.7424	26.01178
413.9082	31.50965
414.074	24.59919
414.2397	27.11646
414.4055	32.51957
414.5713	24.33955
414.737	28.54412
414.9028	29.53283
415.0685	26.20208
415.2343	27.41658
415.4	27.73189
415.5658	25.89915
415.7315	27.28393
415.8972	29.63478
416.0629	30.98608
416.2286	31.81488
416.3943	28.47264
416.56	27.86655
416.7257	27.60227
416.8914	27.51419
417.0571	27.71225
417.2228	24.73002
417.3884	28.22834
417.5541	31.27205
417.7198	28.67455
417.8854	26.82273
418.0511	30.40853
418.2167	33.64035
418.3824	28.79228
418.548	27.19586
418.7136	30.38849
418.8792	29.33554
419.0449	29.41759
419.2105	26.95683
419.3761	26.36254
419.5417	31.89737
419.7073	31.734
419.8729	26.2485
420.0385	26.91576
420.204	31.06911
420.3696	31.19838
420.5352	33.57325
420.7007	31.18488
420.8663	31.44594
421.0319	36.76646
421.1974	33.18562
421.3629	36.06402
421.5285	37.13409
421.694	32.91229
421.8595	34.00827
422.0251	30.72334
422.1906	32.19313
422.3561	28.18109
422.5216	32.19456
422.6871	32.31798
422.8526	32.08047
423.0181	29.69168
423.1835	31.40458
423.349	32.76175
423.5145	31.95456
423.68	27.72179
423.8454	31.70298
424.0109	33.59363
424.1763	37.63475
424.3418	38.18667
424.5072	37.13259
424.6726	43.47557
424.838	36.44232
425.0035	35.79894
425.1689	34.28724
425.3343	29.07522
425.4997	36.48623
425.6651	36.80396
425.8305	41.10457
425.9959	36.55658
426.1613	32.82756
426.3267	40.66691
426.492	35.62498
426.6574	37.66971
426.8228	34.79534
426.9881	34.13993
427.1534	33.32319
427.3188	32.63211
427.4841	30.44471
427.6495	38.94474
427.8148	36.49605
427.9801	40.56542
428.1454	33.59883
428.3107	34.12341
428.476	32.48385
428.6414	35.59745
428.8066	38.85904
428.9719	31.1905
429.1372	33.67401
429.3025	35.93836
429.4678	33.72894
429.633	31.10264
429.7983	34.40959
429.9636	29.18007
430.1288	29.76674
430.294	29.57284
430.4593	32.36543
430.6245	32.25838
430.7897	29.76499
430.955	29.01286
431.1202	31.82679
431.2854	30.50768
431.4506	35.13492
431.6158	42.64839
431.781	38.4025
431.9462	42.22631
432.1114	42.17227
432.2766	37.28558
432.4417	35.25385
432.6069	36.41797
432.772	40.43704
432.9372	40.77787
433.1024	46.70163
433.2675	43.0102
433.4326	40.38516
433.5977	40.35295
433.7629	38.15637
433.928	35.93089
434.0931	38.98982
434.2582	33.7882
434.4233	38.9967
434.5884	44.19999
434.7535	44.34861
434.9186	45.496
435.0837	38.85067
435.2488	40.60847
435.4138	42.07804
435.5789	44.03809
435.744	42.07884
435.909	49.92801
436.0741	45.593
436.2391	44.60719
436.4042	46.83027
436.5692	50.40919
436.7342	49.72083
436.8992	44.70104
437.0643	48.85318
437.2293	47.83813
437.3943	45.89818
437.5593	47.86031
437.7243	49.17684
437.8893	40.62198
438.0542	44.93464
438.2192	43.05177
438.3842	40.57471
438.5491	40.47454
438.7141	47.97591
438.8791	45.45664
439.044	46.03866
439.209	54.78014
439.3739	49.88679
439.5388	49.3746
439.7037	50.22219
439.8687	50.06049
440.0336	48.76274
440.1985	50.7921
440.3634	46.98338
440.5283	46.17289
440.6932	44.4643
440.8581	47.47226
441.0229	48.51564
441.1878	54.54284
441.3527	55.25952
441.5175	53.02918
441.6824	53.52433
441.8472	53.40089
442.0121	52.68629
442.1769	54.454
442.3418	51.65231
442.5066	55.41486
442.6714	54.63092
442.8362	48.78764
443.001	54.70632
443.1659	57.69217
443.3307	53.48244
443.4955	52.00613
443.6602	53.10259
443.825	54.6334
443.9898	54.54705
444.1546	54.81756
444.3193	52.34957
444.4841	59.51315
444.6488	58.0478
444.8136	53.33015
444.9783	60.23281
445.1431	57.90712
445.3078	51.24623
445.4725	52.73513
445.6372	49.31719
445.802	51.27673
445.9667	49.33819
446.1314	54.97828
446.2961	51.13067
446.4608	52.74859
446.6255	52.443
446.7901	54.54892
446.9548	60.00728
447.1195	60.8566
447.2841	55.99837
447.4488	58.92985
447.6134	64.64304
447.7781	57.45776
447.9427	59.08788
448.1074	54.44311
448.272	59.55125
448.4366	66.26015
448.6012	61.17664
448.7658	66.03303
448.9305	59.77691
449.095	60.51319
449.2596	60.58336
449.4242	60.90837
449.5888	58.51557
449.7534	63.90811
449.9179	61.61102
450.0825	61.56395
450.2471	65.5817
450.4116	65.13925
450.5762	70.76475
450.7407	68.38916
450.9052	64.10225
451.0698	69.99895
451.2343	68.66184
451.3988	65.92903
451.5633	63.672
451.7278	61.19857
451.8923	64.57911
452.0568	65.29158
452.2213	67.84621
452.3858	67.46307
452.5503	64.61398
452.7148	65.25414
452.8792	56.03228
453.0437	56.78552
453.2081	56.38893
453.3726	60.75578
453.537	65.18912
453.7015	66.68137
453.8659	66.47445
454.0303	65.22876
454.1947	70.66041
454.3592	69.72776
454.5236	65.90568
454.688	64.16019
454.8524	63.96465
455.0168	61.22257
455.1811	68.89033
455.3455	63.46964
455.5099	61.63164
455.6743	65.86977
455.8386	70.85986
456.003	73.76631
456.1673	68.37455
456.3317	73.31419
456.496	70.68004
456.6603	69.13272
456.8246	72.72629
456.989	70.36932
457.1533	71.02502
457.3176	73.1259
457.4819	69.79604
457.6462	71.48756
457.8105	72.86118
457.9748	68.62127
458.1391	71.01618
458.3033	68.09471
458.4676	66.16139
458.6319	66.69308
458.7961	69.13312
458.9604	71.95596
459.1246	71.99706
459.2888	65.18174
459.4531	70.22448
459.6173	72.86877
459.7815	70.26889
459.9457	69.947
460.11	69.01635
460.2741	64.11999
460.4384	65.0555
460.6025	66.92883
460.7667	71.42367
460.9309	68.08827
461.0951	74.00685
461.2592	71.97665
461.4234	68.33234
461.5876	77.21998
461.7517	73.04781
461.9159	72.49155
462.08	71.44632
462.2441	67.23785
462.4082	70.22871
462.5724	75.72262
462.7365	74.26971
462.9006	70.25323
463.0647	71.27312
463.2288	73.30792
463.3929	74.28217
463.557	67.19366
463.721	76.07418
463.8851	73.60924
464.0492	68.92906
464.2132	65.56274
464.3773	70.03894
464.5414	69.37738
464.7054	69.91281
464.8694	68.69039
465.0334	73.03025
465.1975	72.66629
465.3615	68.58437
465.5255	68.26588
465.6895	75.68515
465.8535	74.62913
466.0175	75.65154
466.1815	73.67052
466.3455	72.27472
466.5095	65.71947
466.6734	67.36803
466.8374	70.7405
467.0014	72.93216
467.1653	71.08598
467.3293	71.41548
467.4932	72.67347
467.6571	71.79562
467.8211	72.0807
467.985	69.91299
468.1489	75.68022
468.3128	73.53082
468.4767	77.37634
468.6406	69.6846
468.8045	70.65535
468.9684	72.50042
469.1323	75.13878
469.2962	71.27225
469.46	68.49147
469.6239	82.24329
469.7878	74.37989
469.9516	75.22688
470.1154	74.59875
470.2793	67.79719
470.4431	69.54031
470.607	73.22427
470.7708	69.98852
470.9346	73.12854
471.0984	75.49362
471.2622	76.08842
471.426	73.89534
471.5898	75.20017
471.7536	73.5019
471.9174	74.19764
472.0811	77.79446
472.2449	76.64819
472.4087	74.9406
472.5724	79.74447
472.7362	79.6089
472.8999	78.62074
473.0637	73.93282
473.2274	71.81939
473.3911	74.13338
473.5548	74.87537
473.7185	75.85189
473.8822	73.75713
474.0459	75.68184
474.2096	76.8028
474.3733	79.55513
474.537	81.55585
474.7007	81.73158
474.8643	82.38976
475.028	79.7597
475.1917	80.32333
475.3553	75.43082
475.519	76.92137
475.6826	77.67763
475.8463	79.69797
476.0099	76.2905
476.1735	78.36617
476.3371	70.12833
476.5007	68.63628
476.6643	76.73282
476.8279	75.27021
476.9915	77.27782
477.1551	80.5731
477.3187	80.58469
477.4823	74.43528
477.6458	78.55687
477.8094	74.82889
477.9729	81.77501
478.1365	87.92873
478.3	76.74468
478.4636	77.15289
478.6271	81.10726
478.7906	77.15282
478.9541	73.9526
479.1176	77.81541
479.2812	82.68214
479.4447	84.98373
479.6082	84.9022
479.7716	81.8392
479.9351	74.84611
480.0986	72.53948
480.2621	75.65003
480.4255	82.63485
480.589	78.8821
480.7524	76.35332
480.9159	77.70183
481.0793	78.30651
481.2428	81.44061
481.4062	83.67466
481.5696	81.25455
481.733	79.96482
481.8964	83.78365
482.0598	84.42504
482.2232	82.71444
482.3866	76.16235
482.55	72.54221
482.7134	76.41239
482.8768	79.40723
483.0401	80.53357
483.2035	81.19415
483.3668	80.59413
483.5302	84.27573
483.6935	80.46901
483.8568	77.83241
484.0202	79.97134
484.1835	81.21723
484.3468	82.01593
484.5101	74.75002
484.6734	74.01016
484.8367	78.96892
485	82.4999
485.1633	78.3587
485.3266	77.41824
485.4899	73.30674
485.6531	78.3485
485.8164	70.99632
485.9796	64.55515
486.1429	61.13177
486.3061	63.70032
486.4694	65.06704
486.6326	73.39583
486.7958	73.90926
486.959	76.19197
487.1223	78.2168
487.2855	81.26246
487.4486	75.7567
487.6118	74.04479
487.775	77.87691
487.9382	81.67907
488.1014	86.88929
488.2646	83.13095
488.4277	78.51192
488.5909	78.03644
488.754	78.57502
488.9171	77.81767
489.0803	73.16373
489.2434	78.69502
489.4066	79.41342
489.5697	83.868
489.7328	85.36253
489.8959	84.86391
490.059	84.07485
490.2221	83.74854
490.3852	85.29277
490.5482	87.5554
490.7113	79.11217
490.8744	77.30608
491.0374	79.05174
491.2005	83.12755
491.3636	81.04176
491.5266	81.63783
491.6896	81.45448
491.8527	80.62867
492.0157	78.56644
492.1787	79.0779
492.3417	75.99828
492.5047	76.02432
492.6677	79.62827
492.8307	84.73064
492.9937	82.68298
493.1567	83.69279
493.3196	81.86356
493.4826	81.02251
493.6456	83.64716
493.8085	79.32272
493.9715	84.16184
494.1344	84.30022
494.2974	87.19762
494.4603	87.08138
494.6232	87.57317
494.7861	86.03411
494.949	87.14304
495.1119	83.27026
495.2748	84.90342
495.4377	90.04072
495.6006	83.9772
495.7635	84.6993
495.9264	85.87552
496.0892	89.3129
496.2521	91.73259
496.4149	88.10196
496.5778	93.67396
496.7407	89.35276
496.9035	83.37738
497.0663	83.49603
497.2291	84.00958
497.3919	83.9151
497.5547	90.86599
497.7176	93.45388
497.8804	89.79163
498.0432	81.61402
498.2059	86.58809
498.3687	82.6992
498.5315	83.16483
498.6942	87.34557
498.857	91.8344
499.0198	84.75294
499.1825	92.34398
499.3452	92.19344
499.508	89.49091
499.6707	92.90685
499.8334	91.91567
499.9962	93.65974
500.1589	87.29799
500.3216	90.32346
500.4843	90.32613
500.6469	87.19652
500.8096	86.95862
500.9723	88.71618
501.135	87.51103
501.2976	84.30495
501.4603	89.60231
501.623	91.7252
501.7856	84.92159
501.9482	90.4112
502.1109	95.06662
502.2735	92.46958
502.4361	96.23584
502.5987	100.8229
502.7614	95.51267
502.924	95.0014
503.0865	98.03723
503.2491	99.20558
503.4117	98.51525
503.5743	97.74416
503.7368	93.69525
503.8994	91.07278
504.062	92.65941
504.2245	92.14532
504.3871	98.12941
504.5496	98.98989
504.7121	100.6696
504.8746	101.0112
505.0372	97.89632
505.1997	102.0432
505.3622	102.5409
505.5247	104.4356
505.6872	102.6342
505.8497	103.5584
506.0121	106.1228
506.1746	108.4869
506.3371	110.9282
506.4995	110.9639
506.662	99.5429
506.8244	108.2112
506.9869	107.6022
507.1493	108.8938
507.3117	113.2001
507.4742	106.8281
507.6366	108.0439
507.799	100.0569
507.9614	105.1002
508.1238	104.7077
508.2862	104.4843
508.4485	104.8378
508.6109	110.7207
508.7733	113.9251
508.9357	112.0183
509.098	113.7682
509.2604	114.1413
509.4227	112.5837
509.5851	117.5689
509.7474	118.1103
509.9097	116.6817
510.072	114.7443
510.2343	115.4798
510.3966	113.4989
510.5589	120.7152
510.7212	118.3088
510.8835	123.3168
511.0458	116.4303
511.2081	113.5646
511.3703	117.1631
511.5326	122.871
511.6949	128.8973
511.8571	124.4826
512.0193	121.0651
512.1816	120.66
512.3438	119.4563
512.506	116.3135
512.6682	117.4589
512.8304	120.6638
512.9926	122.2973
513.1548	128.1561
513.317	126.3146
513.4792	123.6157
513.6414	125.873
513.8035	125.5636
513.9657	127.1364
514.1279	124.7267
514.29	125.6806
514.4521	124.6503
514.6143	122.5821
514.7764	127.9821
514.9385	129.5345
515.1006	127.6776
515.2628	132.1555
515.4249	127.1301
515.587	132.2645
515.7491	131.4236
515.9111	136.1177
516.0732	134.5856
516.2353	136.271
516.3973	137.7144
516.5594	127.3701
516.7214	118.2128
516.8835	114.6151
517.0455	109.4623
517.2076	118.4462
517.3696	113.452
517.5316	119.0008
517.6937	134.4529
517.8557	147.2767
518.0176	142.2998
518.1796	135.9216
518.3416	123.3733
518.5036	123.2606
518.6656	135.4743
518.8275	141.8279
518.9895	144.0635
519.1514	145.764
519.3134	149.1517
519.4753	147.5474
519.6373	141.397
519.7992	149.7723
519.9611	159.6223
520.123	159.3324
520.2849	158.5811
520.4468	151.4908
520.6087	153.3335
520.7706	155.5391
520.9325	157.7804
521.0944	161.6761
521.2562	170.9524
521.4181	173.2003
521.58	162.9457
521.7418	155.5484
521.9036	166.4108
522.0655	172.3605
522.2273	173.9482
522.3891	164.9835
522.551	167.2839
522.7128	164.6505
522.8746	167.1078
523.0363	170.9992
523.1981	167.5139
523.3599	178.2779
523.5217	176.8786
523.6835	183.8522
523.8452	185.8624
524.007	199.3811
524.1687	200.6258
524.3304	198.114
524.4922	187.9208
524.6539	191.8324
524.8157	190.9781
524.9774	190.9058
525.1391	189.9026
525.3008	193.465
525.4625	190.7881
525.6241	200.7886
525.7858	202.8598
525.9475	206.3189
526.1092	203.7939
526.2709	191.7582
526.4325	178.7688
526.5942	176.7386
526.7558	176.5906
526.9174	182.704
527.079	179.5137
527.2407	185.9162
527.4023	194.9107
527.5639	200.0964
527.7255	203.503
527.8871	209.0479
528.0487	210.0792
528.2103	208.6201
528.3718	211.0363
528.5334	208.2532
528.695	216.1692
528.8565	230.3051
529.0181	226.9774
529.1796	228.3255
529.3412	226.1112
529.5027	221.3745
529.6642	215.7566
529.8257	209.2469
529.9872	219.1929
530.1487	221.3874
530.3102	218.2868
530.4717	228.3691
530.6332	231.863
530.7947	231.0712
530.9562	235.6769
531.1176	240.1012
531.2791	235.0368
531.4405	225.5768
531.6019	230.2001
531.7634	234.6484
531.9248	232.5317
532.0862	231.3581
532.2477	231.986
532.4091	228.4419
532.5704	221.5934
532.7319	210.3374
532.8932	208.7698
533.0546	216.5524
533.216	220.6935
533.3774	235.3517
533.5388	238.3786
533.7001	234.388
533.8615	233.3467
534.0228	222.098
534.1841	216.3544
534.3455	230.9708
534.5068	234.1866
534.6681	229.2496
534.8293	229.7417
534.9907	229.6799
535.152	234.4879
535.3132	239.5564
535.4745	238.3503
535.6358	240.62
535.7971	239.9132
535.9583	246.379
536.1196	243.1884
536.2808	240.0518
536.4421	229.3261
536.6033	227.6358
536.7645	226.0154
536.9258	226.834
537.087	221.0117
537.2482	224.4485
537.4094	229.04
537.5706	238.772
537.7318	237.573
537.8929	236.4679
538.0541	236.2554
538.2153	228.8561
538.3764	235.7281
538.5376	241.3457
538.6987	239.8285
538.8599	237.8211
539.021	236.2419
539.1821	229.0227
539.3432	225.5386
539.5043	232.6485
539.6655	228.9522
539.8265	230.1614
539.9876	235.3176
540.1487	236.3803
540.3098	234.6579
540.4708	225.3328
540.6319	224.1123
540.793	225.4316
540.954	232.2139
541.1151	234.1421
541.2761	234.0485
541.4371	228.3761
541.5981	230.1826
541.7592	238.6583
541.9202	247.9281
542.0812	243.3334
542.2422	237.8865
542.4031	235.7474
542.5641	235.5297
542.7251	236.6986
542.886	243.6083
543.0471	235.111
543.208	232.8994
543.369	235.5796
543.5298	229.5666
543.6908	243.9143
543.8517	247.8881
544.0126	249.2862
544.1736	248.8855
544.3345	241.6947
544.4954	239.893
544.6563	231.6834
544.8171	235.7488
544.978	238.0842
545.1389	242.9249
545.2997	243.2486
545.4606	240.4286
545.6215	241.9832
545.7823	243.5168
545.9432	246.1904
546.104	246.1892
546.2648	238.8917
546.4256	236.643
546.5864	237.987
546.7473	242.5008
546.908	251.1203
547.0688	251.6773
547.2296	247.7359
547.3904	243.1175
547.5511	243.5062
547.7119	230.6033
547.8727	240.648
548.0334	246.1933
548.1942	237.7924
548.3549	243.6766
548.5156	245.9722
548.6763	255.3819
548.837	246.6962
548.9977	253.5299
549.1584	249.3725
549.3192	250.7054
549.4798	243.1505
549.6405	250.0856
549.8011	246.4982
549.9619	245.8927
550.1225	252.4214
550.2831	251.6318
550.4438	250.1313
550.6044	247.0597
550.765	246.2615
550.9257	248.4156
551.0863	242.0712
551.2469	247.5046
551.4075	245.3213
551.5681	241.9324
551.7287	252.3911
551.8893	258.3756
552.0498	254.693
552.2104	248.5812
552.371	250.3814
552.5315	252.7282
552.6921	245.6921
552.8526	235.1742
553.0131	238.0587
553.1736	241.4765
553.3342	247.2358
553.4947	247.1041
553.6552	243.2118
553.8157	242.9097
553.9762	247.2779
554.1367	243.894
554.2971	247.6763
554.4576	249.1468
554.618	248.8088
554.7785	246.8795
554.939	246.3793
555.0994	248.4379
555.2598	238.0702
555.4203	242.4654
555.5807	245.3284
555.7411	244.2095
555.9015	242.7136
556.0619	247.9505
556.2223	241.9477
556.3827	236.8264
556.5431	233.6964
556.7034	236.6894
556.8638	234.1508
557.0242	229.6764
557.1845	225.9343
557.3448	227.6232
557.5052	223.7237
557.6655	226.2587
557.8259	237.0214
557.9861	235.1039
558.1465	232.1659
558.3068	228.0122
558.467	229.4931
558.6274	226.5036
558.7877	213.4751
558.9479	214.3981
559.1082	218.3427
559.2684	222.8405
559.4287	221.4179
559.5889	233.1048
559.7491	226.29
559.9094	227.75
560.0696	222.0551
560.2299	213.169
560.3901	219.3136
560.5502	225.5871
560.7104	225.9093
560.8707	229.1487
561.0308	231.8834
561.191	227.5622
561.3511	217.3904
561.5114	219.0005
561.6714	213.3142
561.8316	211.2785
561.9918	212.3077
562.1519	219.2638
562.312	219.9762
562.4722	213.6547
562.6323	204.748
562.7924	214.4509
562.9525	221.7966
563.1125	221.0474
563.2726	219.7949
563.4327	216.1471
563.5928	217.3398
563.7528	215.5936
563.9129	202.3926
564.0729	208.4479
564.233	215.7695
564.393	209.3585
564.553	208.0339
564.7131	215.2527
564.873	208.9648
565.0331	210.3394
565.1931	213.4981
565.353	207.572
565.5131	206.4255
565.673	197.2542
565.833	193.6938
565.9929	201.3364
566.1529	198.2624
566.3129	198.7637
566.4728	205.8665
566.6328	197.5282
566.7927	208.3224
566.9526	204.953
567.1125	199.9284
567.2724	204.4299
567.4323	209.8003
567.5922	203.4264
567.7521	197.6098
567.9119	198.8903
568.0718	193.6457
568.2317	188.5058
568.3915	192.4569
568.5514	194.0094
568.7112	196.0495
568.871	186.8878
569.0309	193.5202
569.1907	194.6738
569.3505	197.4577
569.5103	193.1985
569.6701	191.9846
569.8299	197.1583
569.9897	188.923
570.1495	188.581
570.3092	182.8681
570.469	183.7104
570.6287	183.9178
570.7885	176.0004
570.9482	175.0733
571.108	171.1351
571.2677	171.3329
571.4274	180.6431
571.5871	182.8746
571.7468	183.4577
571.9066	188.8627
572.0662	191.9766
572.2259	186.1202
572.3856	180.5245
572.5452	182.6911
572.7049	182.7311
572.8646	179.5817
573.0242	185.8954
573.1838	185.6023
573.3435	173.2609
573.5031	175.372
573.6627	185.6759
573.8223	182.5594
573.9819	178.4299
574.1415	177.5726
574.3011	175.9405
574.4607	177.8615
574.6203	173.1626
574.7798	172.9471
574.9394	173.2925
575.099	171.442
575.2585	169.6296
575.418	170.6585
575.5776	161.876
575.7371	166.9992
575.8966	167.0346
576.0562	166.2579
576.2156	167.0092
576.3751	164.0336
576.5346	174.057
576.6941	167.779
576.8536	168.2123
577.0131	171.6253
577.1725	163.3609
577.332	163.71
577.4914	165.2303
577.6508	168.9242
577.8103	162.3265
577.9697	158.1143
578.1291	150.8075
578.2885	151.2107
578.4479	154.9587
578.6073	157.2774
578.7667	156.5933
578.9261	160.3438
579.0854	157.3724
579.2448	159.3011
579.4042	158.7803
579.5635	159.3689
579.7229	163.1832
579.8822	152.9604
580.0416	154.3808
580.2009	162.6138
580.3602	158.59
580.5195	156.8048
580.6788	161.3734
580.8381	152.9294
580.9974	151.3774
581.1566	152.8522
581.3159	152.3006
581.4752	153.7217
581.6345	156.9418
581.7937	151.4703
581.9529	154.6247
582.1122	156.0819
582.2714	152.199
582.4306	151.6616
582.5898	148.6773
582.749	153.171
582.9082	149.6724
583.0674	149.0772
583.2266	151.5913
583.3857	152.3153
583.5449	148.5545
583.7041	151.2625
583.8633	148.8505
584.0224	147.6346
584.1815	148.3524
584.3407	151.2561
584.4998	152.5252
584.6589	144.0944
584.818	140.0293
584.9771	146.8496
585.1362	146.196
585.2953	141.5469
585.4544	141.5377
585.6135	144.7659
585.7725	139.7645
585.9316	143.3496
586.0906	143.399
586.2497	145.4608
586.4087	140.2611
586.5677	139.4337
586.7267	139.1026
586.8858	142.8109
587.0448	141.0012
587.2038	133.1407
587.3628	139.4375
587.5218	136.981
587.6807	133.3987
587.8397	135.3744
587.9987	133.0162
588.1577	129.3114
588.3166	131.7463
588.4755	129.7551
588.6345	128.2504
588.7934	123.048
588.9523	118.78
589.1112	116.3633
589.2701	126.7097
589.429	116.2966
589.5879	125.8129
589.7468	123.6
589.9056	119.2229
590.0645	127.2388
590.2234	132.4424
590.3822	129.7863
590.5411	125.118
590.6999	129.0135
590.8588	130.3136
591.0176	125.2411
591.1764	122.9398
591.3352	125.5269
591.494	132.6495
591.6528	123.9353
591.8116	122.1549
591.9703	128.1191
592.1291	126.2133
592.2878	127.5217
592.4467	124.4859
592.6053	129.864
592.7641	126.5311
592.9229	126.2015
593.0816	121.4959
593.2403	124.279
593.399	129.6127
593.5577	123.938
593.7164	123.0551
593.8751	127.2046
594.0338	128.1485
594.1924	126.7403
594.3511	124.7705
594.5098	118.6149
594.6684	125.0267
594.8271	123.9323
594.9857	119.6171
595.1443	122.581
595.303	120.546
595.4615	124.1907
595.6202	122.3346
595.7787	127.16
595.9374	116.4798
596.0959	124.7531
596.2545	126.6023
596.4131	119.9255
596.5717	123.7494
596.7302	126.3313
596.8887	124.4148
597.0473	117.7402
597.2058	119.9863
597.3644	123.0413
597.5229	114.8706
597.6814	123.345
597.8399	120.9276
597.9984	121.7108
598.1569	124.9045
598.3154	124.2672
598.4738	118.2492
598.6323	123.4678
598.7908	123.8973
598.9492	125.4838
599.1076	124.392
599.2661	120.9131
599.4245	123.1955
599.5829	122.4794
599.7413	120.7205
599.8997	122.111
600.0581	117.6212
600.2165	117.8839
600.3749	118.3854
600.5333	116.4418
600.6917	121.6347
600.85	119.3493
601.0084	119.2577
601.1667	113.8923
601.325	113.576
601.4833	119.9372
601.6417	118.5289
601.8	122.0546
601.9583	115.5072
602.1166	115.5556
602.2749	121.1696
602.4332	120.0973
602.5914	116.0452
602.7498	113.3913
602.908	121.9523
603.0662	120.2721
603.2245	121.3615
603.3828	117.255
603.541	119.1911
603.6992	114.5307
603.8574	113.68
604.0156	119.7306
604.1738	109.5863
604.332	119.2127
604.4902	118.2362
604.6484	117.9562
604.8065	119.0106
604.9647	117.9478
605.1229	118.1253
605.281	118.1364
605.4391	112.0193
605.5973	113.5376
605.7554	114.915
605.9135	115.3177
606.0717	112.2969
606.2297	116.8987
606.3878	112.9085
606.5459	106.5338
606.704	112.2257
606.8621	119.2225
607.0201	114.1601
607.1782	115.6539
607.3362	116.7019
607.4943	119.1369
607.6523	115.0075
607.8104	117.3122
607.9684	113.3441
608.1264	113.6388
608.2844	111.6492
608.4424	113.5972
608.6003	112.5099
608.7584	109.2841
608.9163	106.6871
609.0743	109.3764
609.2322	109.498
609.3902	111.9147
609.5482	107.268
609.7061	103.1882
609.864	106.884
610.0219	105.9272
610.1798	100.7687
610.3377	98.9836
610.4956	104.835
610.6535	100.7207
610.8114	106.084
610.9693	107.7254
611.1271	105.1441
611.285	106.7469
611.4429	104.0171
611.6007	108.1612
611.7585	103.3432
611.9164	99.2673
612.0742	101.5862
612.232	100.5878
612.3898	100.7807
612.5476	101.6423
612.7054	103.4583
612.8632	101.1241
613.0209	104.2812
613.1787	105.5192
613.3365	95.95597
613.4942	97.12138
613.652	99.82951
613.8097	98.96557
613.9674	95.01736
614.1252	99.10452
614.2829	96.36047
614.4406	103.0554
614.5983	101.248
614.756	103.9179
614.9136	102.4469
615.0714	95.61322
615.229	94.87661
615.3867	95.3076
615.5443	94.6091
615.702	90.84921
615.8596	96.02663
616.0172	97.8956
616.1748	95.69818
616.3325	93.71804
616.4901	85.39302
616.6476	95.33545
616.8052	102.4301
616.9628	96.52639
617.1204	95.33372
617.278	86.79933
617.4355	94.71669
617.5931	94.47546
617.7506	93.9898
617.9081	92.73587
618.0657	90.35684
618.2232	100.1888
618.3807	100.615
618.5382	98.03806
618.6957	99.97636
618.8532	95.15014
619.0107	93.82375
619.1682	95.31458
619.3256	94.18094
619.4831	96.19389
619.6406	90.99807
619.798	97.88181
619.9554	99.68624
620.1129	94.60973
620.2703	96.75855
620.4277	91.97938
620.5851	92.7716
620.7425	94.53013
620.8998	94.17544
621.0573	93.52017
621.2146	90.67049
621.372	89.53675
621.5294	90.12449
621.6867	91.07211
621.8441	92.57476
622.0013	92.76176
622.1587	88.78143
622.316	88.68422
622.4733	90.11887
622.6306	94.83695
622.7879	93.23259
622.9452	90.27367
623.1025	88.77441
623.2598	88.54296
623.4171	85.64044
623.5743	85.13953
623.7316	88.9417
623.8888	92.71673
624.046	90.85282
624.2032	86.8857
624.3605	85.40592
624.5176	85.03494
624.6749	87.70341
624.8321	84.92229
624.9893	88.92377
625.1464	89.2756
625.3036	81.41927
625.4608	83.87389
625.6179	88.98309
625.7751	84.91277
625.9322	86.30202
626.0894	90.38171
626.2465	85.10233
626.4036	83.57934
626.5607	89.42454
626.7178	92.59863
626.8749	93.14286
627.032	95.768
627.189	86.97747
627.3461	87.62521
627.5032	90.56659
627.6602	87.21423
627.8173	83.88033
627.9743	83.46548
628.1313	83.10458
628.2884	83.36444
628.4454	87.95369
628.6024	89.99923
628.7594	84.09312
628.9164	84.3022
629.0734	86.44276
629.2303	83.69885
629.3873	85.56507
629.5443	86.5429
629.7012	87.78133
629.8582	81.49726
630.0151	82.17894
630.172	77.66381
630.3289	84.82819
630.4858	86.44929
630.6428	85.87257
630.7996	86.94356
630.9565	88.48787
631.1134	90.14822
631.2703	84.69383
631.4272	83.75201
631.584	83.23981
631.7408	83.14488
631.8977	82.22499
632.0546	87.44556
632.2114	86.29618
632.3682	85.18932
632.525	82.72746
632.6818	82.2906
632.8386	85.30984
632.9954	84.51512
633.1522	79.93198
633.3089	81.80759
633.4657	86.40421
633.6224	84.25886
633.7792	80.77641
633.9359	78.7591
634.0927	83.47374
634.2494	81.53769
634.4061	84.97342
634.5628	87.06163
634.7195	88.72996
634.8762	82.77853
635.0329	84.05226
635.1895	82.04675
635.3462	80.01351
635.5029	84.70672
635.6595	73.96474
635.8162	80.29533
635.9728	75.45393
636.1295	75.23081
636.2861	79.64805
636.4427	84.26597
636.5992	85.51061
636.7559	78.80292
636.9124	75.76466
637.069	80.35001
637.2256	80.914
637.3821	83.16311
637.5387	85.89681
637.6953	80.96539
637.8518	78.06141
638.0084	78.00697
638.1649	80.12441
638.3214	75.73561
638.4779	79.15502
638.6344	81.56653
638.7909	76.88029
638.9474	78.96299
639.1038	80.44196
639.2603	79.4046
639.4167	77.29025
639.5732	79.47859
639.7297	77.55506
639.8861	74.42456
640.0425	76.61344
640.199	74.25997
640.3553	72.93765
640.5118	72.80755
640.6682	75.03609
640.8245	70.90146
640.981	78.62798
641.1373	77.87122
641.2936	74.354
641.45	70.56512
641.6064	79.02094
641.7627	77.29777
641.9191	74.5123
642.0754	74.15215
642.2317	72.94167
642.388	74.54221
642.5443	73.77677
642.7006	79.13326
642.8569	74.75513
643.0131	74.6076
643.1694	67.52533
643.3257	67.54946
643.4819	68.75775
643.6382	73.22638
643.7944	67.55191
643.9506	68.01263
644.1069	68.93964
644.2631	68.24727
644.4193	68.09459
644.5754	71.26112
644.7316	66.70156
644.8878	63.24669
645.044	68.69116
645.2002	68.28203
645.3563	70.44692
645.5125	67.18734
645.6686	71.37457
645.8248	71.71581
645.9809	61.53246
646.137	64.89201
646.2931	65.34033
646.4492	62.17023
646.6053	65.31903
646.7614	64.82515
646.9174	62.60453
647.0735	64.52407
647.2296	66.84613
647.3856	65.07556
647.5417	68.5265
647.6977	65.65862
647.8537	65.93394
648.0098	68.37997
648.1658	67.52102
648.3218	64.47466
648.4777	63.77274
648.6337	65.76514
648.7897	65.20071
648.9457	63.21456
649.1016	64.34967
649.2576	64.66505
649.4135	52.70244
649.5695	63.08758
649.7254	60.41477
649.8813	58.49948
650.0372	60.38367
650.1932	66.88245
650.3491	67.03179
650.5049	62.79543
650.6608	60.32111
650.8167	64.84591
650.9725	62.57278
651.1284	62.19567
651.2842	60.9917
651.4401	60.16165
651.5959	69.90765
651.7518	59.10983
651.9076	54.137
652.0634	57.81414
652.2192	64.04637
652.3749	61.43082
652.5308	62.46757
652.6865	59.26993
652.8423	62.79183
652.998	59.46123
653.1538	59.80199
653.3096	63.74144
653.4653	63.37325
653.621	58.65615
653.7767	60.93229
653.9324	62.44957
654.0881	64.58953
654.2438	62.70192
654.3995	60.89894
654.5552	56.47689
654.7109	57.7613
654.8665	60.16819
655.0222	59.14432
655.1778	56.99871
655.3334	59.9398
655.4891	59.51855
655.6447	62.92718
655.8003	57.12362
655.9559	56.15194
656.1115	52.67573
656.2671	46.83109
656.4227	45.40186
656.5782	50.49927
656.7338	56.99157
656.8893	58.1719
657.0449	56.25524
657.2004	54.63947
657.356	56.89919
657.5115	60.05687
657.667	54.09322
657.8225	54.09613
657.978	56.77249
658.1335	54.63008
658.289	55.91762
658.4445	55.2149
658.5999	59.39606
658.7554	56.04066
658.9108	59.53931
659.0663	56.94326
659.2217	60.19006
659.3771	57.21939
659.5325	57.98516
659.6879	59.06692
659.8433	52.51936
659.9987	53.40708
660.1541	56.83902
660.3095	59.74123
660.4648	55.43254
660.6202	57.91369
660.7756	54.25185
660.9309	59.75989
661.0862	56.9137
661.2416	53.68869
661.3969	52.84775
661.5522	58.32734
661.7075	58.14909
661.8628	59.22505
662.0181	54.24812
662.1733	52.63784
662.3286	51.80258
662.4839	55.48728
662.6391	56.50959
662.7944	54.01215
662.9496	48.79916
663.1048	54.32993
663.26	54.47927
663.4152	54.93635
663.5704	55.67945
663.7256	54.40389
663.8808	53.51025
664.036	57.52406
664.1912	53.27225
664.3463	50.27898
664.5015	53.15192
664.6566	53.05624
664.8118	53.1813
664.9669	52.15854
665.122	50.27453
665.2771	52.07791
665.4322	55.10944
665.5873	52.82351
665.7424	52.40355
665.8975	52.67644
666.0526	52.80667
666.2076	52.35738
666.3627	49.12505
666.5177	48.51697
666.6727	50.51903
666.8278	50.51443
666.9828	49.93144
667.1378	53.25031
667.2928	50.62921
667.4478	49.31458
667.6028	44.45436
667.7578	53.11283
667.9127	48.62352
668.0677	48.95969
668.2226	52.10739
668.3776	48.88762
668.5325	52.87541
668.6874	51.2629
668.8423	48.16386
668.9973	52.19635
669.1522	48.61252
669.3071	47.66372
669.4619	47.7253
669.6168	51.87894
669.7717	51.15381
669.9265	51.11897
670.0814	54.93687
670.2362	47.68045
670.3911	46.99793
670.5459	48.92051
670.7007	53.67641
670.8555	51.6197
671.0103	51.16106
671.1651	49.25203
671.3199	48.83217
671.4747	47.4345
671.6295	51.02529
671.7842	46.78196
671.939	47.4877
672.0937	49.74205
672.2484	48.69856
672.4031	45.24662
672.5579	47.61415
672.7126	50.93946
672.8673	48.89635
673.022	49.36087
673.1767	48.85936
673.3314	50.37879
673.486	43.88664
673.6407	46.01832
673.7953	45.84949
673.95	44.07632
674.1046	45.71066
674.2592	44.89227
674.4138	42.10664
674.5684	43.422
674.723	46.49035
674.8776	46.3981
675.0322	44.64039
675.1868	45.58361
675.3414	49.50034
675.4959	49.05005
675.6505	44.11444
675.805	48.55619
675.9595	45.80784
676.1141	51.12403
676.2686	50.20429
676.4231	51.50004
676.5776	52.24746
676.7321	50.10123
676.8866	48.31853
677.041	42.48698
677.1955	43.33904
677.35	47.20621
677.5044	47.94341
677.6589	50.27511
677.8133	45.91393
677.9677	45.15854
678.1221	45.48878
678.2766	38.2728
678.4309	40.34212
678.5853	46.91916
678.7397	48.01728
678.8941	45.07377
679.0485	45.31765
679.2028	47.14895
679.3571	46.91986
679.5115	43.00734
679.6658	39.18697
679.8201	43.17974
679.9744	46.55802
680.1288	44.95201
680.2831	41.03569
680.4373	37.83449
680.5916	43.65506
680.7459	44.04588
680.9001	45.6904
681.0544	46.32355
681.2087	39.96935
681.3629	41.54538
681.5171	43.65145
681.6713	48.751
681.8256	43.36037
681.9797	42.18198
682.134	46.98649
682.2881	46.74435
682.4423	45.73944
682.5965	42.12611
682.7507	51.73231
682.9048	46.73569
683.059	47.61394
683.2131	45.15617
683.3672	45.55811
683.5213	47.858
683.6754	45.93835
683.8295	49.6509
683.9836	45.31555
684.1377	48.9735
684.2918	45.89049
684.4459	42.4446
684.5999	42.26746
684.754	42.84634
684.908	41.14727
685.062	45.67325
685.2161	47.28872
685.3701	48.00967
685.5241	47.74896
685.6781	44.48597
685.8321	42.93179
685.9861	44.38959
686.14	45.30565
686.294	48.05973
686.4479	44.96049
686.6019	47.79012
686.7559	42.09499
686.9098	38.44632
687.0637	40.33427
687.2176	44.69978
687.3715	37.56147
687.5254	41.26546
687.6793	34.9786
687.8332	38.37331
687.9871	45.19223
688.1409	47.15221
688.2947	42.62739
688.4486	42.53254
688.6024	42.707
688.7563	45.34505
688.9101	45.35696
689.0639	46.10386
689.2177	47.11798
689.3715	43.7365
689.5253	43.91811
689.6791	43.67709
689.8328	46.38459
689.9866	52.8745
690.1403	49.30103
690.2941	50.14894
690.4478	47.1535
690.6015	51.07162
690.7552	49.348
690.9089	48.32824
691.0626	51.32649
691.2164	48.90776
691.37	42.91464
691.5237	46.4839
691.6774	54.14352
691.831	58.51035
691.9847	50.55532
692.1383	51.07505
692.2919	49.73254
692.4456	59.97779
692.5992	52.9741
692.7527	54.77143
692.9064	58.60971
693.0599	56.59989
693.2136	56.62969
693.3671	57.61912
693.5207	55.9851
693.6742	59.02429
693.8278	60.11903
693.9813	57.90784
694.1348	53.64439
694.2883	54.95985
694.4418	59.99932
694.5953	60.06291
694.7488	61.6188
694.9023	64.39757
695.0558	58.24339
695.2093	60.72447
695.3627	63.07642
695.5162	57.96122
695.6696	60.68916
695.8231	59.89706
695.9764	65.53764
696.1299	62.39787
696.2833	62.23966
696.4367	68.06641
696.5901	70.93045
696.7435	68.6509
696.8968	70.31571
697.0502	71.67948
697.2036	75.13206
697.3569	72.24336
697.5102	69.83077
697.6635	67.29185
697.8168	70.0835
697.9702	70.88754
698.1235	72.10767
698.2768	71.42136
698.4301	70.35236
698.5833	73.29099
698.7366	76.2203
698.8898	73.24492
699.0431	71.66923
699.1964	73.25017
699.3495	82.28822
699.5028	75.1049
699.656	78.88223
699.8092	77.06387
699.9624	76.20729
700.1156	74.73746
700.2688	77.99954
700.4219	78.17747
700.5751	77.73779
700.7283	80.74001
700.8814	77.6754
701.0345	86.28895
701.1877	87.63091
701.3408	85.25625
701.4939	83.31694
701.647	88.62743
701.8001	92.97078
701.9532	84.1259
702.1063	90.32265
702.2593	88.65926
702.4124	87.50412
702.5654	90.76351
702.7184	86.68773
702.8715	91.22361
703.0245	93.10151
703.1776	88.82238
703.3305	93.2155
703.4835	95.55441
703.6365	92.20821
703.7895	92.64068
703.9424	91.21558
704.0954	92.07467
704.2484	99.27788
704.4013	104.2061
704.5543	105.6148
704.7072	103.7656
704.8601	107.1997
705.013	98.95119
705.1659	96.40051
705.3188	103.3175
705.4717	106.0862
705.6246	107.8234
705.7774	113.4331
705.9303	111.0797
706.0831	103.9875
706.236	103.7745
706.3888	105.8901
706.5416	109.3097
706.6944	107.8489
706.8472	110.5935
707	116.1742
707.1528	113.1933
707.3056	115.6708
707.4583	118.1524
707.6111	121.5185
707.7639	114.0947
707.9166	106.7145
708.0693	117.1064
708.222	114.5624
708.3748	120.1699
708.5275	123.7162
708.6802	119.1573
708.8328	118.4221
708.9855	122.4189
709.1382	118.8738
709.2909	121.2134
709.4435	117.0643
709.5962	124.978
709.7488	125.9196
709.9014	125.3748
710.054	123.1027
710.2067	122.9371
710.3593	129.8604
710.5118	131.96
710.6644	129.5505
710.817	133.9079
710.9695	127.8648
711.1221	130.5933
711.2747	124.1937
711.4272	132.8358
711.5797	129.1345
711.7322	127.2219
711.8848	128.3835
712.0373	136.5655
712.1898	134.8168
712.3422	135.6639
712.4948	139.5031
712.6472	138.8097
712.7996	139.7818
712.9521	140.6364
713.1046	135.9686
713.257	135.2318
713.4094	142.5379
713.5618	145.8221
713.7142	138.331
713.8666	143.4934
714.019	139.6366
714.1714	135.2772
714.3237	141.7777
714.4761	145.0043
714.6285	150.2614
714.7808	144.3617
714.9331	140.749
715.0854	142.3629
715.2378	140.7184
715.3901	141.0273
715.5424	146.9633
715.6947	144.5812
715.8469	150.1811
715.9992	149.972
716.1515	146.8769
716.3037	151.9107
716.456	148.7726
716.6082	144.2468
716.7604	135.2994
716.9127	137.6716
717.0649	140.9827
717.2171	139.9099
717.3693	130.5861
717.5214	122.2419
717.6736	127.2373
717.8258	132.9117
717.978	128.8875
718.1301	140.1684
718.2822	135.3269
718.4344	132.0816
718.5865	122.6806
718.7386	119.7846
718.8907	127.6755
719.0428	136.4737
719.1949	139.0754
719.3469	132.1154
719.499	138.9727
719.6511	143.007
719.8031	137.7852
719.9551	136.4979
720.1072	132.1316
720.2592	141.1385
720.4112	141.9814
720.5632	141.1112
720.7152	145.0693
720.8672	144.0358
721.0192	152.2088
721.1711	154.8732
721.3231	162.2055
721.475	167.3928
721.627	166.3424
721.7789	172.0254
721.9308	169.656
722.0828	170.2904
722.2347	176.7884
722.3866	172.6911
722.5385	171.8418
722.6903	173.6243
722.8422	174.5259
722.9941	176.0114
723.1459	164.3609
723.2977	160.4231
723.4496	155.7986
723.6014	153.0307
723.7532	159.2856
723.905	160.2034
724.0568	162.1273
724.2086	164.0584
724.3604	163.0636
724.5121	167.4328
724.6639	168.3648
724.8157	173.5985
724.9674	175.9
725.1191	170.066
725.2709	161.0473
725.4226	166.4959
725.5743	172.0816
725.726	169.4296
725.8777	166.5907
726.0294	169.9914
726.181	174.5755
726.3327	169.1617
726.4844	164.5373
726.636	179.0516
726.7877	184.415
726.9393	187.1032
727.0909	186.7018
727.2425	180.7726
727.3941	181.1486
727.5457	174.6316
727.6973	167.3866
727.8488	163.9311
728.0004	176.5638
728.1519	193.4645
728.3035	195.3829
728.455	195.375
728.6066	199.5841
728.7581	192.77
728.9095	185.0821
729.0611	175.9068
729.2126	173.6644
729.364	182.9591
729.5155	187.4494
729.667	197.8846
729.8184	200.7884
729.9698	199.6415
730.1213	194.9582
730.2727	189.4286
730.4241	191.5149
730.5756	193.2616
730.7269	192.5997
730.8784	190.2368
731.0297	190.1651
731.1811	194.5518
731.3325	195.3763
731.4838	203.9456
731.6351	208.3936
731.7865	203.8588
731.9378	206.4071
732.0891	210.3962
732.2404	218.3859
732.3917	217.9857
732.543	221.1613
732.6943	219.6483
732.8456	218.9616
732.9968	221.7822
733.1481	225.5423
733.2993	228.8865
733.4506	228.251
733.6018	235.6087
733.753	230.3964
733.9042	235.2222
734.0554	235.4771
734.2066	238.9069
734.3578	234.7771
734.509	226.8539
734.6602	226.5008
734.8113	236.1659
734.9624	228.3893
735.1136	232.1063
735.2647	233.6657
735.4158	242.0904
735.5669	236.2096
735.718	230.2626
735.8691	232.7889
736.0201	230.1336
736.1713	234.0811
736.3223	233.8282
736.4733	226.4456
736.6244	235.4722
736.7755	232.8801
736.9265	237.729
737.0775	241.9114
737.2285	239.6878
737.3795	243.1485
737.5305	246.3348
737.6815	248.0228
737.8324	241.6519
737.9834	247.6376
738.1343	251.9196
738.2853	251.315
738.4362	243.5369
738.5871	241.617
738.738	243.7205
738.8889	232.4027
739.0399	235.7226
739.1907	243.8456
739.3416	246.4462
739.4925	244.402
739.6433	240.8162
739.7942	242.4177
739.945	246.2309
740.0958	250.8924
740.2467	253.7097
740.3975	257.9063
740.5483	252.2206
740.6991	248.8393
740.8499	244.3254
741.0007	245.148
741.1514	238.9178
741.3022	242.2638
741.4529	252.468
741.6036	246.6983
741.7544	243.8828
741.9051	242.1791
742.0558	255.1415
742.2065	252.0174
742.3572	244.8275
742.5079	247.9453
742.6586	249.9674
742.8093	254.6073
742.9599	253.4105
743.1105	257.6967
743.2612	262.5277
743.4118	259.9661
743.5624	254.3591
743.7131	251.6628
743.8636	254.5179
744.0142	251.3449
744.1648	254.024
744.3154	259.676
744.4659	254.8481
744.6165	247.1598
744.767	250.3102
744.9176	247.8107
745.0681	251.8302
745.2186	252.6226
745.3691	259.8174
745.5197	259.498
745.6702	253.8821
745.8206	254.7963
745.9711	258.7585
746.1215	248.1666
746.272	247.2774
746.4224	253.8852
746.5729	255.0429
746.7233	255.1296
746.8737	249.9945
747.0241	248.2417
747.1745	253.5154
747.3249	250.2408
747.4753	256.5977
747.6257	247.9782
747.776	250.7279
747.9264	251.2257
748.0767	249.7833
748.2271	254.8222
748.3774	252.5677
748.5276	249.0802
748.678	255.4894
748.8282	252.821
748.9786	249.1443
749.1288	244.4378
749.2791	239.5849
749.4294	243.7589
749.5796	244.4859
749.7299	243.6521
749.8801	245.1554
750.0303	246.2283
750.1805	250.6456
750.3307	251.075
750.4809	245.7752
750.6311	243.4921
750.7813	245.0997
750.9314	237.6534
751.0816	233.1953
751.2318	236.1891
751.3818	240.8766
751.532	244.7224
751.6821	247.8774
751.8322	252.2957
751.9823	249.6465
752.1324	250.3715
752.2825	240.8353
752.4326	241.0648
752.5826	240.0001
752.7327	236.436
752.8827	234.5085
753.0327	227.7222
753.1827	234.7582
753.3328	237.658
753.4828	244.6951
753.6328	248.903
753.7828	246.1831
753.9327	243.6535
754.0827	241.6715
754.2327	238.5573
754.3826	235.335
754.5325	234.797
754.6825	242.1594
754.8324	234.1362
754.9823	231.7756
755.1322	237.2899
755.2821	232.4116
755.432	230.179
755.5818	224.3798
755.7318	229.6869
755.8816	231.0909
756.0314	233.7812
756.1813	227.6964
756.3311	228.9536
756.4809	236.3811
756.6307	232.5478
756.7805	221.7185
756.9303	222.3015
757.0801	228.8497
757.2299	218.3006
757.3796	226.9022
757.5294	220.076
757.6791	228.9594
757.8289	222.9585
757.9786	217.2369
758.1283	222.0571
758.278	219.821
758.4277	214.3042
758.5773	211.2823
758.7271	214.8269
758.8767	216.0857
759.0264	217.5437
759.176	217.227
759.3256	189.3706
759.4753	154.8814
759.6249	113.2434
759.7745	91.71324
759.9241	87.99808
760.0737	73.00922
760.2233	60.26955
760.3729	53.75303
760.5224	49.81842
760.6719	53.9659
760.8215	54.50234
760.971	58.77922
761.1205	66.4108
761.2701	76.97177
761.4196	84.22805
761.5691	104.9309
761.7186	131.7999
761.868	146.1587
762.0175	147.7144
762.167	141.6147
762.3164	125.3773
762.4659	104.8682
762.6153	100.4981
762.7647	96.73655
762.9141	95.71005
763.0635	93.93038
763.2129	96.98689
763.3623	99.00542
763.5117	102.3982
763.661	106.0871
763.8104	103.3029
763.9597	107.7826
764.1091	109.5174
764.2584	113.4962
764.4077	114.8449
764.557	119.1572
764.7063	124.6909
764.8556	135.9286
765.0049	137.0672
765.1541	142.339
765.3034	144.445
765.4526	147.693
765.6019	145.5143
765.7511	144.8113
765.9003	152.6459
766.0496	154.6392
766.1987	153.6172
766.348	160.3726
766.4971	164.6108
766.6463	161.8907
766.7955	169.2318
766.9446	172.1935
767.0938	172.3685
767.2429	163.8327
767.392	174.5839
767.5411	184.835
767.6902	181.3526
767.8394	176.273
767.9884	177.049
768.1375	180.1253
768.2866	185.1472
768.4356	182.0305
768.5847	182.006
768.7337	184.2641
768.8828	185.6061
769.0317	185.5375
769.1808	180.6855
769.3298	176.396
769.4788	183.8482
769.6277	185.7211
769.7767	187.6436
769.9257	184.7404
770.0746	179.4101
770.2236	180.5552
770.3725	187.209
770.5214	189.175
770.6703	182.0914
770.8193	184.6879
770.9681	185.9104
771.1171	187.4104
771.2659	184.827
771.4148	178.0143
771.5637	183.8081
771.7125	188.2403
771.8613	188.2249
772.0101	187.9506
772.159	177.9781
772.3078	183.1517
772.4566	181.8877
772.6054	176.7764
772.7542	175.739
772.903	186.1095
773.0517	184.0542
773.2004	185.7831
773.3492	176.9611
773.4979	171.8027
773.6467	172.6757
773.7953	180.8841
773.944	181.1904
774.0928	176.6023
774.2415	172.4369
774.3901	176.5898
774.5388	172.1548
774.6874	166.7916
774.8361	168.6289
774.9847	171.6232
775.1334	169.2435
775.282	168.0916
775.4305	172.3152
775.5792	174.9748
775.7277	175.9757
775.8763	177.725
776.0249	173.4194
776.1735	171.0461
776.322	170.0756
776.4705	170.4808
776.6191	174.6911
776.7676	172.7814
776.9161	173.7507
777.0646	170.7607
777.2131	164.6781
777.3616	163.6358
777.5101	169.8241
777.6585	162.1374
777.8069	164.4654
777.9554	164.9908
778.1038	170.124
778.2523	163.8365
778.4007	169.5043
778.5491	169.8252
778.6974	169.0001
778.8459	171.2191
778.9942	167.6131
779.1426	165.9777
779.291	167.0267
779.4393	166.7999
779.5876	162.8259
779.736	161.0406
779.8843	161.4352
780.0326	162.7945
780.1809	162.6875
780.3292	166.3105
780.4775	168.7591
780.6257	164.5518
780.774	165.3997
780.9222	167.0042
781.0704	163.5814
781.2187	156.3844
781.3669	163.3226
781.5151	160.0308
781.6633	171.2962
781.8115	168.1603
781.9597	161.7825
782.1078	167.9018
782.256	164.9698
782.4042	165.7108
782.5523	168.197
782.7004	164.897
782.8486	158.9442
782.9967	158.7782
783.1448	159.5597
783.2929	164.4089
783.441	157.8445
783.5891	154.6391
783.7371	158.4767
783.8851	146.9804
784.0332	154.6759
784.1812	155.1913
784.3293	159.9081
784.4773	162.9626
784.6253	164.609
784.7733	162.0166
784.9213	167.3474
785.0692	155.3524
785.2172	150.3855
785.3652	157.6866
785.5131	152.2367
785.6611	156.4559
785.809	158.1789
785.9569	148.9496
786.1048	154.0219
786.2527	159.347
786.4006	154.5381
786.5485	151.0991
786.6964	153.6069
786.8442	149.9171
786.9921	148.6573
787.1399	150.3582
787.2877	153.2139
787.4355	155.1332
787.5833	150.6712
787.7311	147.4644
787.8789	145.4075
788.0267	151.2232
788.1745	152.8333
788.3223	150.7488
788.47	149.7202
788.6177	154.5266
788.7654	146.2296
788.9132	141.7145
789.0609	143.2624
789.2086	143.0242
789.3563	140.2455
789.504	141.851
789.6517	147.122
789.7993	146.2888
789.947	146.3448
790.0946	144.6322
790.2422	138.4151
790.3898	144.1591
790.5375	146.1505
790.6851	142.3195
790.8326	148.998
790.9802	144.3411
791.1278	143.1922
791.2754	145.4502
791.423	135.939
791.5705	141.5481
791.718	140.7139
791.8655	135.4922
792.0131	130.7871
792.1606	139.6723
792.308	137.8835
792.4556	142.9583
792.603	142.0246
792.7505	139.9895
792.8979	136.8903
793.0454	130.647
793.1928	134.6894
793.3403	134.0497
793.4877	136.0827
793.6351	134.6566
793.7825	139.667
793.9299	135.4709
794.0772	137.0129
794.2246	129.2621
794.3719	132.4125
794.5193	133.617
794.6666	133.7448
794.814	132.0317
794.9613	129.5243
795.1086	139.6114
795.2559	137.2174
795.4032	135.3401
795.5505	138.3227
795.6978	138.5926
795.845	132.2426
795.9922	130.0873
796.1395	128.754
796.2867	125.2113
796.4339	124.5448
796.5811	134.9454
796.7283	135.8871
796.8755	134.713
797.0227	136.7791
797.1699	135.2968
797.317	133.6086
797.4642	133.4527
797.6113	131.9679
797.7584	129.1954
797.9056	137.4221
798.0527	137.2991
798.1998	126.9982
798.3469	132.7264
798.494	139.7262
798.641	130.8113
798.7881	129.8054
798.9351	130.7872
799.0822	129.9998
799.2292	125.4349
799.3762	125.6258
799.5232	134.2711
799.6702	134.3977
799.8172	128.6077
799.9642	120.7691
800.1111	121.9135
800.2581	124.8765
800.4051	124.4971
800.552	124.1761
800.6989	119.0783
800.8458	124.0288
800.9927	120.9979
801.1396	123.5243
801.2866	120.9061
801.4334	115.8508
801.5803	121.6971
801.7272	125.9848
801.874	123.85
802.0209	122.7482
802.1677	128.6286
802.3145	123.8821
802.4613	131.4677
802.6081	122.6846
802.7549	125.8852
802.9017	126.5433
803.0485	122.0234
803.1952	110.7277
803.342	118.908
803.4887	118.4398
803.6354	117.6601
803.7822	123.668
803.9289	121.2209
804.0756	121.4272
804.2223	125.5983
804.369	121.8173
804.5156	112.8846
804.6623	117.513
804.8089	118.6201
804.9556	115.304
805.1022	114.7879
805.2488	116.3566
805.3954	120.0444
805.542	115.2699
805.6886	118.6296
805.8352	121.008
805.9818	120.3883
806.1283	115.5806
806.2749	122.4774
806.4214	123.8637
806.5679	122.1035
806.7145	122.4118
806.861	121.4859
807.0074	118.9596
807.154	116.4286
807.3004	117.8878
807.4469	110.7717
807.5934	114.2684
807.7398	117.2422
807.8862	109.664
808.0327	114.5884
808.1791	105.855
808.3255	103.9211
808.4719	111.7591
808.6183	115.2646
808.7647	115.2265
808.9111	115.1244
809.0574	104.884
809.2037	102.818
809.3501	102.8316
809.4965	104.4363
809.6428	103.2253
809.7891	104.8544
809.9354	103.6344
810.0817	102.1911
810.2279	103.4776
810.3742	102.3771
810.5204	101.9552
810.6667	103.9828
810.8129	103.1031
810.9592	101.7395
811.1054	102.235
811.2516	104.3374
811.3978	101.1196
811.5439	97.55734
811.6901	103.6883
811.8363	106.539
811.9825	101.007
812.1286	97.64896
812.2748	99.36669
812.4209	100.5419
812.567	98.9501
812.7131	97.2075
812.8592	103.9453
813.0053	102.1222
813.1514	94.74715
813.2974	93.9017
813.4435	90.67244
813.5895	89.34467
813.7356	95.72127
813.8816	93.88406
814.0276	95.29768
814.1736	88.84276
814.3196	87.1461
814.4656	87.28444
814.6116	84.40912
814.7576	80.27663
814.9035	83.37772
815.0494	81.79528
815.1954	85.45766
815.3413	82.93325
815.4872	74.69365
815.6331	85.87592
815.779	81.96351
815.9249	82.61818
816.0707	80.3042
816.2166	75.24725
816.3625	74.60551
816.5083	74.56608
816.6542	79.5359
816.8	76.24428
816.9458	74.62458
817.0916	80.13467
817.2374	83.99731
817.3832	87.72688
817.5289	83.94133
817.6747	76.16177
817.8204	74.16782
817.9662	74.75323
818.1119	73.17721
818.2576	81.78289
818.4034	85.63692
818.5491	84.64594
818.6948	83.95403
818.8405	75.75115
818.9861	83.42082
819.1318	83.27147
819.2774	79.77617
819.423	76.76379
819.5687	73.90453
819.7143	75.47431
819.8599	75.83927
820.0055	73.52423
820.1511	77.63496
820.2967	86.56911
820.4422	91.21525
820.5878	86.55006
820.7333	89.85652
820.8788	96.5151
821.0244	89.18083
821.1699	84.53148
821.3154	78.9094
821.4609	86.97888
821.6064	87.97653
821.7519	82.33247
821.8973	82.71607
822.0428	83.31602
822.1882	80.38223
822.3337	79.27002
822.4791	73.6956
822.6245	61.14615
822.7699	62.54088
822.9153	58.20817
823.0607	55.36689
823.2061	62.30075
823.3514	66.55311
823.4968	76.00532
823.6422	75.99556
823.7875	80.20423
823.9328	78.06588
824.0781	80.68031
824.2234	79.38853
824.3687	82.33687
824.514	75.88192
824.6592	82.6462
824.8045	90.01131
824.9498	85.89516
825.095	85.84632
825.2402	80.39726
825.3854	77.37457
825.5306	82.0474
825.6758	77.38932
825.821	70.89651
825.9662	75.57112
826.1114	77.432
826.2565	77.29252
826.4017	81.32186
826.5468	79.20406
826.692	81.68539
826.837	81.78097
826.9822	76.35762
827.1273	78.69391
827.2723	79.25613
827.4174	72.10116
827.5625	71.51721
827.7075	66.77808
827.8526	69.48262
827.9976	71.47248
828.1426	74.1423
828.2877	73.54308
828.4327	72.95176
828.5776	70.92527
828.7227	72.63103
828.8676	75.45599
829.0126	80.80898
829.1575	75.99236
829.3024	74.44865
829.4474	67.1656
829.5923	67.71803
829.7372	77.03149
829.8821	71.45284
830.027	73.32671
830.1719	73.93122
830.3168	71.55736
830.4616	69.87933
830.6064	73.08598
830.7513	72.03964
830.8961	68.24116
831.041	73.94541
831.1857	70.29564
831.3306	74.59104
831.4753	76.84762
831.6201	77.18037
831.7649	72.94766
831.9096	68.92731
832.0544	68.74503
832.1991	68.03743
832.3438	64.23252
832.4885	75.17055
832.6332	76.98008
832.778	73.90558
832.9226	66.64102
833.0673	68.15273
833.2119	71.42096
833.3566	70.20325
833.5012	68.8791
833.6459	67.05182
833.7905	68.81863
833.9351	70.01356
834.0797	72.42503
834.2243	82.7819
834.3688	81.12579
834.5134	73.9625
834.658	76.22018
834.8026	76.51955
834.9471	67.43338
835.0916	70.75642
835.2361	71.12393
835.3806	75.80804
835.5251	73.35881
835.6696	78.45426
835.8141	74.85905
835.9586	68.17944
836.103	70.28169
836.2474	73.60436
836.3918	74.66559
836.5363	68.46049
836.6807	72.85433
836.8251	76.4537
836.9695	72.60617
837.1138	70.2123
837.2582	72.54464
837.4026	74.82414
837.5469	71.97356
837.6913	75.68682
837.8356	67.3741
837.9799	76.28503
838.1242	74.4733
838.2686	70.89695
838.4128	71.12978
838.5571	75.70573
838.7014	71.95976
838.8456	70.64592
838.9899	69.28463
839.1341	70.83872
839.2783	73.10043
839.4225	72.80721
839.5667	71.39709
839.7109	75.0591
839.8551	69.06551
839.9993	72.23877
840.1434	77.03013
840.2876	76.32077
840.4317	74.63166
840.5759	71.73869
840.72	69.70148
840.8641	70.17099
841.0082	72.08753
841.1523	69.3195
841.2963	68.64141
841.4404	66.8344
841.5845	65.22584
841.7285	67.47115
841.8726	68.06763
842.0165	71.02423
842.1606	66.3659
842.3046	69.05595
842.4485	69.73828
842.5925	67.09182
842.7365	67.20805
842.8805	70.2782
843.0244	68.54906
843.1684	74.74339
843.3123	65.1259
843.4562	67.23845
843.6002	68.64664
843.744	71.7834
843.8879	72.47684
844.0318	69.68441
844.1757	68.66719
844.3195	75.1535
844.4634	69.71551
844.6072	63.37926
844.751	64.31242
844.8948	70.83608
845.0386	74.32916
845.1824	68.71151
845.3262	69.31329
845.47	68.59958
845.6138	71.50474
845.7575	71.81382
845.9012	70.41399
846.045	63.80209
846.1887	70.19026
846.3324	72.12511
846.4761	66.57764
846.6198	67.15834
846.7635	70.49894
846.9071	67.01717
847.0508	64.07118
847.1944	69.02454
847.3381	67.81527
847.4817	66.09687
847.6253	72.15678
847.7689	65.79501
847.9125	69.32824
848.0561	72.10197
848.1996	69.96172
848.3432	67.37146
848.4868	66.83699
848.6303	64.8997
848.7738	68.74364
848.9174	70.07367
849.0609	70.1412
849.2043	66.14616
849.3478	61.62549
849.4913	62.49563
849.6348	61.28157
849.7782	59.93185
849.9217	51.69456
850.0651	53.1276
850.2086	63.19965
850.3519	63.58357
850.4954	60.36036
850.6387	62.10578
850.7821	66.64927
850.9255	62.81359
851.0688	59.3112
851.2122	60.02143
851.3555	54.99688
851.4988	64.95174
851.6422	68.98073
851.7855	64.75819
851.9288	63.88974
852.0721	63.10648
852.2153	61.95875
852.3586	60.81537
852.5018	58.48563
852.6451	58.43455
852.7883	60.18543
852.9315	61.46603
853.0748	61.76123
853.218	65.83643
853.3611	63.49356
853.5043	60.40702
853.6475	61.1206
853.7906	61.79935
853.9338	53.94828
854.0769	48.93974
854.22	40.57426
854.3632	43.30483
854.5063	50.06742
854.6494	50.71162
854.7924	56.66882
854.9355	58.30042
855.0786	60.29462
855.2216	62.37942
855.3647	61.89909
855.5077	62.48705
855.6507	59.87423
855.7937	58.65879
855.9367	59.19533
856.0797	57.63325
856.2227	63.04617
856.3657	61.93237
856.5086	60.82435
856.6516	61.30683
856.7945	65.94946
856.9374	61.44223
857.0803	61.64145
857.2232	58.08088
857.3661	60.44241
857.509	59.54919
857.6519	56.13493
857.7947	61.93127
857.9376	60.96609
858.0804	54.60022
858.2232	57.73029
858.366	60.13312
858.5089	58.0884
858.6516	57.94656
858.7944	57.69029
858.9372	59.77396
859.08	60.70863
859.2227	59.84181
859.3654	59.82267
859.5082	58.31596
859.6509	58.54674
859.7936	52.36839
859.9363	56.42818
860.079	54.91391
860.2217	60.90399
860.3643	56.07994
860.507	55.94864
860.6496	58.71092
860.7922	60.85179
860.9349	57.20917
861.0775	60.60734
861.2201	57.59417
861.3627	53.63824
861.5052	53.84352
861.6478	55.66284
861.7904	54.40675
861.9329	59.47324
862.0755	54.91035
862.218	55.75257
862.3605	57.5605
862.503	58.84081
862.6455	49.29551
862.788	56.00565
862.9305	54.9498
863.0729	56.61865
863.2154	57.45662
863.3578	51.97366
863.5002	53.81935
863.6426	54.66282
863.7851	53.04271
863.9275	56.49916
864.0698	54.92713
864.2122	59.54875
864.3546	55.20782
864.4969	54.76054
864.6393	49.75671
864.7816	53.04668
864.924	47.51245
865.0662	49.1301
865.2086	52.52982
865.3508	51.28559
865.4931	53.01193
865.6354	52.92655
865.7776	55.85017
865.9199	49.11156
866.0621	47.57063
866.2043	43.38947
866.3466	41.19241
866.4888	44.30293
866.6309	46.30116
866.7731	51.64601
866.9153	47.83593
867.0574	49.37776
867.1996	55.27087
867.3417	54.29984
867.4839	50.8546
867.626	50.35361
867.7681	47.95551
867.9102	47.6987
868.0522	49.62404
868.1943	47.81373
868.3364	48.58887
868.4785	47.32393
868.6205	52.24345
868.7625	47.70527
868.9045	48.46236
869.0465	45.85767
869.1885	52.72686
869.3305	47.72071
869.4725	45.68782
869.6144	51.18969
869.7564	54.34078
869.8983	54.42189
870.0403	50.54863
870.1822	51.90839
870.3241	47.92698
870.466	47.46705
870.6079	48.47729
870.7498	51.53714
870.8916	55.98035
871.0335	51.96201
871.1754	53.55431
871.3171	47.69513
871.459	43.2668
871.6008	51.74747
871.7426	49.20924
871.8844	46.68616
872.0262	47.45449
872.1679	53.13885
872.3097	53.20846
872.4514	51.19813
872.5931	48.05704
872.7349	47.69878
872.8766	43.61494
873.0183	44.16848
873.16	51.60136
873.3017	48.59719
873.4434	45.99689
873.585	48.75654
873.7266	46.8278
873.8683	51.19223
874.0099	50.12684
874.1516	43.35199
874.2932	45.29062
874.4348	42.8949
874.5763	45.89388
874.7179	45.75697
874.8594	44.73089
875.001	45.68458
875.1425	42.68414
875.2841	38.11656
875.4256	38.61401
875.5671	47.32408
875.7086	43.6699
875.85	46.08453
875.9915	46.67523
876.133	45.1442
876.2744	45.85709
876.4159	48.46611
876.5573	43.53592
876.6987	39.78782
876.8401	41.17664
876.9815	47.20574
877.1229	46.43688
877.2643	42.46592
877.4056	43.66036
877.547	42.67465
877.6884	45.00203
877.8297	42.21943
877.971	43.72142
878.1123	42.3291
878.2536	41.96642
878.3949	40.15108
878.5362	39.82721
878.6774	47.63877
878.8187	45.02215
878.9599	41.71699
879.1011	41.43853
879.2424	39.62688
879.3836	40.64783
879.5248	43.72824
879.666	44.68601
879.8071	40.74632
879.9483	41.26534
880.0895	40.18521
880.2306	39.5779
880.3718	41.97018
880.5129	44.16563
880.654	41.18774
880.7951	35.13198
880.9362	39.66192
881.0773	46.6375
881.2183	42.28894
881.3594	40.77343
881.5004	41.10964
881.6414	40.00195
881.7825	40.86965
881.9235	39.42182
882.0645	48.17002
882.2054	42.01643
882.3464	42.93578
882.4874	40.97876
882.6284	41.09916
882.7693	41.07433
882.9103	40.0299
883.0512	38.37374
883.1921	43.14032
883.333	38.69386
883.4739	41.33712
883.6147	39.10182
883.7556	40.86439
883.8965	34.68874
884.0374	38.33607
884.1782	37.44508
884.319	40.80775
884.4598	41.07811
884.6006	41.81754
884.7414	39.85837
884.8822	42.87286
885.0229	35.49133
885.1637	44.59536
885.3044	42.28912
885.4452	37.70105
885.5859	38.88712
885.7266	39.99216
885.8673	41.71486
886.008	45.35429
886.1487	41.93813
886.2894	31.92006
886.43	40.26334
886.5707	43.49255
886.7113	43.88444
886.8519	37.50429
886.9926	34.80113
887.1331	41.27301
887.2737	44.72359
887.4143	44.84627
887.5549	38.6311
887.6954	39.63517
887.836	39.3312
887.9765	43.41179
888.1171	39.90135
888.2576	38.36626
888.3981	35.37421
888.5386	42.91357
888.679	42.91193
888.8195	42.23057
888.96	39.25454
889.1004	38.8526
889.2408	40.08921
889.3813	39.00358
889.5217	38.03531
889.6621	32.52207
889.8025	32.20195
889.9429	37.11201
890.0833	41.10861
890.2236	39.86152
890.364	37.14199
890.5043	39.45195
890.6446	42.05045
890.7849	40.35068
890.9252	38.31507
891.0655	39.6034
891.2058	36.0582
891.3461	38.17256
891.4863	37.51833
891.6266	35.48783
891.7668	38.11456
891.907	35.53052
892.0472	37.92365
892.1874	33.05518
892.3276	33.61276
892.4678	34.42889
892.608	36.65752
892.7481	32.83386
892.8883	35.72779
893.0284	40.94023
893.1685	33.4339
893.3087	31.58302
893.4487	36.36382
893.5889	33.08757
893.7289	35.19973
893.869	39.02826
894.009	38.514
894.1491	37.14639
894.2891	33.42201
894.4291	32.93653
894.5692	30.94295
894.7092	32.5244
894.8491	28.75626
894.9891	32.09314
895.1291	36.96968
895.269	31.07737
895.409	31.0709
895.549	25.7317
895.6888	34.03898
895.8288	30.48047
895.9687	34.11741
896.1086	33.18971
896.2484	30.21811
896.3883	33.74047
896.5281	28.19559
896.668	24.79034
896.8079	31.93378
896.9476	31.06716
897.0875	29.07637
897.2272	27.41759
897.3671	28.19983
897.5068	23.60558
897.6466	27.85321
897.7864	27.81567
897.9261	27.45345
898.0658	27.87088
898.2056	28.3022
898.3453	29.004
898.4849	27.95877
898.6246	27.0213
898.7643	23.15992
898.904	16.71677
899.0436	22.78625
899.1833	22.28933
899.3229	19.53184
899.4625	27.77928
899.6021	26.87296
899.7417	32.44835
899.8813	30.60811
900.0209	28.13356
900.1605	27.90006
900.3	26.55688
900.4395	22.40961
900.579	18.60119
900.7186	26.30543
900.8581	28.31574
900.9976	25.68337
901.1371	22.21963
901.2766	28.72225
901.416	31.24726
901.5555	28.95904
901.6949	29.79758
901.8344	28.90814
901.9738	25.17564
902.1132	30.11261
902.2526	28.58214
902.3919	21.96947
902.5313	25.87922
902.6707	28.94164
