SPECTRUM DATA FILE
SpectrumCount:	1
PixelCount:	3648
UserName:	ToughBook User
SampleName:	
LightSource:	
Comments:	
DeviceName:	Qwave
DeviceManufacturer:	Broadcom
DeviceSerialNo:	11311

Name:	last spectrum
Date:	2024-05-02T14:42:25.7045283+02:00
ExposureTime:	0.02
TemporalAvg:	1
IntensityUnit:	normalizedCounts
CCDLoadLevel:	0.0575185
Temperature:	30.95038
DiagramColor:	200
ProcessingSteps:	335

Wavelength [nm]	Intensity1
334.421	6.133893
334.5891	8.036087
334.7573	4.794035
334.9254	5.797922
335.0935	9.259992
335.2616	10.86262
335.4297	11.33042
335.5978	7.968625
335.7659	3.820905
335.934	5.386188
336.1021	7.733627
336.2701	3.326362
336.4382	5.861648
336.6063	2.690159
336.7744	5.73023
336.9424	6.497622
337.1105	7.140653
337.2785	6.404668
337.4466	7.618935
337.6146	11.42755
337.7827	11.38385
337.9507	4.554658
338.1187	9.24073
338.2867	4.305639
338.4548	4.782111
338.6228	6.905665
338.7908	5.341633
338.9588	6.000623
339.1268	7.482341
339.2948	10.40586
339.4628	10.47271
339.6308	10.43216
339.7988	10.65555
339.9667	7.943755
340.1347	5.168621
340.3027	3.325038
340.4707	6.393744
340.6386	11.87312
340.8066	8.360028
340.9745	3.883609
341.1425	8.534153
341.3104	8.218499
341.4784	10.97558
341.6463	5.828623
341.8142	7.65728
341.9821	7.81604
342.1501	9.979216
342.318	13.44054
342.4859	8.118457
342.6538	9.619514
342.8217	10.34329
342.9896	8.070061
343.1575	14.28779
343.3254	9.342506
343.4933	6.478301
343.6612	12.11028
343.829	11.26655
343.9969	8.514443
344.1648	6.720216
344.3326	6.404173
344.5005	7.384219
344.6683	8.619508
344.8362	9.767783
345.004	8.928096
345.1719	10.19295
345.3397	7.112216
345.5075	9.143785
345.6754	4.867401
345.8432	12.54394
346.011	10.60381
346.1788	9.737354
346.3466	9.616877
346.5144	10.13843
346.6822	9.486718
346.85	9.768409
347.0178	11.91713
347.1856	11.08923
347.3534	10.41417
347.5211	13.57302
347.6889	8.097016
347.8567	10.9864
348.0244	8.077179
348.1922	8.488887
348.3599	13.30871
348.5277	10.39449
348.6954	8.145295
348.8632	10.59738
349.0309	9.587593
349.1986	8.26193
349.3663	4.231098
349.5341	9.233502
349.7018	13.23123
349.8695	9.020414
350.0372	10.58907
350.2049	7.766729
350.3726	10.84369
350.5403	5.236952
350.7079	10.13591
350.8756	10.02746
351.0433	6.688787
351.211	6.132927
351.3786	10.60295
351.5463	11.56116
351.714	12.96865
351.8816	8.637202
352.0493	7.595798
352.2169	7.679457
352.3846	5.485136
352.5522	6.775493
352.7198	11.31594
352.8875	11.3537
353.0551	5.847911
353.2227	3.175175
353.3903	5.325321
353.5579	9.241696
353.7255	11.29141
353.8931	10.55075
354.0607	7.777112
354.2283	12.37525
354.3958	15.33293
354.5634	14.08744
354.731	13.04453
354.8986	13.66514
355.0661	10.20477
355.2337	7.754667
355.4012	11.49027
355.5688	16.3478
355.7363	11.86517
355.9039	10.29086
356.0714	6.783331
356.239	11.94523
356.4065	13.93692
356.574	10.81286
356.7415	7.87786
356.909	8.224243
357.0765	11.69783
357.244	12.42003
357.4115	9.341274
357.579	9.260792
357.7465	11.9189
357.914	6.862039
358.0815	6.773648
358.249	7.907085
358.4164	6.64703
358.5839	9.834575
358.7513	8.622528
358.9188	8.731295
359.0862	8.940311
359.2537	8.841883
359.4211	9.960705
359.5886	12.72148
359.756	10.77139
359.9234	9.605642
360.0909	10.50921
360.2583	5.284782
360.4257	6.313514
360.5931	10.18182
360.7605	14.3163
360.9279	10.98551
361.0953	10.72077
361.2627	11.10374
361.4301	13.77371
361.5974	8.389342
361.7648	11.15963
361.9322	10.53378
362.0995	8.428302
362.2669	13.60495
362.4343	14.08088
362.6016	9.55724
362.769	16.90308
362.9363	12.92947
363.1036	10.93382
363.271	13.62542
363.4383	16.56469
363.6056	9.385089
363.7729	11.07811
363.9402	9.115885
364.1075	8.031776
364.2748	10.98896
364.4421	15.66481
364.6094	10.35789
364.7767	10.90268
364.944	12.1967
365.1113	12.04766
365.2786	14.31973
365.4458	11.13411
365.6131	13.2711
365.7803	15.05016
365.9476	17.34591
366.1148	13.27141
366.2821	11.78705
366.4493	13.32566
366.6166	8.478985
366.7838	12.88842
366.951	12.4264
367.1182	7.825184
367.2855	11.77368
367.4527	12.86651
367.6199	13.54225
367.7871	11.80897
367.9543	12.59714
368.1215	9.985592
368.2886	7.815229
368.4558	10.32648
368.623	9.245958
368.7902	12.38718
368.9573	13.60872
369.1245	14.92203
369.2917	12.59088
369.4588	14.65154
369.6259	14.36116
369.7931	10.34071
369.9602	12.19129
370.1274	14.40932
370.2945	11.7648
370.4616	10.50998
370.6287	11.91172
370.7958	13.66643
370.963	10.90939
371.1301	13.70221
371.2971	11.78177
371.4643	9.78934
371.6313	11.84119
371.7984	11.70202
371.9655	8.511156
372.1326	15.50793
372.2997	13.16549
372.4667	9.645528
372.6338	11.72671
372.8008	11.22703
372.9679	16.69408
373.1349	14.17213
373.3019	15.73085
373.469	14.42182
373.636	10.28818
373.803	16.88937
373.9701	12.29351
374.1371	14.07681
374.3041	11.11663
374.4711	12.43707
374.6381	10.16969
374.8051	7.397847
374.9721	15.42066
375.1391	11.52732
375.3061	15.53884
375.473	10.02145
375.64	8.852791
375.8069	9.153395
375.9739	18.86509
376.1409	13.91495
376.3078	14.87879
376.4748	7.644032
376.6417	12.11723
376.8087	15.61965
376.9756	15.30576
377.1425	16.16748
377.3094	13.85943
377.4763	15.37383
377.6432	14.6806
377.8102	16.00753
377.9771	14.0969
378.144	13.21164
378.3109	13.49872
378.4777	11.94814
378.6446	9.125772
378.8115	15.93727
378.9784	15.60429
379.1452	8.598143
379.3121	9.404163
379.4789	10.96351
379.6458	12.06701
379.8127	12.74992
379.9795	13.18154
380.1463	17.05583
380.3131	18.22766
380.48	13.61465
380.6468	14.57775
380.8136	14.21916
380.9804	15.04775
381.1472	12.13757
381.314	13.40624
381.4808	11.33253
381.6476	16.64894
381.8144	10.54187
381.9812	10.52287
382.148	12.79436
382.3147	15.62627
382.4815	14.24146
382.6483	10.5914
382.815	15.50885
382.9818	14.55727
383.1485	19.09367
383.3153	10.01294
383.482	9.037063
383.6487	14.26325
383.8155	14.27893
383.9822	15.31387
384.1489	14.13114
384.3156	15.95367
384.4823	11.47317
384.649	15.42279
384.8157	12.51825
384.9824	13.80746
385.1491	16.2009
385.3158	16.52629
385.4825	16.91353
385.6491	11.65126
385.8158	14.61882
385.9825	16.10016
386.1491	19.95179
386.3157	15.49741
386.4824	11.18263
386.649	8.289664
386.8157	16.25705
386.9823	17.47977
387.1489	16.98043
387.3156	15.47311
387.4821	20.16083
387.6488	16.57403
387.8154	14.56301
387.982	15.10997
388.1486	11.65121
388.3152	16.36456
388.4818	13.99052
388.6483	13.12125
388.8149	20.68067
388.9815	18.18587
389.148	16.85679
389.3146	15.43599
389.4811	17.18534
389.6477	17.66575
389.8142	17.5124
389.9808	15.12646
390.1473	13.3902
390.3138	16.74249
390.4804	18.44127
390.6469	15.09012
390.8134	15.78717
390.9799	15.58303
391.1464	16.54778
391.3129	17.24412
391.4794	16.88672
391.6459	14.92084
391.8124	18.77339
391.9789	20.92964
392.1453	14.6872
392.3118	17.7778
392.4782	17.35558
392.6447	19.18762
392.8112	13.22725
392.9776	14.80732
393.144	13.35751
393.3105	15.39897
393.4769	13.0454
393.6433	12.4311
393.8098	12.60029
393.9762	16.35698
394.1426	16.01374
394.309	17.39942
394.4754	15.32454
394.6418	16.63498
394.8082	16.45025
394.9746	19.89767
395.141	18.9249
395.3073	23.17792
395.4737	22.40361
395.64	15.37906
395.8064	13.99946
395.9728	20.427
396.1391	20.62068
396.3055	17.41074
396.4718	13.93857
396.6381	16.79067
396.8045	19.23414
396.9708	16.50057
397.1371	12.8479
397.3034	12.47297
397.4697	15.22614
397.636	18.92271
397.8023	21.30579
397.9686	20.88264
398.1349	21.51731
398.3012	23.1498
398.4675	20.22569
398.6337	21.90503
398.8	26.67759
398.9662	24.7238
399.1325	24.39266
399.2988	22.68919
399.465	25.893
399.6313	23.72863
399.7975	21.64474
399.9637	24.36061
400.1299	23.99796
400.2961	23.59614
400.4624	22.91621
400.6286	23.89862
400.7948	25.50016
400.961	28.64515
401.1272	23.22732
401.2934	21.36441
401.4595	22.49633
401.6257	26.42124
401.7919	25.88262
401.9581	21.41606
402.1242	24.1158
402.2904	23.55063
402.4565	24.88893
402.6227	26.48982
402.7888	26.19247
402.955	21.45321
403.1211	20.89628
403.2872	22.1619
403.4533	25.56308
403.6194	25.4121
403.7856	31.10298
403.9517	28.59085
404.1177	25.33773
404.2838	27.07131
404.4499	21.52357
404.616	24.45691
404.7821	23.27685
404.9482	24.30417
405.1142	24.9631
405.2803	22.5906
405.4464	22.26302
405.6124	21.39306
405.7784	21.67817
405.9445	26.38399
406.1105	26.39577
406.2766	20.08829
406.4426	25.23864
406.6086	29.03422
406.7746	28.74439
406.9406	27.16292
407.1066	28.12958
407.2726	28.17581
407.4386	28.53637
407.6046	27.40468
407.7706	29.04601
407.9366	23.37843
408.1025	30.7918
408.2685	31.98091
408.4344	36.38175
408.6004	31.23067
408.7664	31.39981
408.9323	32.37394
409.0983	28.85998
409.2642	31.24754
409.4301	32.78032
409.596	30.22338
409.762	27.39314
409.9279	27.78744
410.0938	31.25071
410.2597	28.90104
410.4256	31.2165
410.5915	32.5395
410.7574	27.82351
410.9232	26.52126
411.0891	28.53022
411.255	30.38337
411.4209	30.77905
411.5867	36.60371
411.7526	32.26794
411.9184	35.79751
412.0843	32.20614
412.2501	32.22371
412.4159	34.78377
412.5818	31.44712
412.7476	30.56789
412.9134	31.69792
413.0792	30.41072
413.245	30.62751
413.4108	30.37881
413.5766	32.88079
413.7424	30.12748
413.9082	34.88979
414.074	31.22132
414.2397	36.12988
414.4055	36.94835
414.5713	37.79673
414.737	30.88792
414.9028	33.72848
415.0685	30.40952
415.2343	33.59513
415.4	32.2263
415.5658	31.37177
415.7315	37.8589
415.8972	35.97483
416.0629	31.60413
416.2286	31.85539
416.3943	38.24085
416.56	37.534
416.7257	30.06417
416.8914	35.73215
417.0571	36.45407
417.2228	32.04394
417.3884	36.29303
417.5541	38.74675
417.7198	39.9985
417.8854	37.01754
418.0511	33.77359
418.2167	37.11522
418.3824	33.56123
418.548	33.00534
418.7136	31.30864
418.8792	31.38916
419.0449	37.43666
419.2105	34.5554
419.3761	34.86531
419.5417	33.97575
419.7073	33.51882
419.8729	31.01633
420.0385	32.69193
420.204	38.48731
420.3696	37.09853
420.5352	42.46301
420.7007	39.72515
420.8663	41.13169
421.0319	37.91224
421.1974	36.59362
421.3629	37.72623
421.5285	39.34315
421.694	40.68369
421.8595	44.38326
422.0251	45.50822
422.1906	49.019
422.3561	40.2924
422.5216	38.14854
422.6871	33.84266
422.8526	35.4704
423.0181	39.84708
423.1835	39.99216
423.349	39.61855
423.5145	37.16822
423.68	36.05984
423.8454	42.80216
424.0109	46.63937
424.1763	41.51321
424.3418	46.01477
424.5072	43.00982
424.6726	44.84634
424.838	45.31539
425.0035	43.64137
425.1689	33.86942
425.3343	38.6551
425.4997	44.05496
425.6651	44.85298
425.8305	42.72607
425.9959	39.04667
426.1613	39.88462
426.3267	41.39861
426.492	48.27122
426.6574	47.94735
426.8228	42.26899
426.9881	44.30011
427.1534	42.98517
427.3188	38.73436
427.4841	43.60707
427.6495	42.70647
427.8148	40.75864
427.9801	43.49663
428.1454	50.65968
428.3107	46.08411
428.476	48.63838
428.6414	46.69671
428.8066	44.69858
428.9719	40.57535
429.1372	46.15045
429.3025	45.06334
429.4678	45.38237
429.633	43.82506
429.7983	38.87443
429.9636	37.23223
430.1288	36.24073
430.294	32.961
430.4593	36.21449
430.6245	37.61063
430.7897	35.67917
430.955	32.92391
431.1202	39.38568
431.2854	42.71299
431.4506	47.81835
431.6158	53.87867
431.781	54.34891
431.9462	52.37321
432.1114	45.65979
432.2766	43.23946
432.4417	41.20108
432.6069	46.45236
432.772	45.78611
432.9372	48.00057
433.1024	53.23342
433.2675	51.7743
433.4326	48.73167
433.5977	47.85104
433.7629	47.30108
433.928	42.81076
434.0931	39.29543
434.2582	39.70032
434.4233	50.20165
434.5884	58.2524
434.7535	53.57687
434.9186	53.89917
435.0837	50.26527
435.2488	52.85891
435.4138	49.71283
435.5789	53.3326
435.744	55.55304
435.909	57.78655
436.0741	55.1944
436.2391	51.96062
436.4042	55.29501
436.5692	57.26286
436.7342	59.06926
436.8992	59.27529
437.0643	59.88205
437.2293	59.1515
437.3943	55.30827
437.5593	57.18909
437.7243	57.57264
437.8893	56.81232
438.0542	55.83462
438.2192	53.13669
438.3842	46.95067
438.5491	48.98307
438.7141	58.17939
438.8791	55.1978
439.044	51.36371
439.209	51.94458
439.3739	54.59619
439.5388	59.62528
439.7037	62.64493
439.8687	61.73398
440.0336	59.45328
440.1985	58.13944
440.3634	57.05625
440.5283	57.54559
440.6932	53.47308
440.8581	62.90262
441.0229	59.68842
441.1878	66.72898
441.3527	63.71166
441.5175	55.40487
441.6824	58.86639
441.8472	62.57396
442.0121	65.75829
442.1769	62.51981
442.3418	62.88943
442.5066	61.59327
442.6714	62.85978
442.8362	63.1128
443.001	60.50683
443.1659	63.15498
443.3307	55.0169
443.4955	58.22915
443.6602	64.78126
443.825	67.13503
443.9898	64.04294
444.1546	63.74107
444.3193	62.38413
444.4841	70.29424
444.6488	68.6856
444.8136	72.15534
444.9783	69.05016
445.1431	66.80926
445.3078	67.35129
445.4725	65.60638
445.6372	65.60586
445.802	64.85548
445.9667	64.33434
446.1314	60.5753
446.2961	58.64952
446.4608	68.87453
446.6255	65.73109
446.7901	62.03649
446.9548	69.33314
447.1195	69.11229
447.2841	71.31149
447.4488	69.1939
447.6134	75.79999
447.7781	76.2884
447.9427	66.69852
448.1074	70.30056
448.272	66.84237
448.4366	71.42291
448.6012	72.71576
448.7658	67.96185
448.9305	70.40176
449.095	73.77231
449.2596	70.74138
449.4242	71.8186
449.5888	74.32558
449.7534	73.53928
449.9179	75.79028
450.0825	74.63968
450.2471	77.27908
450.4116	72.43945
450.5762	76.07259
450.7407	75.81132
450.9052	75.8468
451.0698	75.23326
451.2343	79.11266
451.3988	79.26041
451.5633	78.08022
451.7278	79.6619
451.8923	76.03569
452.0568	79.69456
452.2213	75.45483
452.3858	75.08565
452.5503	74.16937
452.7148	72.2953
452.8792	75.28356
453.0437	71.63441
453.2081	75.56615
453.3726	76.35379
453.537	75.88538
453.7015	77.75047
453.8659	80.34155
454.0303	79.26283
454.1947	82.54019
454.3592	82.27876
454.5236	81.52605
454.688	81.02265
454.8524	76.25887
455.0168	79.83459
455.1811	77.12382
455.3455	72.43156
455.5099	82.85184
455.6743	82.60084
455.8386	79.87298
456.003	77.7622
456.1673	80.70153
456.3317	88.46722
456.496	80.38995
456.6603	79.42268
456.8246	88.78487
456.989	86.13058
457.1533	81.22668
457.3176	84.09479
457.4819	78.89395
457.6462	83.94132
457.8105	85.43388
457.9748	81.35648
458.1391	76.76943
458.3033	75.75211
458.4676	80.3691
458.6319	83.41311
458.7961	85.85619
458.9604	86.86707
459.1246	79.96927
459.2888	76.02136
459.4531	83.95004
459.6173	86.86125
459.7815	83.12857
459.9457	85.09118
460.11	83.33892
460.2741	81.11438
460.4384	77.40637
460.6025	84.1058
460.7667	89.95826
460.9309	86.24458
461.0951	83.48917
461.2592	83.0142
461.4234	80.73772
461.5876	80.63146
461.7517	85.54746
461.9159	83.2196
462.08	83.85319
462.2441	79.96262
462.4082	85.6917
462.5724	84.74291
462.7365	88.52438
462.9006	90.0499
463.0647	90.78228
463.2288	85.10928
463.3929	87.51685
463.557	82.2395
463.721	81.36512
463.8851	86.18848
464.0492	83.69133
464.2132	82.34058
464.3773	77.80923
464.5414	78.81889
464.7054	77.16792
464.8694	80.51048
465.0334	82.90658
465.1975	89.99107
465.3615	87.79109
465.5255	79.51417
465.6895	79.37426
465.8535	85.44334
466.0175	84.33673
466.1815	86.08932
466.3455	82.9678
466.5095	81.02522
466.6734	79.07134
466.8374	79.85774
467.0014	82.0462
467.1653	80.46299
467.3293	86.97424
467.4932	87.0735
467.6571	87.58308
467.8211	84.88949
467.985	80.1216
468.1489	78.07585
468.3128	79.83061
468.4767	88.30511
468.6406	87.95165
468.8045	89.18777
468.9684	83.77795
469.1323	86.32924
469.2962	90.04367
469.46	89.12598
469.6239	86.74149
469.7878	84.36337
469.9516	83.84451
470.1154	84.26721
470.2793	81.57431
470.4431	84.51577
470.607	83.03807
470.7708	81.96927
470.9346	84.59715
471.0984	80.42053
471.2622	86.01109
471.426	87.78744
471.5898	87.24729
471.7536	94.47375
471.9174	95.20229
472.0811	97.37041
472.2449	93.77819
472.4087	92.33652
472.5724	88.57885
472.7362	88.0079
472.8999	85.31409
473.0637	89.33102
473.2274	89.17395
473.3911	85.02969
473.5548	87.38014
473.7185	88.12009
473.8822	87.18771
474.0459	87.90134
474.2096	88.66499
474.3733	87.81335
474.537	90.32932
474.7007	93.4245
474.8643	92.02534
475.028	89.80023
475.1917	92.77377
475.3553	88.06558
475.519	83.00433
475.6826	87.82115
475.8463	93.71582
476.0099	95.72498
476.1735	93.00053
476.3371	90.05127
476.5007	84.27403
476.6643	85.61954
476.8279	88.62657
476.9915	88.39303
477.1551	96.64343
477.3187	87.22123
477.4823	90.65792
477.6458	94.42984
477.8094	88.96673
477.9729	93.00493
478.1365	88.95995
478.3	89.72154
478.4636	91.70615
478.6271	89.88576
478.7906	91.43761
478.9541	93.89552
479.1176	90.16975
479.2812	93.04579
479.4447	96.48544
479.6082	98.84644
479.7716	95.59575
479.9351	92.29124
480.0986	91.24432
480.2621	89.87068
480.4255	92.92211
480.589	93.18918
480.7524	91.19904
480.9159	88.81055
481.0793	93.84655
481.2428	94.26965
481.4062	94.24681
481.5696	94.56011
481.733	92.66749
481.8964	91.40653
482.0598	93.89764
482.2232	93.57073
482.3866	92.15853
482.55	96.90362
482.7134	88.28425
482.8768	91.58937
483.0401	88.19849
483.2035	86.48564
483.3668	86.76564
483.5302	90.08287
483.6935	88.61762
483.8568	89.82849
484.0202	87.43795
484.1835	92.43437
484.3468	93.32304
484.5101	92.86608
484.6734	99.04533
484.8367	93.97504
485	91.59223
485.1633	91.17579
485.3266	88.17994
485.4899	88.24127
485.6531	85.29514
485.8164	81.48892
485.9796	78.86711
486.1429	68.48416
486.3061	68.31536
486.4694	77.32656
486.6326	82.86169
486.7958	87.398
486.959	87.2739
487.1223	86.56197
487.2855	78.29585
487.4486	85.94087
487.6118	89.0484
487.775	89.29005
487.9382	88.77091
488.1014	92.91531
488.2646	96.46839
488.4277	81.60734
488.5909	90.2705
488.754	90.68951
488.9171	91.69875
489.0803	87.11285
489.2434	89.50181
489.4066	92.34808
489.5697	100.9922
489.7328	99.81118
489.8959	95.55029
490.059	95.66722
490.2221	95.2868
490.3852	94.79796
490.5482	95.02122
490.7113	94.93692
490.8744	96.62279
491.0374	91.52666
491.2005	94.31289
491.3636	96.51775
491.5266	102.2079
491.6896	97.41673
491.8527	89.96936
492.0157	90.33749
492.1787	91.68948
492.3417	94.44822
492.5047	94.84058
492.6677	100.0749
492.8307	100.4882
492.9937	98.53212
493.1567	102.5084
493.3196	96.39631
493.4826	93.83446
493.6456	99.58561
493.8085	89.45979
493.9715	96.08799
494.1344	95.2046
494.2974	103.551
494.4603	100.721
494.6232	97.01764
494.7861	104.4306
494.949	98.21468
495.1119	100.0811
495.2748	101.1148
495.4377	106.2417
495.6006	98.38771
495.7635	94.99095
495.9264	94.76563
496.0892	99.04078
496.2521	98.91389
496.4149	100.7009
496.5778	99.82895
496.7407	99.01925
496.9035	99.15907
497.0663	94.92712
497.2291	99.06727
497.3919	97.57364
497.5547	104.8239
497.7176	110.5771
497.8804	105.1388
498.0432	96.77977
498.2059	97.06938
498.3687	92.80925
498.5315	92.26606
498.6942	96.96883
498.857	101.7568
499.0198	109.3794
499.1825	106.5863
499.3452	99.94652
499.508	97.50043
499.6707	104.0964
499.8334	99.89375
499.9962	102.3584
500.1589	95.96722
500.3216	105.0652
500.4843	99.32739
500.6469	104.3914
500.8096	96.76692
500.9723	105.2713
501.135	109.6278
501.2976	101.8775
501.4603	96.54146
501.623	98.01509
501.7856	103.136
501.9482	106.1318
502.1109	104.7004
502.2735	107.7442
502.4361	103.4467
502.5987	105.1482
502.7614	100.0785
502.924	106.8537
503.0865	109.0535
503.2491	108.0112
503.4117	109.9115
503.5743	116.9541
503.7368	106.092
503.8994	105.4718
504.062	101.6419
504.2245	104.7437
504.3871	106.4359
504.5496	110.0347
504.7121	110.9004
504.8746	109.5951
505.0372	109.0145
505.1997	114.3043
505.3622	112.2093
505.5247	115.8457
505.6872	117.6423
505.8497	114.9106
506.0121	121.2087
506.1746	122.5236
506.3371	120.5538
506.4995	117.3464
506.662	117.8876
506.8244	114.2051
506.9869	116.8145
507.1493	116.3091
507.3117	113.039
507.4742	119.418
507.6366	122.2819
507.799	114.7943
507.9614	113.917
508.1238	118.0088
508.2862	114.8737
508.4485	118.9069
508.6109	127.8225
508.7733	128.7049
508.9357	123.6108
509.098	125.262
509.2604	125.1032
509.4227	123.9161
509.5851	126.8002
509.7474	130.8419
509.9097	122.6005
510.072	124.9977
510.2343	132.298
510.3966	136.6684
510.5589	128.498
510.7212	130.4966
510.8835	122.3817
511.0458	125.6922
511.2081	133.4964
511.3703	142.8314
511.5326	146.5556
511.6949	142.2992
511.8571	134.7889
512.0193	133.3822
512.1816	138.4926
512.3438	138.4449
512.506	134.3759
512.6682	136.7991
512.8304	137.2526
512.9926	136.5871
513.1548	134.447
513.317	135.1814
513.4792	134.4453
513.6414	138.375
513.8035	129.1099
513.9657	133.059
514.1279	133.9866
514.29	126.8338
514.4521	134.2374
514.6143	139.0452
514.7764	139.3968
514.9385	142.3213
515.1006	141.6857
515.2628	143.7475
515.4249	142.5106
515.587	142.9852
515.7491	151.0087
515.9111	150.4088
516.0732	141.6757
516.2353	150.364
516.3973	139.9855
516.5594	138.2454
516.7214	132.374
516.8835	125.9264
517.0455	131.7583
517.2076	127.0727
517.3696	125.8877
517.5316	137.8525
517.6937	157.5079
517.8557	158.5625
518.0176	151.815
518.1796	149.1729
518.3416	136.9079
518.5036	134.2135
518.6656	140.6863
518.8275	157.4685
518.9895	156.807
519.1514	160.0156
519.3134	155.723
519.4753	156.9867
519.6373	159.5379
519.7992	168.7885
519.9611	168.6691
520.123	171.7156
520.2849	168.7729
520.4468	165.0143
520.6087	167.8809
520.7706	164.519
520.9325	163.9928
521.0944	168.8768
521.2562	171.8083
521.4181	180.2234
521.58	182.7648
521.7418	176.7553
521.9036	181.9455
522.0655	185.8296
522.2273	187.3297
522.3891	175.8026
522.551	175.4429
522.7128	176.0033
522.8746	173.8362
523.0363	182.0886
523.1981	188.7318
523.3599	183.1758
523.5217	186.607
523.6835	189.7215
523.8452	198.0126
524.007	202.9962
524.1687	204.3443
524.3304	202.9367
524.4922	202.1507
524.6539	201.6741
524.8157	198.6727
524.9774	203.3268
525.1391	207.6514
525.3008	207.9369
525.4625	203.7807
525.6241	207.5991
525.7858	213.0176
525.9475	211.7931
526.1092	205.151
526.2709	202.6003
526.4325	184.4796
526.5942	188.5633
526.7558	185.2067
526.9174	191.4359
527.079	193.4529
527.2407	199.6594
527.4023	203.5468
527.5639	210.8793
527.7255	212.1243
527.8871	216.6641
528.0487	222.6808
528.2103	224.6535
528.3718	219.1837
528.5334	228.6651
528.695	236.5647
528.8565	235.3048
529.0181	243.8544
529.1796	248.0771
529.3412	235.1204
529.5027	236.1997
529.6642	230.1642
529.8257	218.9436
529.9872	221.8307
530.1487	228.1114
530.3102	225.9053
530.4717	229.342
530.6332	238.7939
530.7947	243.1224
530.9562	241.6586
531.1176	246.6115
531.2791	244.5941
531.4405	241.3158
531.6019	237.7464
531.7634	241.1202
531.9248	239.7437
532.0862	242.6727
532.2477	237.0324
532.4091	229.9232
532.5704	227.3614
532.7319	222.2511
532.8932	218.7387
533.0546	232.841
533.216	242.1447
533.3774	245.7663
533.5388	247.4058
533.7001	248.3036
533.8615	243.6868
534.0228	240.0327
534.1841	232.9195
534.3455	234.8299
534.5068	234.6078
534.6681	236.8988
534.8293	235.473
534.9907	246.1408
535.152	246.6594
535.3132	250.8314
535.4745	251.528
535.6358	264.166
535.7971	265.2607
535.9583	256.6956
536.1196	250.784
536.2808	247.6449
536.4421	244.2558
536.6033	240.8477
536.7645	240.4417
536.9258	235.358
537.087	232.1609
537.2482	234.6269
537.4094	235.796
537.5706	253.1133
537.7318	257.7054
537.8929	247.1772
538.0541	243.3716
538.2153	238.8313
538.3764	244.6841
538.5376	246.1889
538.6987	248.128
538.8599	243.1037
539.021	242.9656
539.1821	242.537
539.3432	238.4887
539.5043	241.1599
539.6655	240.62
539.8265	244.4037
539.9876	246.0655
540.1487	240.6231
540.3098	239.5038
540.4708	237.6405
540.6319	231.5278
540.793	234.9114
540.954	235.299
541.1151	229.0201
541.2761	235.8916
541.4371	244.4133
541.5981	245.2378
541.7592	243.6642
541.9202	243.7551
542.0812	248.1989
542.2422	239.4833
542.4031	246.061
542.5641	242.9475
542.7251	247.2183
542.886	240.3112
543.0471	237.9755
543.208	242.5299
543.369	245.4706
543.5298	241.8901
543.6908	237.4259
543.8517	251.1809
544.0126	264.5916
544.1736	259.1043
544.3345	256.7545
544.4954	243.5665
544.6563	245.5326
544.8171	244.8037
544.978	255.1203
545.1389	266.6294
545.2997	261.1195
545.4606	235.8358
545.6215	236.4455
545.7823	247.9144
545.9432	248.6264
546.104	251.542
546.2648	254.2481
546.4256	249.3726
546.5864	249.1277
546.7473	256.586
546.908	262.0413
547.0688	260.9955
547.2296	259.942
547.3904	245.2585
547.5511	245.3758
547.7119	240.8993
547.8727	252.4988
548.0334	253.3395
548.1942	249.6934
548.3549	253.3366
548.5156	259.9444
548.6763	264.2839
548.837	261.3068
548.9977	255.9448
549.1584	257.7082
549.3192	259.6573
549.4798	265.4767
549.6405	260.3382
549.8011	263.2889
549.9619	257.837
550.1225	262.4724
550.2831	261.0284
550.4438	259.3596
550.6044	258.4131
550.765	255.2802
550.9257	255.9302
551.0863	255.5944
551.2469	265.0294
551.4075	257.269
551.5681	252.1893
551.7287	260.0509
551.8893	254.4672
552.0498	260.4866
552.2104	269.9709
552.371	260.2415
552.5315	260.4115
552.6921	253.5059
552.8526	242.9657
553.0131	252.1296
553.1736	251.4429
553.3342	257.1109
553.4947	252.1919
553.6552	250.2991
553.8157	260.5375
553.9762	259.1367
554.1367	257.4046
554.2971	259.2746
554.4576	254.3817
554.618	257.6197
554.7785	256.8076
554.939	256.6081
555.0994	261.6784
555.2598	264.5468
555.4203	248.1121
555.5807	250.9173
555.7411	255.8581
555.9015	255.2339
556.0619	252.3653
556.2223	249.6266
556.3827	250.9736
556.5431	238.5218
556.7034	239.077
556.8638	242.2297
557.0242	243.5348
557.1845	241.1202
557.3448	243.737
557.5052	235.4371
557.6655	243.8952
557.8259	245.8153
557.9861	246.7545
558.1465	248.5316
558.3068	247.0714
558.467	238.9657
558.6274	232.8811
558.7877	227.6094
558.9479	228.5594
559.1082	232.3785
559.2684	232.221
559.4287	230.2551
559.5889	235.7074
559.7491	237.4999
559.9094	235.5988
560.0696	231.1548
560.2299	226.9337
560.3901	237.4355
560.5502	231.7518
560.7104	236.2453
560.8707	239.7258
561.0308	243.887
561.191	235.3266
561.3511	225.7659
561.5114	226.1256
561.6714	220.0728
561.8316	220.1005
561.9918	220.1394
562.1519	226.1412
562.312	226.5669
562.4722	226.9355
562.6323	224.7852
562.7924	227.1669
562.9525	232.4495
563.1125	231.7015
563.2726	230.2451
563.4327	231.1493
563.5928	230.0599
563.7528	230.8654
563.9129	228.2778
564.0729	222.8852
564.233	224.1356
564.393	227.4227
564.553	219.3952
564.7131	221.3731
564.873	224.6176
565.0331	225.2563
565.1931	220.5554
565.353	216.8435
565.5131	213.5807
565.673	202.0066
565.833	214.0193
565.9929	204.6151
566.1529	205.4167
566.3129	210.5525
566.4728	211.3371
566.6328	211.2446
566.7927	205.8739
566.9526	211.4776
567.1125	214.0072
567.2724	212.6559
567.4323	214.3505
567.5922	207.7323
567.7521	201.1526
567.9119	204.7283
568.0718	207.7967
568.2317	204.1278
568.3915	202.9877
568.5514	206.5821
568.7112	209.2924
568.871	203.6028
569.0309	189.79
569.1907	201.4646
569.3505	202.2521
569.5103	205.895
569.6701	209.3964
569.8299	194.6921
569.9897	199.2135
570.1495	195.6479
570.3092	194.0231
570.469	189.9161
570.6287	188.9931
570.7885	189.832
570.9482	189.0561
571.108	182.3537
571.2677	187.6837
571.4274	193.6651
571.5871	194.3599
571.7468	195.1194
571.9066	193.5027
572.0662	192.2927
572.2259	202.126
572.3856	201.6699
572.5452	197.2187
572.7049	193.7342
572.8646	184.7524
573.0242	187.2598
573.1838	187.5583
573.3435	188.8183
573.5031	195.8479
573.6627	193.1754
573.8223	187.3368
573.9819	189.2102
574.1415	186.4392
574.3011	189.3508
574.4607	195.0783
574.6203	189.5458
574.7798	183.1113
574.9394	181.5868
575.099	179.9669
575.2585	178.6365
575.418	185.4221
575.5776	185.3112
575.7371	176.8826
575.8966	175.7867
576.0562	178.0555
576.2156	175.9534
576.3751	177.2191
576.5346	182.6982
576.6941	182.9953
576.8536	184.4115
577.0131	183.4382
577.1725	176.6111
577.332	180.5944
577.4914	185.6547
577.6508	176.136
577.8103	173.7231
577.9697	176.0652
578.1291	168.4864
578.2885	171.5141
578.4479	169.1602
578.6073	166.6626
578.7667	167.8069
578.9261	165.9386
579.0854	164.0855
579.2448	165.786
579.4042	166.2032
579.5635	167.987
579.7229	173.9144
579.8822	168.0805
580.0416	170.105
580.2009	174.6487
580.3602	170.9531
580.5195	166.2661
580.6788	168.0842
580.8381	168.1829
580.9974	170.0105
581.1566	167.4247
581.3159	170.1554
581.4752	162.0305
581.6345	160.5244
581.7937	163.2701
581.9529	160.9917
582.1122	161.7697
582.2714	159.803
582.4306	161.4689
582.5898	162.5124
582.749	165.0387
582.9082	163.2603
583.0674	160.9094
583.2266	161.7157
583.3857	160.3303
583.5449	155.133
583.7041	160.5491
583.8633	164.2246
584.0224	164.9423
584.1815	158.9205
584.3407	158.3362
584.4998	152.3917
584.6589	153.3742
584.818	156.7202
584.9771	156.0425
585.1362	159.3373
585.2953	161.5748
585.4544	150.8069
585.6135	150.3498
585.7725	148.189
585.9316	151.099
586.0906	154.8916
586.2497	156.2165
586.4087	151.8166
586.5677	153.0979
586.7267	152.0782
586.8858	154.7268
587.0448	147.6084
587.2038	146.4223
587.3628	144.757
587.5218	146.9978
587.6807	148.9453
587.8397	152.7469
587.9987	154.3291
588.1577	148.3532
588.3166	143.3372
588.4755	142.1644
588.6345	145.1842
588.7934	135.776
588.9523	128.1645
589.1112	125.8106
589.2701	125.7811
589.429	128.3478
589.5879	133.7437
589.7468	133.2086
589.9056	129.171
590.0645	134.1611
590.2234	136.5424
590.3822	139.5425
590.5411	141.6479
590.6999	148.1947
590.8588	141.5278
591.0176	141.054
591.1764	142.3305
591.3352	143.2181
591.494	145.1545
591.6528	142.6681
591.8116	140.2164
591.9703	140.1308
592.1291	142.0649
592.2878	133.7113
592.4467	140.6274
592.6053	145.1264
592.7641	136.3723
592.9229	133.7821
593.0816	138.8738
593.2403	139.7357
593.399	134.6048
593.5577	138.827
593.7164	137.4932
593.8751	133.8346
594.0338	137.8806
594.1924	141.1131
594.3511	139.0456
594.5098	140.6952
594.6684	138.4263
594.8271	127.6505
594.9857	125.2185
595.1443	132.6895
595.303	133.2259
595.4615	131.4698
595.6202	133.3191
595.7787	134.876
595.9374	131.297
596.0959	139.9824
596.2545	136.2037
596.4131	139.5629
596.5717	136.9968
596.7302	135.4693
596.8887	133.2506
597.0473	132.9146
597.2058	137.4344
597.3644	138.6154
597.5229	134.3478
597.6814	133.6493
597.8399	127.3265
597.9984	134.5874
598.1569	129.8949
598.3154	131.9914
598.4738	133.754
598.6323	135.6719
598.7908	134.9395
598.9492	131.8988
599.1076	137.8106
599.2661	139.1953
599.4245	133.8264
599.5829	135.7044
599.7413	135.4085
599.8997	133.3898
600.0581	133.4631
600.2165	134.6662
600.3749	127.6399
600.5333	128.8732
600.6917	133.5564
600.85	131.735
601.0084	133.899
601.1667	131.659
601.325	133.3923
601.4833	134.7019
601.6417	133.7202
601.8	129.9882
601.9583	130.3152
602.1166	133.5827
602.2749	131.166
602.4332	126.2499
602.5914	123.6494
602.7498	131.6636
602.908	137.7532
603.0662	127.1646
603.2245	125.2005
603.3828	132.4724
603.541	138.3648
603.6992	136.5494
603.8574	125.0919
604.0156	128.8323
604.1738	128.6365
604.332	128.8293
604.4902	126.9559
604.6484	128.5499
604.8065	132.082
604.9647	132.4793
605.1229	132.1383
605.281	136.9442
605.4391	129.2661
605.5973	131.0264
605.7554	129.0842
605.9135	131.1943
606.0717	130.2531
606.2297	127.9958
606.3878	126.727
606.5459	125.9555
606.704	125.9603
606.8621	127.8654
607.0201	129.7292
607.1782	126.4314
607.3362	124.4953
607.4943	126.1335
607.6523	125.7279
607.8104	128.7948
607.9684	131.2985
608.1264	130.7924
608.2844	122.1939
608.4424	119.3498
608.6003	130.0588
608.7584	127.0915
608.9163	123.1085
609.0743	123.5519
609.2322	126.1783
609.3902	121.6168
609.5482	127.1842
609.7061	116.9206
609.864	127.7092
610.0219	118.0926
610.1798	115.5157
610.3377	116.3543
610.4956	115.0251
610.6535	125.8588
610.8114	120.9143
610.9693	122.6438
611.1271	117.4176
611.285	121.6998
611.4429	123.6101
611.6007	117.6635
611.7585	116.9158
611.9164	113.743
612.0742	117.8225
612.232	116.4953
612.3898	117.0505
612.5476	119.6273
612.7054	116.5275
612.8632	108.4364
613.0209	116.0589
613.1787	120.0495
613.3365	114.3982
613.4942	112.3864
613.652	112.3485
613.8097	113.1356
613.9674	114.4111
614.1252	113.9992
614.2829	111.2518
614.4406	113.356
614.5983	110.5328
614.756	113.7175
614.9136	109.3133
615.0714	113.5507
615.229	106.7385
615.3867	112.8958
615.5443	111.8176
615.702	114.8856
615.8596	111.3213
616.0172	111.9221
616.1748	107.3429
616.3325	101.7017
616.4901	103.7584
616.6476	109.2138
616.8052	110.215
616.9628	106.9985
617.1204	104.2225
617.278	103.3643
617.4355	105.5205
617.5931	107.8326
617.7506	107.6918
617.9081	104.7775
618.0657	112.6614
618.2232	108.2937
618.3807	108.3273
618.5382	109.6833
618.6957	107.8126
618.8532	100.6043
619.0107	111.0854
619.1682	109.6826
619.3256	102.4368
619.4831	102.4842
619.6406	104.4096
619.798	105.4381
619.9554	109.273
620.1129	115.229
620.2703	101.2906
620.4277	106.9783
620.5851	107.8956
620.7425	110.5199
620.8998	106.0805
621.0573	102.5332
621.2146	106.9905
621.372	109.203
621.5294	96.81919
621.6867	107.4673
621.8441	103.4742
622.0013	104.1659
622.1587	103.9898
622.316	99.99798
622.4733	100.9611
622.6306	106.4673
622.7879	98.88155
622.9452	104.5462
623.1025	97.71746
623.2598	100.0928
623.4171	107.2574
623.5743	107.8674
623.7316	106.5435
623.8888	99.15867
624.046	99.32117
624.2032	105.2179
624.3605	101.5107
624.5176	93.97346
624.6749	93.67428
624.8321	104.0921
624.9893	100.7522
625.1464	97.59829
625.3036	100.3443
625.4608	102.6409
625.6179	100.8486
625.7751	102.9023
625.9322	106.5425
626.0894	102.1838
626.2465	93.30922
626.4036	96.80276
626.5607	102.6052
626.7178	103.676
626.8749	100.9081
627.032	96.60928
627.189	95.53569
627.3461	107.4895
627.5032	109.0261
627.6602	98.44874
627.8173	102.4929
627.9743	96.05309
628.1313	93.70405
628.2884	96.26781
628.4454	101.902
628.6024	95.19002
628.7594	96.78098
628.9164	102.0828
629.0734	101.212
629.2303	103.0221
629.3873	100.3626
629.5443	93.72156
629.7012	94.488
629.8582	97.85023
630.0151	95.57932
630.172	100.6437
630.3289	92.72457
630.4858	96.31326
630.6428	98.98537
630.7996	95.96696
630.9565	99.44363
631.1134	94.25898
631.2703	98.97797
631.4272	96.95216
631.584	100.8842
631.7408	94.15178
631.8977	99.86426
632.0546	107.2172
632.2114	99.27069
632.3682	97.71546
632.525	98.07317
632.6818	94.29871
632.8386	97.77799
632.9954	99.54452
633.1522	98.57623
633.3089	98.60656
633.4657	91.97607
633.6224	92.65296
633.7792	98.85104
633.9359	97.16288
634.0927	94.50557
634.2494	94.00323
634.4061	92.87965
634.5628	97.03693
634.7195	97.29908
634.8762	96.57383
635.0329	95.25696
635.1895	93.67532
635.3462	93.54297
635.5029	97.59909
635.6595	93.54441
635.8162	92.15314
635.9728	96.33627
636.1295	96.10011
636.2861	95.12995
636.4427	90.92432
636.5992	88.95625
636.7559	96.49034
636.9124	98.00892
637.069	95.62833
637.2256	92.58553
637.3821	93.82626
637.5387	95.18771
637.6953	92.92974
637.8518	92.05037
638.0084	87.32313
638.1649	90.6253
638.3214	94.16129
638.4779	88.6455
638.6344	91.58923
638.7909	91.73039
638.9474	94.57953
639.1038	93.9702
639.2603	89.17503
639.4167	88.49199
639.5732	98.59686
639.7297	88.7788
639.8861	86.3007
640.0425	85.22588
640.199	86.00868
640.3553	91.45758
640.5118	97.2987
640.6682	90.54991
640.8245	85.70679
640.981	86.48271
641.1373	85.17821
641.2936	90.77775
641.45	88.89323
641.6064	88.63405
641.7627	84.7295
641.9191	85.51122
642.0754	89.19324
642.2317	83.98851
642.388	88.00403
642.5443	85.0734
642.7006	88.18556
642.8569	89.94632
643.0131	86.63699
643.1694	88.50366
643.3257	89.0678
643.4819	87.05302
643.6382	85.29777
643.7944	85.18236
643.9506	87.75186
644.1069	86.49447
644.2631	83.3249
644.4193	87.27924
644.5754	86.41327
644.7316	85.16232
644.8878	79.50491
645.044	83.97843
645.2002	84.80888
645.3563	79.52724
645.5125	82.11366
645.6686	80.43782
645.8248	75.60274
645.9809	76.10331
646.137	79.38514
646.2931	81.18284
646.4492	74.83043
646.6053	83.06232
646.7614	84.9257
646.9174	80.44026
647.0735	83.38093
647.2296	81.45643
647.3856	80.46261
647.5417	80.23415
647.6977	77.48647
647.8537	76.26892
648.0098	73.95691
648.1658	76.98134
648.3218	79.53595
648.4777	74.70728
648.6337	76.78121
648.7897	79.05935
648.9457	77.11034
649.1016	78.9415
649.2576	73.68598
649.4135	68.90124
649.5695	72.02685
649.7254	69.38258
649.8813	70.76991
650.0372	70.72401
650.1932	76.73617
650.3491	78.79872
650.5049	75.08601
650.6608	76.8969
650.8167	82.42934
650.9725	75.78963
651.1284	77.92782
651.2842	84.37911
651.4401	79.11172
651.5959	72.21507
651.7518	71.04401
651.9076	69.2261
652.0634	72.15225
652.2192	77.07385
652.3749	74.34688
652.5308	71.41441
652.6865	76.18768
652.8423	77.41724
652.998	74.12388
653.1538	70.34424
653.3096	71.73345
653.4653	78.37379
653.621	81.1904
653.7767	82.3707
653.9324	79.41905
654.0881	75.92509
654.2438	72.19676
654.3995	72.74689
654.5552	72.63233
654.7109	76.51234
654.8665	71.56285
655.0222	68.25994
655.1778	69.96405
655.3334	66.49859
655.4891	70.49276
655.6447	71.54395
655.8003	74.89698
655.9559	74.61762
656.1115	65.51493
656.2671	63.68304
656.4227	62.45934
656.5782	64.90034
656.7338	65.21754
656.8893	68.19232
657.0449	72.68431
657.2004	73.27051
657.356	68.97355
657.5115	71.38674
657.667	72.34187
657.8225	70.42397
657.978	70.60667
658.1335	73.65865
658.289	70.45528
658.4445	69.37789
658.5999	70.4097
658.7554	70.54996
658.9108	66.1782
659.0663	70.89818
659.2217	64.61202
659.3771	65.85226
659.5325	66.11028
659.6879	66.72573
659.8433	68.37552
659.9987	73.39487
660.1541	70.51568
660.3095	67.27039
660.4648	72.63389
660.6202	66.49142
660.7756	67.0109
660.9309	71.01543
661.0862	72.90558
661.2416	68.12134
661.3969	66.256
661.5522	69.89188
661.7075	70.7784
661.8628	72.06699
662.0181	68.51353
662.1733	68.76048
662.3286	68.69989
662.4839	65.04686
662.6391	71.60183
662.7944	70.12029
662.9496	67.18637
663.1048	69.73232
663.26	70.85863
663.4152	66.8973
663.5704	68.48253
663.7256	67.03305
663.8808	64.99438
664.036	68.67253
664.1912	63.38499
664.3463	69.89684
664.5015	69.94205
664.6566	67.50397
664.8118	65.86613
664.9669	68.51051
665.122	69.58943
665.2771	65.84608
665.4322	62.17549
665.5873	62.85651
665.7424	60.86002
665.8975	59.89122
666.0526	63.68816
666.2076	67.44916
666.3627	68.63915
666.5177	68.04578
666.6727	61.36736
666.8278	60.66973
666.9828	65.58152
667.1378	65.99435
667.2928	64.50758
667.4478	62.8337
667.6028	62.39314
667.7578	62.70933
667.9127	62.2265
668.0677	61.55759
668.2226	62.17022
668.3776	65.68592
668.5325	67.49582
668.6874	65.406
668.8423	68.04993
668.9973	64.54762
669.1522	59.42601
669.3071	63.7596
669.4619	60.99101
669.6168	62.61213
669.7717	66.01652
669.9265	62.66489
670.0814	64.82211
670.2362	63.56293
670.3911	64.36842
670.5459	65.37606
670.7007	60.32467
670.8555	57.35186
671.0103	64.14781
671.1651	67.26973
671.3199	59.2658
671.4747	59.96162
671.6295	59.22092
671.7842	61.27901
671.939	59.9429
672.0937	62.6109
672.2484	61.49186
672.4031	60.84985
672.5579	63.85254
672.7126	62.86505
672.8673	59.73817
673.022	60.22107
673.1767	59.75913
673.3314	62.15376
673.486	60.78241
673.6407	55.59684
673.7953	59.35744
673.95	59.19237
674.1046	63.2557
674.2592	65.39624
674.4138	57.18333
674.5684	55.07675
674.723	54.94878
674.8776	57.69798
675.0322	61.50122
675.1868	57.44944
675.3414	59.1733
675.4959	60.00242
675.6505	58.74256
675.805	63.10662
675.9595	60.25472
676.1141	66.24422
676.2686	59.92454
676.4231	63.01667
676.5776	63.28262
676.7321	61.6013
676.8866	59.65389
677.041	61.53303
677.1955	59.18064
677.35	64.54328
677.5044	62.76357
677.6589	63.17149
677.8133	60.65936
677.9677	56.51427
678.1221	64.48594
678.2766	60.62052
678.4309	56.04929
678.5853	59.2502
678.7397	58.32314
678.8941	60.59382
679.0485	55.28252
679.2028	58.44408
679.3571	58.05195
679.5115	56.90549
679.6658	62.7801
679.8201	57.28242
679.9744	59.93227
680.1288	61.95577
680.2831	59.58342
680.4373	58.35388
680.5916	55.30903
680.7459	57.37999
680.9001	58.89372
681.0544	52.55153
681.2087	55.84719
681.3629	57.50936
681.5171	54.23087
681.6713	56.77937
681.8256	60.51051
681.9797	60.6948
682.134	59.02416
682.2881	58.58807
682.4423	61.72861
682.5965	58.57543
682.7507	61.22913
682.9048	56.76867
683.059	56.88636
683.2131	59.46436
683.3672	57.03694
683.5213	57.85796
683.6754	59.15596
683.8295	56.61198
683.9836	60.24433
684.1377	54.95937
684.2918	55.87148
684.4459	57.84426
684.5999	61.10278
684.754	56.96054
684.908	56.65192
685.062	56.45528
685.2161	60.14986
685.3701	53.08202
685.5241	53.853
685.6781	59.28576
685.8321	61.77178
685.9861	62.80738
686.14	64.93015
686.294	58.08583
686.4479	61.42254
686.6019	61.1162
686.7559	59.52568
686.9098	59.34898
687.0637	53.03915
687.2176	53.20193
687.3715	56.0422
687.5254	59.541
687.6793	61.07677
687.8332	57.54476
687.9871	58.99828
688.1409	57.67091
688.2947	59.71978
688.4486	61.83901
688.6024	56.03658
688.7563	61.72043
688.9101	65.01091
689.0639	58.32144
689.2177	62.61984
689.3715	62.19959
689.5253	61.13559
689.6791	59.04377
689.8328	59.58751
689.9866	61.57698
690.1403	67.90581
690.2941	64.35682
690.4478	58.3016
690.6015	63.64281
690.7552	64.46798
690.9089	63.81048
691.0626	66.27926
691.2164	65.14501
691.37	59.26762
691.5237	62.35147
691.6774	66.9221
691.831	62.75353
691.9847	64.23145
692.1383	67.25549
692.2919	75.88825
692.4456	64.56396
692.5992	68.80881
692.7527	68.96808
692.9064	68.47223
693.0599	71.69686
693.2136	71.60201
693.3671	72.70696
693.5207	69.61765
693.6742	64.19144
693.8278	73.26485
693.9813	71.36037
694.1348	69.08077
694.2883	70.92182
694.4418	76.09412
694.5953	72.45915
694.7488	70.45541
694.9023	74.74157
695.0558	75.92681
695.2093	77.65357
695.3627	76.63254
695.5162	78.29206
695.6696	76.93085
695.8231	79.49638
695.9764	84.15842
696.1299	79.20174
696.2833	79.67972
696.4367	82.30598
696.5901	78.84694
696.7435	82.30131
696.8968	81.7335
697.0502	78.91044
697.2036	83.05859
697.3569	83.72974
697.5102	82.73312
697.6635	85.43929
697.8168	85.88219
697.9702	84.92352
698.1235	87.42825
698.2768	89.73273
698.4301	92.03815
698.5833	85.74145
698.7366	88.26595
698.8898	90.13338
699.0431	85.58929
699.1964	83.73598
699.3495	89.3959
699.5028	90.08367
699.656	94.69713
699.8092	94.67226
699.9624	94.22317
700.1156	96.06473
700.2688	90.17538
700.4219	94.41923
700.5751	96.73544
700.7283	98.4761
700.8814	99.94997
701.0345	98.15732
701.1877	102.4256
701.3408	97.71889
701.4939	95.74545
701.647	98.58868
701.8001	100.9918
701.9532	99.10829
702.1063	100.2411
702.2593	103.4614
702.4124	99.77362
702.5654	101.3805
702.7184	105.2524
702.8715	106.7295
703.0245	107.1671
703.1776	109.6816
703.3305	105.1218
703.4835	111.366
703.6365	108.3413
703.7895	108.6273
703.9424	111.5311
704.0954	107.4881
704.2484	112.1195
704.4013	112.9624
704.5543	115.7625
704.7072	116.0866
704.8601	116.894
705.013	118.5333
705.1659	118.415
705.3188	116.809
705.4717	116.4007
705.6246	117.5211
705.7774	121.6478
705.9303	128.863
706.0831	125.154
706.236	125.5901
706.3888	126.3309
706.5416	127.4379
706.6944	121.387
706.8472	120.4676
707	128.1668
707.1528	129.1321
707.3056	132.0281
707.4583	126.2937
707.6111	125.84
707.7639	128.3489
707.9166	132.0294
708.0693	132.3148
708.222	128.8281
708.3748	130.6284
708.5275	131.8238
708.6802	130.6207
708.8328	131.2338
708.9855	130.7443
709.1382	136.1509
709.2909	135.1123
709.4435	141.4055
709.5962	137.6458
709.7488	133.7473
709.9014	140.8044
710.054	141.0307
710.2067	134.7657
710.3593	138.3683
710.5118	135.6899
710.6644	137.4656
710.817	137.3838
710.9695	142.13
711.1221	145.9624
711.2747	149.3484
711.4272	146.4396
711.5797	145.93
711.7322	149.1181
711.8848	147.4769
712.0373	153.0284
712.1898	152.1272
712.3422	145.4934
712.4948	148.249
712.6472	152.0554
712.7996	154.674
712.9521	155.0062
713.1046	153.824
713.257	153.2129
713.4094	153.6548
713.5618	151.965
713.7142	154.975
713.8666	157.4323
714.019	162.6792
714.1714	153.9786
714.3237	161.5968
714.4761	160.5986
714.6285	160.2116
714.7808	160.562
714.9331	154.6317
715.0854	161.2139
715.2378	160.3378
715.3901	167.8368
715.5424	164.7838
715.6947	161.7048
715.8469	158.371
715.9992	163.8155
716.1515	163.2704
716.3037	166.1635
716.456	159.6207
716.6082	157.8636
716.7604	151.6358
716.9127	157.6533
717.0649	150.274
717.2171	147.6274
717.3693	142.3654
717.5214	143.4675
717.6736	145.7614
717.8258	142.5416
717.978	146.8757
718.1301	151.6022
718.2822	151.7162
718.4344	143.9098
718.5865	139.1804
718.7386	137.9364
718.8907	149.5724
719.0428	154.4669
719.1949	146.6629
719.3469	145.7978
719.499	150.6661
719.6511	147.378
719.8031	149.3367
719.9551	147.0238
720.1072	142.3324
720.2592	149.0618
720.4112	149.8826
720.5632	150.7493
720.7152	155.5555
720.8672	161.8606
721.0192	170.3678
721.1711	178.4322
721.3231	182.4955
721.475	180.2612
721.627	182.7699
721.7789	179.3088
721.9308	180.0643
722.0828	187.6277
722.2347	189.3754
722.3866	185.3202
722.5385	188.3911
722.6903	187.3624
722.8422	188.7746
722.9941	183.7033
723.1459	173.2176
723.2977	167.1642
723.4496	164.6149
723.6014	162.1724
723.7532	168.0935
723.905	173.9131
724.0568	172.917
724.2086	172.3319
724.3604	174.5428
724.5121	172.7369
724.6639	178.5025
724.8157	182.526
724.9674	185.2788
725.1191	179.1784
725.2709	172.8379
725.4226	179.3721
725.5743	183.955
725.726	188.1034
725.8777	194.4758
726.0294	193.3615
726.181	183.2874
726.3327	184.0542
726.4844	193.2908
726.636	186.6479
726.7877	196.0943
726.9393	196.0554
727.0909	195.4722
727.2425	199.8759
727.3941	195.7161
727.5457	185.2414
727.6973	178.774
727.8488	187.1814
728.0004	198.4463
728.1519	202.6688
728.3035	207.0453
728.455	214.2325
728.6066	217.902
728.7581	209.5391
728.9095	192.5367
729.0611	191.8222
729.2126	178.7744
729.364	188.7462
729.5155	198.829
729.667	215.8096
729.8184	218.109
729.9698	212.5627
730.1213	212.207
730.2727	200.1792
730.4241	204.2343
730.5756	208.8411
730.7269	211.4824
730.8784	214.9651
731.0297	206.1277
731.1811	212.2089
731.3325	217.0859
731.4838	212.6646
731.6351	218.6111
731.7865	214.103
731.9378	213.1033
732.0891	216.4602
732.2404	225.3432
732.3917	233.9309
732.543	233.429
732.6943	234.0795
732.8456	239.0389
732.9968	240.155
733.1481	233.636
733.2993	232.6214
733.4506	227.9714
733.6018	237.2141
733.753	240.7775
733.9042	239.4911
734.0554	253.9955
734.2066	252.1697
734.3578	244.6284
734.509	246.0381
734.6602	243.5205
734.8113	244.1063
734.9624	247.8114
735.1136	247.2805
735.2647	248.6763
735.4158	241.8462
735.5669	244.9098
735.718	244.0487
735.8691	238.4857
736.0201	239.7454
736.1713	245.4703
736.3223	250.1216
736.4733	244.6295
736.6244	233.4841
736.7755	246.7717
736.9265	246.0453
737.0775	247.8769
737.2285	252.4417
737.3795	256.06
737.5305	261.4355
737.6815	255.7499
737.8324	255.0744
737.9834	256.854
738.1343	256.9073
738.2853	257.7568
738.4362	260.711
738.5871	253.4447
738.738	255.1829
738.8889	253.5535
739.0399	253.5186
739.1907	255.9117
739.3416	259.2808
739.4925	254.3239
739.6433	256.5272
739.7942	265.5757
739.945	257.8598
740.0958	260.3434
740.2467	264.8657
740.3975	264.7236
740.5483	259.6991
740.6991	259.2196
740.8499	258.0225
741.0007	256.1203
741.1514	259.1469
741.3022	261.2293
741.4529	260.2651
741.6036	258.7406
741.7544	254.4785
741.9051	265.5242
742.0558	264.7249
742.2065	262.8807
742.3572	260.2071
742.5079	260.8965
742.6586	267.3904
742.8093	266.9356
742.9599	267.4792
743.1105	269.2392
743.2612	268.7694
743.4118	264.0528
743.5624	267.124
743.7131	268.8446
743.8636	268.0581
744.0142	266.9326
744.1648	264.259
744.3154	265.1569
744.4659	264.7886
744.6165	263.3642
744.767	260.5936
744.9176	267.495
745.0681	267.1157
745.2186	273.9333
745.3691	266.6966
745.5197	268.3091
745.6702	264.3935
745.8206	273.2169
745.9711	267.1506
746.1215	258.6935
746.272	265.9258
746.4224	263.0171
746.5729	262.6835
746.7233	255.7283
746.8737	258.9115
747.0241	265.2975
747.1745	265.2846
747.3249	254.1236
747.4753	262.1143
747.6257	262.881
747.776	260.9257
747.9264	265.927
748.0767	260.5225
748.2271	260.2222
748.3774	267.1137
748.5276	267.2227
748.678	267.4267
748.8282	264.2721
748.9786	261.0815
749.1288	258.3553
749.2791	256.7532
749.4294	252.7285
749.5796	254.1098
749.7299	254.3272
749.8801	256.433
750.0303	257.185
750.1805	254.497
750.3307	260.4561
750.4809	263.377
750.6311	255.1802
750.7813	258.0662
750.9314	252.6019
751.0816	246.1849
751.2318	248.9569
751.3818	249.413
751.532	259.4971
751.6821	262.8372
751.8322	255.4566
751.9823	255.021
752.1324	260.9533
752.2825	250.6401
752.4326	248.781
752.5826	251.1566
752.7327	252.9445
752.8827	250.6025
753.0327	251.666
753.1827	251.0162
753.3328	245.8645
753.4828	247.5066
753.6328	253.5632
753.7828	250.1579
753.9327	256.2775
754.0827	256.3134
754.2327	252.8036
754.3826	246.0787
754.5325	243.1271
754.6825	245.6006
754.8324	240.4983
754.9823	240.801
755.1322	244.2453
755.2821	236.5599
755.432	238.7985
755.5818	243.7035
755.7318	241.5689
755.8816	243.262
756.0314	234.7865
756.1813	242.5308
756.3311	241.9892
756.4809	234.6337
756.6307	230.4281
756.7805	233.0834
756.9303	235.9416
757.0801	235.0311
757.2299	229.3428
757.3796	231.7134
757.5294	232.4101
757.6791	237.4437
757.8289	242.2489
757.9786	228.937
758.1283	237.6773
758.278	235.7807
758.4277	228.6015
758.5773	230.5163
758.7271	229.8622
758.8767	224.8762
759.0264	218.9299
759.176	215.0034
759.3256	202.5807
759.4753	162.102
759.6249	127.224
759.7745	100.7937
759.9241	84.74742
760.0737	86.81517
760.2233	77.11089
760.3729	64.97041
760.5224	60.42097
760.6719	57.62582
760.8215	59.85446
760.971	71.62251
761.1205	74.44624
761.2701	85.10463
761.4196	96.91429
761.5691	108.772
761.7186	136.174
761.868	157.8069
762.0175	154.9701
762.167	146.0537
762.3164	126.8588
762.4659	111.2779
762.6153	115.2864
762.7647	110.9064
762.9141	103.7718
763.0635	110.9179
763.2129	114.4218
763.3623	114.7517
763.5117	110.1836
763.661	119.0792
763.8104	111.9192
763.9597	112.3828
764.1091	119.1086
764.2584	123.4565
764.4077	131.3882
764.557	132.6456
764.7063	137.2676
764.8556	137.6917
765.0049	140.4926
765.1541	145.7161
765.3034	153.1805
765.4526	147.3747
765.6019	149.1352
765.7511	157.793
765.9003	165.4524
766.0496	155.541
766.1987	161.3151
766.348	161.5862
766.4971	166.479
766.6463	172.5325
766.7955	180.8486
766.9446	182.5665
767.0938	188.0666
767.2429	182.6974
767.392	184.9637
767.5411	196.1156
767.6902	192.0632
767.8394	190.5373
767.9884	194.8346
768.1375	189.5515
768.2866	196.1332
768.4356	198.4066
768.5847	194.9899
768.7337	188.4948
768.8828	192.5712
769.0317	187.8413
769.1808	194.0095
769.3298	193.3586
769.4788	195.7188
769.6277	186.3394
769.7767	183.0902
769.9257	190.3255
770.0746	183.6223
770.2236	187.0827
770.3725	192.6048
770.5214	193.513
770.6703	191.001
770.8193	194.1812
770.9681	189.4946
771.1171	186.6828
771.2659	190.3997
771.4148	185.9336
771.5637	191.0739
771.7125	188.6128
771.8613	188.4148
772.0101	189.0396
772.159	197.3134
772.3078	188.7231
772.4566	192.5463
772.6054	184.6547
772.7542	188.1699
772.903	186.6061
773.0517	187.6174
773.2004	183.232
773.3492	186.7215
773.4979	183.9007
773.6467	183.2197
773.7953	181.3398
773.944	186.4396
774.0928	184.5816
774.2415	188.9094
774.3901	190.3555
774.5388	183.5992
774.6874	181.0663
774.8361	172.0279
774.9847	179.9273
775.1334	178.9931
775.282	178.5415
775.4305	191.079
775.5792	181.6167
775.7277	182.1969
775.8763	187.7601
776.0249	185.3143
776.1735	187.3303
776.322	184.0203
776.4705	188.1555
776.6191	185.9979
776.7676	180.5134
776.9161	183.9333
777.0646	181.4566
777.2131	183.8151
777.3616	180.3239
777.5101	176.5122
777.6585	175.0719
777.8069	177.8607
777.9554	177.3121
778.1038	176.2756
778.2523	171.4684
778.4007	177.4292
778.5491	182.5078
778.6974	179.6209
778.8459	178.7569
778.9942	177.1991
779.1426	177.8374
779.291	183.8602
779.4393	178.457
779.5876	174.7083
779.736	167.268
779.8843	170.9412
780.0326	176.1878
780.1809	171.3619
780.3292	173.7294
780.4775	175.8995
780.6257	178.3241
780.774	177.834
780.9222	175.2407
781.0704	168.8859
781.2187	171.8273
781.3669	173.2446
781.5151	178.0554
781.6633	176.3873
781.8115	175.6873
781.9597	175.3986
782.1078	177.3192
782.256	171.2893
782.4042	169.1022
782.5523	172.6723
782.7004	168.119
782.8486	168.9616
782.9967	163.3084
783.1448	170.8504
783.2929	173.9133
783.441	166.3532
783.5891	164.2447
783.7371	164.7832
783.8851	171.2816
784.0332	176.7921
784.1812	174.3246
784.3293	171.4546
784.4773	166.9704
784.6253	169.5427
784.7733	171.3587
784.9213	169.6127
785.0692	162.014
785.2172	156.3579
785.3652	161.2396
785.5131	159.4989
785.6611	158.8216
785.809	166.2216
785.9569	165.2019
786.1048	160.8508
786.2527	160.4534
786.4006	158.4171
786.5485	157.5357
786.6964	158.7333
786.8442	155.3519
786.9921	161.2515
787.1399	163.9914
787.2877	158.8048
787.4355	159.4822
787.5833	159.4203
787.7311	161.804
787.8789	156.843
788.0267	153.7692
788.1745	151.841
788.3223	161.0592
788.47	158.6683
788.6177	156.6971
788.7654	149.4096
788.9132	155.822
789.0609	156.0394
789.2086	152.7167
789.3563	147.0717
789.504	155.3202
789.6517	154.4384
789.7993	152.7416
789.947	152.9198
790.0946	148.7342
790.2422	151.8757
790.3898	151.9643
790.5375	152.0051
790.6851	154.0226
790.8326	155.8928
790.9802	151.6411
791.1278	148.7282
791.2754	148.6864
791.423	156.105
791.5705	154.6424
791.718	150.9758
791.8655	145.7484
792.0131	146.4671
792.1606	148.127
792.308	147.901
792.4556	151.8813
792.603	144.8676
792.7505	148.6263
792.8979	146.3436
793.0454	142.9569
793.1928	139.4488
793.3403	143.5041
793.4877	151.2248
793.6351	144.5162
793.7825	147.0213
793.9299	152.7037
794.0772	149.3469
794.2246	140.9884
794.3719	145.046
794.5193	143.6881
794.6666	141.2597
794.814	140.7836
794.9613	144.9612
795.1086	147.5225
795.2559	146.3664
795.4032	145.1333
795.5505	142.8177
795.6978	144.5576
795.845	143.1539
795.9922	146.1181
796.1395	136.6827
796.2867	133.7488
796.4339	139.5369
796.5811	131.2299
796.7283	132.6541
796.8755	136.889
797.0227	140.3418
797.1699	139.3224
797.317	137.979
797.4642	145.628
797.6113	144.6852
797.7584	142.2672
797.9056	141.1384
798.0527	144.5609
798.1998	145.0459
798.3469	140.5657
798.494	137.7002
798.641	139.0991
798.7881	135.9053
798.9351	135.3014
799.0822	144.6227
799.2292	144.2481
799.3762	132.3816
799.5232	137.6601
799.6702	140.6369
799.8172	132.519
799.9642	127.6067
800.1111	134.0605
800.2581	129.1798
800.4051	137.8561
800.552	135.7118
800.6989	131.2801
800.8458	133.5414
800.9927	133.0147
801.1396	128.6242
801.2866	128.9651
801.4334	134.0834
801.5803	134.4532
801.7272	134.2661
801.874	134.0044
802.0209	136.0702
802.1677	130.0053
802.3145	131.7712
802.4613	134.805
802.6081	128.9065
802.7549	123.6598
802.9017	121.1021
803.0485	127.9487
803.1952	126.8585
803.342	122.6482
803.4887	128.6556
803.6354	124.512
803.7822	130.4313
803.9289	132.4131
804.0756	127.5691
804.2223	122.8571
804.369	125.4305
804.5156	126.6684
804.6623	128.2558
804.8089	119.8202
804.9556	123.1374
805.1022	125.7667
805.2488	130.9687
805.3954	130.836
805.542	126.9184
805.6886	125.4786
805.8352	124.1857
805.9818	124.501
806.1283	124.8575
806.2749	132.7213
806.4214	126.9245
806.5679	120.4446
806.7145	119.2383
806.861	126.4665
807.0074	120.1269
807.154	123.4533
807.3004	122.9466
807.4469	123.9259
807.5934	123.8732
807.7398	117.5412
807.8862	114.4935
808.0327	118.8953
808.1791	124.2704
808.3255	120.558
808.4719	116.4385
808.6183	121.8553
808.7647	118.189
808.9111	119.61
809.0574	114.7341
809.2037	117.1185
809.3501	121.2558
809.4965	111.4587
809.6428	109.1793
809.7891	111.3476
809.9354	117.0967
810.0817	119.1441
810.2279	116.7093
810.3742	115.6874
810.5204	116.0165
810.6667	110.176
810.8129	112.8735
810.9592	111.574
811.1054	109.7215
811.2516	107.4743
811.3978	113.4959
811.5439	106.9779
811.6901	108.0096
811.8363	111.3556
811.9825	112.5687
812.1286	107.3332
812.2748	109.6338
812.4209	107.4349
812.567	108.2511
812.7131	102.1701
812.8592	97.24809
813.0053	101.3694
813.1514	99.75006
813.2974	98.36938
813.4435	93.27
813.5895	91.10166
813.7356	97.2887
813.8816	99.90579
814.0276	92.2623
814.1736	90.92315
814.3196	90.10385
814.4656	93.01842
814.6116	89.32271
814.7576	90.01945
814.9035	87.17316
815.0494	85.81302
815.1954	84.99809
815.3413	86.60571
815.4872	88.66775
815.6331	91.44237
815.779	94.51437
815.9249	95.17182
816.0707	84.33478
816.2166	81.20638
816.3625	79.33927
816.5083	78.26009
816.6542	84.96487
816.8	87.41074
816.9458	84.8661
817.0916	86.88447
817.2374	93.17812
817.3832	96.44788
817.5289	88.23206
817.6747	85.07086
817.8204	79.978
817.9662	82.18864
818.1119	80.22645
818.2576	86.58723
818.4034	90.86402
818.5491	91.09922
818.6948	87.99095
818.8405	89.07674
818.9861	84.92693
819.1318	83.31612
819.2774	88.26344
819.423	86.6049
819.5687	83.77345
819.7143	84.30059
819.8599	81.89837
820.0055	77.90804
820.1511	81.41957
820.2967	88.83287
820.4422	101.3624
820.5878	103.0294
820.7333	95.37199
820.8788	98.70303
821.0244	90.721
821.1699	89.97855
821.3154	85.87741
821.4609	88.23512
821.6064	93.17641
821.7519	90.9793
821.8973	82.88558
822.0428	83.74397
822.1882	84.17363
822.3337	85.28165
822.4791	82.01126
822.6245	71.68413
822.7699	65.24004
822.9153	55.86165
823.0607	59.2236
823.2061	61.24221
823.3514	64.41133
823.4968	75.62202
823.6422	80.17869
823.7875	88.56798
823.9328	93.45085
824.0781	85.32832
824.2234	83.82784
824.3687	86.29135
824.514	82.76068
824.6592	87.41775
824.8045	90.87846
824.9498	86.09838
825.095	92.288
825.2402	90.89385
825.3854	88.9966
825.5306	85.19721
825.6758	80.18407
825.821	84.26339
825.9662	78.05279
826.1114	78.72931
826.2565	89.76276
826.4017	87.77283
826.5468	87.36095
826.692	89.37928
826.837	92.58688
826.9822	88.10432
827.1273	80.22558
827.2723	79.00418
827.4174	75.79585
827.5625	78.32434
827.7075	78.36166
827.8526	81.69099
827.9976	81.95968
828.1426	80.01827
828.2877	82.43437
828.4327	81.31683
828.5776	83.23375
828.7227	79.15202
828.8676	76.83926
829.0126	74.69926
829.1575	74.79728
829.3024	76.63023
829.4474	77.03989
829.5923	82.9391
829.7372	81.27699
829.8821	82.92419
830.027	87.24057
830.1719	78.34617
830.3168	77.78429
830.4616	73.67663
830.6064	72.58514
830.7513	80.04181
830.8961	85.22179
831.041	78.31725
831.1857	77.40282
831.3306	79.37134
831.4753	81.5939
831.6201	84.15246
831.7649	77.08875
831.9096	73.69317
832.0544	72.87612
832.1991	69.71553
832.3438	72.81717
832.4885	79.6114
832.6332	74.95132
832.778	83.765
832.9226	76.71179
833.0673	75.90626
833.2119	69.86108
833.3566	74.36163
833.5012	78.96585
833.6459	75.50926
833.7905	71.88568
833.9351	73.29469
834.0797	70.70203
834.2243	76.50895
834.3688	80.31488
834.5134	84.55337
834.658	77.39498
834.8026	72.73647
834.9471	75.49638
835.0916	79.65554
835.2361	76.57108
835.3806	78.48666
835.5251	80.75604
835.6696	83.04449
835.8141	80.71591
835.9586	76.57491
836.103	72.93839
836.2474	77.8267
836.3918	78.61299
836.5363	80.98246
836.6807	81.09243
836.8251	76.56458
836.9695	81.14529
837.1138	82.70946
837.2582	80.11649
837.4026	79.10679
837.5469	75.35256
837.6913	73.82563
837.8356	74.44659
837.9799	78.60956
838.1242	77.72428
838.2686	79.3171
838.4128	77.56514
838.5571	72.97771
838.7014	71.13948
838.8456	76.90595
838.9899	73.19734
839.1341	74.51213
839.2783	79.54009
839.4225	78.09878
839.5667	77.1879
839.7109	76.23348
839.8551	81.22777
839.9993	81.39105
840.1434	78.94464
840.2876	73.77551
840.4317	76.58745
840.5759	76.88413
840.72	72.78101
840.8641	78.01125
841.0082	77.89596
841.1523	74.73425
841.2963	79.02328
841.4404	77.49078
841.5845	74.80513
841.7285	78.40047
841.8726	74.18708
842.0165	71.93858
842.1606	77.98115
842.3046	79.18293
842.4485	73.19815
842.5925	78.99469
842.7365	79.0126
842.8805	84.93471
843.0244	79.22817
843.1684	78.25438
843.3123	73.28417
843.4562	68.29482
843.6002	70.61172
843.744	75.61608
843.8879	73.00101
844.0318	72.18806
844.1757	71.91278
844.3195	72.24825
844.4634	70.17781
844.6072	71.1946
844.751	66.66454
844.8948	72.43188
845.0386	76.11269
845.1824	75.93398
845.3262	74.93041
845.47	77.63905
845.6138	76.45982
845.7575	76.36007
845.9012	69.87341
846.045	70.7319
846.1887	72.11731
846.3324	74.89931
846.4761	70.342
846.6198	76.94192
846.7635	80.22342
846.9071	76.596
847.0508	71.29801
847.1944	70.81916
847.3381	71.36008
847.4817	72.05106
847.6253	69.91488
847.7689	74.26999
847.9125	73.27233
848.0561	73.6916
848.1996	72.69197
848.3432	69.48032
848.4868	72.55534
848.6303	72.0179
848.7738	71.82596
848.9174	70.23713
849.0609	66.41682
849.2043	66.80344
849.3478	71.59873
849.4913	62.17368
849.6348	67.63071
849.7782	61.27975
849.9217	59.99115
850.0651	62.44037
850.2086	62.74607
850.3519	65.91448
850.4954	69.52739
850.6387	74.10027
850.7821	72.62807
850.9255	67.52544
851.0688	69.46375
851.2122	70.20891
851.3555	67.23145
851.4988	72.49288
851.6422	68.84719
851.7855	67.36341
851.9288	66.52718
852.0721	68.28214
852.2153	66.90573
852.3586	68.09202
852.5018	69.15916
852.6451	66.71179
852.7883	67.54937
852.9315	70.29311
853.0748	67.59264
853.218	66.93104
853.3611	66.42607
853.5043	68.38512
853.6475	66.7218
853.7906	61.88438
853.9338	53.8234
854.0769	51.52058
854.22	52.94723
854.3632	47.88274
854.5063	54.41599
854.6494	53.68877
854.7924	58.13744
854.9355	57.32315
855.0786	63.51307
855.2216	62.58288
855.3647	60.74191
855.5077	66.9912
855.6507	65.72324
855.7937	64.6726
855.9367	60.87453
856.0797	67.78761
856.2227	71.03448
856.3657	68.98635
856.5086	65.39656
856.6516	67.72837
856.7945	69.70348
856.9374	69.17789
857.0803	66.81981
857.2232	62.8596
857.3661	59.51945
857.509	64.76042
857.6519	62.49477
857.7947	62.64471
857.9376	61.45497
858.0804	66.73443
858.2232	63.09362
858.366	66.38336
858.5089	64.07357
858.6516	61.34756
858.7944	63.60698
858.9372	65.83165
859.08	63.95647
859.2227	65.74767
859.3654	64.08728
859.5082	55.31245
859.6509	56.89618
859.7936	66.3938
859.9363	62.87482
860.079	61.44368
860.2217	64.25265
860.3643	63.35144
860.507	61.54428
860.6496	64.57397
860.7922	61.4622
860.9349	61.64852
861.0775	63.44589
861.2201	60.68786
861.3627	63.44475
861.5052	62.17353
861.6478	64.01945
861.7904	57.70554
861.9329	58.03357
862.0755	60.39481
862.218	60.70004
862.3605	62.19811
862.503	54.86305
862.6455	62.35902
862.788	64.80479
862.9305	59.72132
863.0729	61.47019
863.2154	61.83505
863.3578	56.86041
863.5002	53.89902
863.6426	54.51753
863.7851	59.72614
863.9275	64.31683
864.0698	60.91291
864.2122	57.25198
864.3546	54.54993
864.4969	55.66378
864.6393	55.66565
864.7816	56.73145
864.924	56.38665
865.0662	55.33274
865.2086	54.66679
865.3508	55.22359
865.4931	56.76245
865.6354	56.98368
865.7776	53.41718
865.9199	51.8934
866.0621	49.83242
866.2043	41.86516
866.3466	42.2497
866.4888	48.04775
866.6309	58.02257
866.7731	55.42809
866.9153	56.64044
867.0574	55.7756
867.1996	55.71112
867.3417	57.002
867.4839	55.21955
867.626	54.88713
867.7681	50.82766
867.9102	53.14338
868.0522	53.30383
868.1943	53.13657
868.3364	61.77155
868.4785	59.82548
868.6205	55.53305
868.7625	55.18437
868.9045	56.36983
869.0465	55.58262
869.1885	55.20764
869.3305	57.87105
869.4725	56.66235
869.6144	50.59851
869.7564	52.65451
869.8983	56.68966
870.0403	60.1772
870.1822	53.98162
870.3241	57.10673
870.466	49.91365
870.6079	49.45698
870.7498	55.38574
870.8916	54.61574
871.0335	54.85843
871.1754	53.10968
871.3171	52.36687
871.459	51.41236
871.6008	52.4548
871.7426	52.66539
871.8844	55.33107
872.0262	52.58076
872.1679	50.50769
872.3097	52.05741
872.4514	46.93031
872.5931	48.65909
872.7349	47.44273
872.8766	50.7285
873.0183	50.27268
873.16	53.79611
873.3017	54.27921
873.4434	47.98025
873.585	52.11779
873.7266	51.35486
873.8683	55.38279
874.0099	55.52466
874.1516	55.18107
874.2932	48.87407
874.4348	48.22493
874.5763	47.99492
874.7179	43.41591
874.8594	47.42122
875.001	50.02832
875.1425	49.18171
875.2841	51.10984
875.4256	46.65666
875.5671	45.32755
875.7086	47.77081
875.85	45.08353
875.9915	50.19129
876.133	46.79308
876.2744	47.3179
876.4159	45.63957
876.5573	48.91741
876.6987	49.81715
876.8401	49.09684
876.9815	47.34544
877.1229	43.88786
877.2643	47.39751
877.4056	45.08283
877.547	50.53696
877.6884	49.88783
877.8297	45.46548
877.971	43.90076
878.1123	45.60643
878.2536	45.1386
878.3949	46.20658
878.5362	52.27319
878.6774	51.69687
878.8187	45.11598
878.9599	48.9015
879.1011	50.00517
879.2424	47.92645
879.3836	44.69519
879.5248	45.42351
879.666	47.32897
879.8071	50.79931
879.9483	46.32155
880.0895	44.02063
880.2306	45.70752
880.3718	48.44061
880.5129	46.4127
880.654	38.86444
880.7951	44.21946
880.9362	45.78543
881.0773	46.76076
881.2183	54.26619
881.3594	52.45092
881.5004	49.32314
881.6414	44.57169
881.7825	48.43063
881.9235	50.78841
882.0645	43.27859
882.2054	42.24158
882.3464	43.65326
882.4874	48.82476
882.6284	42.5869
882.7693	47.02814
882.9103	42.71132
883.0512	41.69346
883.1921	45.43798
883.333	46.00148
883.4739	42.26596
883.6147	43.90629
883.7556	48.02329
883.8965	43.75255
884.0374	44.38874
884.1782	45.12001
884.319	41.22643
884.4598	38.7063
884.6006	39.71229
884.7414	43.10025
884.8822	42.24681
885.0229	42.13706
885.1637	44.55092
885.3044	44.48204
885.4452	39.93792
885.5859	39.02032
885.7266	38.81115
885.8673	40.62259
886.008	45.65171
886.1487	45.2313
886.2894	48.57619
886.43	41.49156
886.5707	38.81715
886.7113	43.70513
886.8519	40.91959
886.9926	43.30805
887.1331	37.35754
887.2737	41.91434
887.4143	46.40841
887.5549	43.11356
887.6954	40.73631
887.836	41.03261
887.9765	42.77806
888.1171	42.96246
888.2576	46.23638
888.3981	43.77416
888.5386	35.51616
888.679	37.23709
888.8195	38.45046
888.96	43.32826
889.1004	37.52915
889.2408	38.52505
889.3813	46.4423
889.5217	42.64978
889.6621	34.88174
889.8025	40.80671
889.9429	41.15985
890.0833	45.78575
890.2236	41.79514
890.364	43.51787
890.5043	39.8865
890.6446	42.2951
890.7849	43.92432
890.9252	40.80538
891.0655	38.86607
891.2058	41.30497
891.3461	40.78223
891.4863	39.3963
891.6266	39.21751
891.7668	40.98035
891.907	41.19973
892.0472	39.52491
892.1874	38.72184
892.3276	38.13961
892.4678	35.77242
892.608	47.18614
892.7481	38.87106
892.8883	35.91091
893.0284	37.09478
893.1685	37.36164
893.3087	38.04999
893.4487	37.00531
893.5889	38.25801
893.7289	32.97034
893.869	32.85776
894.009	36.93091
894.1491	39.94897
894.2891	34.03194
894.4291	35.79054
894.5692	35.84266
894.7092	39.19954
894.8491	30.87318
894.9891	38.46518
895.1291	38.32859
895.269	37.89601
895.409	28.74582
895.549	27.92325
895.6888	34.01213
895.8288	29.92451
895.9687	31.85055
896.1086	34.79543
896.2484	27.86555
896.3883	29.23421
896.5281	28.87579
896.668	28.73262
896.8079	28.51932
896.9476	33.68202
897.0875	31.82159
897.2272	27.08255
897.3671	31.04326
897.5068	31.3252
897.6466	32.20635
897.7864	29.85108
897.9261	29.1873
898.0658	32.30837
898.2056	30.61626
898.3453	31.59134
898.4849	31.64501
898.6246	31.28766
898.7643	21.87081
898.904	20.96906
899.0436	20.12423
899.1833	18.54077
899.3229	24.22376
899.4625	33.68979
899.6021	32.56658
899.7417	36.8531
899.8813	36.68013
900.0209	29.76196
900.1605	25.31059
900.3	30.40837
900.4395	27.55025
900.579	27.77754
900.7186	29.21699
900.8581	25.67218
900.9976	27.72693
901.1371	28.54342
901.2766	34.07954
901.416	25.14233
901.5555	28.60976
901.6949	24.79881
901.8344	29.5213
901.9738	30.12447
902.1132	30.50121
902.2526	28.0368
902.3919	26.93668
902.5313	25.11035
902.6707	27.67355
